113.00,106.64,0
80.00,107.30,0
102.00,107.35,0
125.00,107.21,0
68.00,107.04,0
62.00,106.04,0
86.00,104.08,0
82.00,101.76,0
60.00,99.20,0
99.00,96.45,0
77.00,93.95,0
75.00,91.65,0
37.00,89.06,0
40.00,85.71,0
77.00,81.93,0
42.00,78.30,0
36.00,74.58,0
48.00,70.62,0
64.00,66.90,0
71.00,63.91,0
80.00,61.88,0
63.00,60.73,0
64.00,60.08,0
96.00,59.97,0
77.00,60.66,0
88.00,61.97,0
92.00,63.77,0
119.00,66.26,0
146.00,69.90,0
128.00,74.84,0
99.00,80.26,0
78.00,85.06,0
102.00,88.84,0
100.00,91.94,0
116.00,94.71,0
92.00,97.19,0
85.00,99.04,0
79.00,100.00,0
50.00,99.84,0
100.00,98.73,0
126.00,97.73,0
82.00,97.33,0
93.00,96.97,0
51.00,96.13,0
42.00,94.27,0
43.00,91.22,0
37.00,87.27,0
55.00,82.80,0
70.00,78.45,0
58.00,74.65,0
61.00,71.33,0
69.00,68.51,0
48.00,66.14,0
100.00,64.35,0
102.00,63.74,0
103.00,64.55,0
96.00,66.37,0
88.00,68.72,0
76.00,71.11,0
149.00,73.78,0
114.00,77.41,0
92.00,81.47,0
80.00,85.00,0
91.00,87.70,0
106.00,89.89,0
116.00,92.05,0
96.00,94.23,0
105.00,96.19,0
80.00,97.69,0
99.00,98.61,0
98.00,99.16,0
60.00,99.23,0
54.00,98.25,0
44.00,96.02,0
54.00,92.77,0
82.00,89.17,0
39.00,85.61,0
37.00,81.69,0
46.00,77.33,0
36.00,72.83,0
51.00,68.40,0
61.00,64.42,0
73.00,61.29,0
78.00,59.25,0
96.00,58.43,0
37.00,58.41,0
89.00,58.61,0
104.00,59.45,0
63.00,61.11,0
93.00,63.01,0
99.00,65.26,0
55.00,67.66,0
106.00,69.86,0
113.00,72.36,0
114.00,75.55,0
98.00,79.11,0
112.00,82.69,0
103.00,86.19,0
84.00,89.32,0
77.00,91.62,0
70.00,92.89,0
103.00,93.44,0
74.00,93.65,0
46.00,93.17,0
50.00,91.52,0
57.00,88.90,0
37.00,85.64,0
72.00,82.00,0
56.00,78.48,0
45.00,75.11,0
76.00,71.89,0
90.00,69.45,0
88.00,68.14,0
88.00,67.82,0
82.00,68.20,0
91.00,69.06,0
82.00,70.29,0
133.00,72.10,0
87.00,74.69,0
67.00,77.28,0
76.00,79.15,0
108.00,80.66,0
93.00,82.32,0
204.00,84.98,0
109.00,89.23,0
112.00,93.92,0
83.00,97.81,0
105.00,100.71,0
106.00,102.88,0
89.00,104.48,0
91.00,105.34,0
127.00,105.80,0
50.00,105.92,0
43.00,104.74,0
56.00,101.95,0
96.00,98.54,0
40.00,95.06,0
52.00,91.16,0
44.00,86.75,0
42.00,82.02,0
61.00,77.29,0
72.00,73.08,0
37.00,69.47,0
60.00,66.13,0
77.00,63.34,0
76.00,61.52,0
86.00,60.70,0
67.00,60.67,0
127.00,61.52,0
70.00,63.35,0
88.00,65.57,0
90.00,67.87,0
108.00,70.49,0
135.00,73.79,0
127.00,78.02,0
110.00,82.78,0
80.00,87.19,0
80.00,90.55,0
141.00,93.26,0
66.00,95.78,0
150.00,98.02,0
85.00,100.21,0
86.00,101.91,0
79.00,102.62,0
72.00,102.37,0
78.00,101.29,0
95.00,99.79,0
45.00,97.94,0
44.00,95.19,0
39.00,91.38,0
41.00,86.79,0
47.00,81.84,0
53.00,76.92,0
63.00,72.43,0
77.00,68.74,0
75.00,66.07,0
79.00,64.39,0
92.00,63.66,0
118.00,64.15,0
112.00,66.05,0
106.00,69.00,0
135.00,72.77,0
86.00,77.05,0
103.00,81.13,0
106.00,84.84,0
139.00,88.61,0
110.00,92.62,0
146.00,96.78,0
84.00,100.76,0
84.00,103.74,0
52.00,105.09,0
128.00,105.26,0
86.00,105.16,0
80.00,104.75,0
69.00,103.58,0
79.00,101.73,0
74.00,99.44,0
54.00,96.74,0
62.00,93.52,0
36.00,89.75,0
36.00,85.30,0
42.00,80.35,0
40.00,75.25,0
43.00,70.25,0
42.00,65.52,0
48.00,61.21,0
60.00,57.54,0
52.00,54.67,0
37.00,52.34,0
63.00,50.41,0
142.00,49.78,0
109.00,51.44,0
100.00,54.80,0
89.00,58.83,0
108.00,63.15,0
86.00,67.57,0
168.00,72.39,0
58.00,77.64,0
110.00,82.31,0
85.00,86.15,0
68.00,89.09,0
99.00,91.03,0
156.00,92.98,0
94.00,95.56,0
66.00,97.75,0
86.00,98.76,0
87.00,98.95,0
47.00,98.37,0
75.00,96.80,0
59.00,94.51,0
58.00,91.73,0
45.00,88.41,0
48.00,84.59,0
54.00,80.49,0
63.00,76.53,0
59.00,72.97,0
83.00,70.03,0
77.00,67.98,0
47.00,66.52,0
64.00,65.15,0
81.00,64.08,0
99.00,63.82,0
92.00,64.58,0
106.00,66.25,0
102.00,68.67,0
93.00,71.57,0
92.00,74.55,0
142.00,77.82,0
98.00,81.65,0
104.00,85.51,0
90.00,88.89,0
127.00,91.92,0
87.00,94.74,0
150.00,97.48,0
95.00,100.33,0
46.00,102.36,0
78.00,102.73,0
95.00,102.07,0
51.00,100.82,0
127.00,99.23,0
57.00,97.72,0
41.00,95.68,0
80.00,92.78,0
39.00,89.50,0
40.00,85.68,0
80.00,81.59,0
59.00,77.92,0
49.00,74.60,0
60.00,71.41,0
56.00,68.48,0
63.00,65.94,0
71.00,63.91,0
94.00,62.73,0
85.00,62.60,0
78.00,63.25,0
80.00,64.30,0
127.00,66.00,0
127.00,68.92,0
128.00,73.06,0
96.00,77.74,0
109.00,82.28,0
79.00,86.26,0
103.00,89.49,0
106.00,92.22,0
147.00,95.05,0
115.00,98.32,0
88.00,101.40,0
82.00,103.47,0
68.00,104.26,0
62.00,103.74,0
75.00,102.12,0
60.00,99.76,0
77.00,96.92,0
115.00,94.28,0
43.00,92.05,0
48.00,89.37,0
37.00,85.84,0
52.00,81.76,0
89.00,77.86,0
36.00,74.52,0
71.00,71.43,0
94.00,68.98,0
77.00,67.60,0
91.00,67.12,0
102.00,67.52,0
94.00,68.80,0
108.00,70.79,0
106.00,73.40,0
99.00,76.42,0
122.00,79.71,0
71.00,82.99,0
114.00,85.86,0
82.00,88.36,0
110.00,90.54,0
95.00,92.48,0
90.00,94.13,0
84.00,95.23,0
103.00,95.90,0
88.00,96.37,0
66.00,96.38,0
93.00,95.79,0
62.00,94.78,0
73.00,93.26,0
45.00,91.12,0
39.00,88.15,0
37.00,84.31,0
74.00,80.14,0
45.00,76.23,0
93.00,72.86,0
61.00,70.30,0
106.00,68.68,0
69.00,68.00,0
63.00,67.78,0
90.00,67.72,0
101.00,68.28,0
107.00,69.74,0
102.00,71.99,0
53.00,74.32,0
96.00,76.16,0
100.00,77.88,0
103.00,79.93,0
80.00,82.03,0
122.00,84.09,0
102.00,86.40,0
127.00,89.04,0
83.00,91.74,0
88.00,93.90,0
83.00,95.27,0
106.00,96.13,0
70.00,96.63,0
90.00,96.59,0
67.00,95.97,0
49.00,94.59,0
42.00,92.13,0
39.00,88.61,0
35.00,84.30,0
53.00,79.58,0
44.00,74.89,0
59.00,70.50,0
69.00,66.75,0
40.00,63.65,0
67.00,60.97,0
78.00,59.01,0
66.00,57.95,0
87.00,57.70,0
113.00,58.51,0
92.00,60.53,0
110.00,63.43,0
84.00,66.80,0
108.00,70.35,0
99.00,74.01,0
84.00,77.57,0
104.00,80.77,0
103.00,83.80,0
100.00,86.72,0
80.00,89.24,0
40.00,90.67,0
104.00,90.95,0
85.00,90.90,0
76.00,90.75,0
82.00,90.28,0
78.00,89.57,0
117.00,89.00,0
41.00,88.54,0
60.00,87.41,0
45.00,85.34,0
38.00,82.50,0
46.00,79.01,0
43.00,75.16,0
69.00,71.41,0
77.00,68.34,0
61.00,66.09,0
78.00,64.48,0
87.00,63.65,0
88.00,63.71,0
74.00,64.44,0
86.00,65.53,0
122.00,67.24,0
127.00,70.08,0
77.00,73.68,0
136.00,77.42,0
81.00,81.26,0
106.00,84.83,0
120.00,88.15,0
155.00,91.90,0
98.00,96.07,0
86.00,99.68,0
86.00,102.08,0
75.00,103.27,0
94.00,103.49,0
106.00,103.29,0
52.00,102.67,0
66.00,101.10,0
69.00,98.65,0
36.00,95.50,0
43.00,91.48,0
79.00,87.06,0
39.00,82.81,0
54.00,78.58,0
92.00,74.75,0
69.00,71.91,0
84.00,69.97,0
80.00,68.80,0
97.00,68.45,0
76.00,68.82,0
152.00,70.14,0
81.00,72.64,0
91.00,75.49,0
78.00,77.98,0
84.00,80.02,0
92.00,81.73,0
127.00,83.59,0
105.00,85.96,0
117.00,88.67,0
91.00,91.36,0
110.00,93.76,0
70.00,95.64,0
141.00,97.13,0
78.00,98.61,0
90.00,99.68,0
72.00,99.92,0
74.00,99.34,0
66.00,97.99,0
125.00,96.46,0
46.00,95.10,0
47.00,93.10,0
126.00,90.70,0
56.00,88.81,0
36.00,86.70,0
68.00,83.85,0
37.00,80.64,0
60.00,77.20,0
102.00,74.18,0
38.00,71.93,0
77.00,69.95,0
89.00,68.45,0
90.00,67.91,0
72.00,68.07,0
102.00,68.72,0
90.00,69.97,0
96.00,71.72,0
94.00,73.79,0
97.00,76.08,0
111.00,78.60,0
116.00,81.51,0
68.00,84.42,0
80.00,86.59,0
60.00,87.76,0
88.00,88.13,0
66.00,87.98,0
83.00,87.47,0
54.00,86.56,0
62.00,85.08,0
52.00,83.05,0
57.00,80.60,0
56.00,77.92,0
44.00,75.06,0
41.00,71.94,0
36.00,68.53,0
50.00,65.02,0
37.00,61.64,0
49.00,58.46,0
70.00,55.80,0
101.00,54.35,0
56.00,54.14,0
98.00,54.77,0
93.00,56.29,0
90.00,58.67,0
103.00,61.64,0
114.00,65.25,0
124.00,69.60,0
125.00,74.64,0
116.00,80.04,0
96.00,85.25,0
102.00,89.78,0
112.00,93.65,0
91.00,96.95,0
96.00,99.47,0
110.00,101.35,0
112.00,102.96,0
71.00,104.13,0
106.00,104.55,0
62.00,104.26,0
86.00,103.21,0
49.00,101.33,0
70.00,98.65,0
44.00,95.28,0
36.00,91.18,0
43.00,86.36,0
55.00,81.31,0
38.00,76.36,0
53.00,71.59,0
42.00,67.14,0
97.00,63.47,0
64.00,61.07,0
73.00,59.68,0
88.00,59.11,0
106.00,59.66,0
111.00,61.50,0
105.00,64.45,0
91.00,67.95,0
76.00,71.37,0
91.00,74.36,0
114.00,77.25,0
103.00,80.38,0
73.00,83.35,0
70.00,85.49,0
92.00,86.81,0
77.00,87.68,0
51.00,87.89,0
107.00,87.51,0
81.00,87.19,0
50.00,86.70,0
73.00,85.56,0
56.00,83.95,0
42.00,81.83,0
111.00,79.59,0
57.00,77.90,0
51.00,76.33,0
47.00,74.32,0
60.00,72.02,0
49.00,69.68,0
86.00,67.61,0
42.00,65.98,0
64.00,64.50,0
129.00,63.71,0
84.00,64.35,0
102.00,66.02,0
78.00,68.13,0
94.00,70.40,0
95.00,72.77,0
128.00,75.58,0
80.00,78.78,0
121.00,81.99,0
107.00,85.27,0
111.00,88.63,0
79.00,91.63,0
93.00,93.87,0
101.00,95.49,0
141.00,97.17,0
67.00,98.96,0
66.00,99.86,0
155.00,100.18,0
71.00,100.81,0
79.00,101.06,0
57.00,100.27,0
52.00,98.35,0
39.00,95.31,0
46.00,91.29,0
47.00,86.70,0
41.00,81.83,0
53.00,76.92,0
81.00,72.54,0
65.00,69.12,0
83.00,66.67,0
61.00,65.02,0
61.00,63.81,0
88.00,63.02,0
104.00,63.16,0
106.00,64.49,0
104.00,66.86,0
88.00,69.78,0
121.00,73.00,0
94.00,76.53,0
112.00,80.17,0
73.00,83.51,0
104.00,86.28,0
98.00,88.67,0
91.00,90.78,0
79.00,92.36,0
88.00,93.29,0
93.00,93.78,0
56.00,93.79,0
72.00,92.98,0
37.00,91.25,0
54.00,88.56,0
36.00,85.09,0
38.00,81.01,0
38.00,76.45,0
123.00,72.42,0
62.00,69.82,0
86.00,68.30,0
82.00,67.49,0
173.00,68.14,0
59.00,70.43,0
103.00,73.09,0
81.00,75.56,0
88.00,77.86,0
110.00,80.06,0
170.00,83.03,0
97.00,87.07,0
127.00,91.32,0
77.00,95.07,0
139.00,98.25,0
95.00,101.13,0
146.00,103.91,0
126.00,106.82,0
117.00,109.76,0
79.00,112.00,0
84.00,112.96,0
75.00,112.62,0
123.00,111.59,0
55.00,110.22,0
68.00,108.02,0
80.00,105.03,0
52.00,101.58,0
38.00,97.45,0
72.00,92.74,0
50.00,88.02,0
67.00,83.49,0
85.00,79.51,0
36.00,76.12,0
36.00,72.61,0
70.00,69.02,0
57.00,65.94,0
75.00,63.55,0
94.00,62.13,0
138.00,62.30,0
84.00,64.12,0
76.00,66.56,0
106.00,69.03,0
87.00,71.72,0
147.00,74.92,0
125.00,79.08,0
105.00,83.77,0
77.00,87.97,0
94.00,91.17,0
104.00,93.64,0
135.00,96.03,0
95.00,98.54,0
154.00,101.16,0
77.00,103.78,0
83.00,105.56,0
60.00,105.92,0
82.00,105.06,0
70.00,103.36,0
47.00,100.88,0
97.00,97.81,0
56.00,94.69,0
60.00,91.42,0
47.00,87.75,0
61.00,83.83,0
71.00,80.06,0
93.00,77.00,0
60.00,74.74,0
92.00,73.08,0
106.00,72.29,0
122.00,72.82,0
86.00,74.42,0
99.00,76.43,0
94.00,78.55,0
82.00,80.61,0
84.00,82.34,0
111.00,83.92,0
123.00,85.89,0
182.00,89.00,0
146.00,93.67,0
80.00,98.70,0
91.00,102.54,0
74.00,104.84,0
95.00,105.88,0
102.00,106.19,0
109.00,106.28,0
49.00,105.89,0
43.00,104.14,0
39.00,100.79,0
89.00,96.66,0
46.00,92.49,0
52.00,88.19,0
67.00,83.79,0
41.00,79.56,0
53.00,75.38,0
66.00,71.47,0
91.00,68.42,0
74.00,66.51,0
43.00,65.19,0
82.00,64.04,0
79.00,63.41,0
87.00,63.54,0
107.00,64.51,0
176.00,67.08,0
127.00,71.64,0
114.00,77.25,0
79.00,82.54,0
134.00,87.19,0
84.00,91.40,0
146.00,95.28,0
48.00,98.59,0
95.00,100.62,0
112.00,101.73,0
78.00,102.49,0
50.00,102.30,0
132.00,101.34,0
63.00,100.37,0
59.00,98.94,0
48.00,96.47,0
53.00,93.12,0
44.00,89.12,0
65.00,84.84,0
40.00,80.54,0
74.00,76.42,0
37.00,72.62,0
59.00,69.04,0
127.00,66.37,0
43.00,65.10,0
116.00,64.70,0
94.00,65.31,0
93.00,66.90,0
104.00,69.08,0
91.00,71.68,0
103.00,74.52,0
77.00,77.30,0
127.00,80.03,0
116.00,83.15,0
117.00,86.71,0
127.00,90.49,0
96.00,94.23,0
101.00,97.43,0
76.00,99.73,0
104.00,101.13,0
97.00,102.00,0
136.00,102.88,0
57.00,103.67,0
45.00,103.29,0
74.00,101.42,0
41.00,98.58,0
59.00,94.95,0
61.00,90.87,0
39.00,86.57,0
61.00,82.10,0
76.00,77.95,0
49.00,74.38,0
87.00,71.37,0
80.00,69.23,0
54.00,67.80,0
112.00,66.94,0
93.00,67.15,0
154.00,68.82,0
125.00,72.16,0
101.00,76.48,0
147.00,81.16,0
121.00,86.29,0
72.00,91.15,0
128.00,95.08,0
113.00,98.56,0
94.00,101.66,0
135.00,104.25,0
102.00,106.63,0
117.00,108.68,0
80.00,110.08,0
48.00,110.20,0
68.00,108.68,0
102.00,106.29,0
38.00,103.53,0
72.00,100.07,0
75.00,96.25,0
60.00,92.50,0
52.00,88.64,0
103.00,84.98,0
39.00,81.84,0
65.00,78.78,0
90.00,76.00,0
49.00,73.80,0
56.00,71.70,0
92.00,69.83,0
118.00,69.07,0
93.00,69.69,0
127.00,71.41,0
74.00,73.84,0
68.00,76.08,0
89.00,77.73,0
135.00,79.57,0
95.00,82.10,0
170.00,85.40,0
116.00,89.64,0
102.00,94.06,0
83.00,97.65,0
105.00,100.23,0
100.00,102.13,0
174.00,104.15,0
66.00,106.49,0
75.00,107.90,0
73.00,107.78,0
106.00,106.83,0
67.00,105.50,0
127.00,104.02,0
44.00,102.48,0
36.00,99.98,0
66.00,96.29,0
45.00,92.05,0
56.00,87.53,0
59.00,82.99,0
38.00,78.55,0
54.00,74.14,0
69.00,70.12,0
83.00,67.01,0
49.00,64.79,0
93.00,63.23,0
100.00,62.71,0
101.00,63.51,0
118.00,65.49,0
86.00,68.33,0
91.00,71.38,0
85.00,74.25,0
115.00,77.09,0
100.00,80.13,0
72.00,82.99,0
192.00,86.03,0
162.00,90.60,0
168.00,96.74,0
275.00,104.59,0
246.00,115.03,0
158.00,126.78,0
264.00,138.35,0
106.00,149.11,0
201.00,157.95,0
106.00,164.53,0
78.00,168.11,0
236.00,169.41,0
148.00,170.56,0
114.00,171.14,0
196.00,170.65,0
137.00,169.95,0
118.00,168.66,0
121.00,166.17,0
93.00,162.54,0
82.00,157.62,0
118.00,151.78,0
141.00,146.11,0
102.00,141.12,0
110.00,136.43,0
124.00,132.03,0
172.00,128.71,0
163.00,127.13,0
184.00,127.37,0
207.00,129.46,0
140.00,132.85,0
222.00,136.89,0
148.00,141.48,0
245.00,146.61,0
166.00,152.29,0
229.00,158.25,0
182.00,164.20,0
206.00,169.90,0
104.00,174.38,0
193.00,177.04,0
191.00,178.83,0
80.00,179.69,0
152.00,178.57,0
192.00,176.56,0
119.00,174.61,0
208.00,172.63,0
138.00,170.98,0
164.00,169.43,0
131.00,167.58,0
113.00,165.10,0
100.00,161.52,0
97.00,156.85,0
99.00,151.37,0
108.00,145.52,0
178.00,140.34,0
166.00,136.97,0
106.00,134.98,0
144.00,133.32,0
156.00,132.19,0
296.00,133.18,0
235.00,137.64,0
250.00,144.87,0
127.00,152.71,0
207.00,159.49,0
114.00,164.78,0
208.00,168.67,0
290.00,172.83,0
290.00,179.16,0
137.00,186.37,0
237.00,192.32,0
116.00,196.49,0
133.00,198.15,0
127.00,197.08,0
95.00,193.76,0
229.00,189.34,0
270.00,186.54,0
143.00,185.77,0
281.00,185.96,0
161.00,187.11,0
123.00,187.79,0
156.00,186.75,0
91.00,184.14,0
86.00,179.57,0
113.00,173.27,0
98.00,166.16,0
128.00,158.88,0
135.00,152.12,0
118.00,146.23,0
161.00,141.31,0
123.00,137.56,0
154.00,134.79,0
280.00,134.10,0
127.00,136.08,0
165.00,138.88,0
135.00,141.30,0
178.00,143.54,0
113.00,145.49,0
190.00,147.07,0
121.00,148.48,0
194.00,149.82,0
155.00,151.37,0
190.00,153.28,0
123.00,155.10,0
203.00,156.64,0
208.00,158.73,0
128.00,161.24,0
120.00,162.65,0
187.00,162.93,0
103.00,162.70,0
201.00,162.05,0
109.00,161.27,0
108.00,159.70,0
110.00,156.83,0
102.00,153.02,0
111.00,148.58,0
109.00,143.86,0
135.00,139.36,0
166.00,135.84,0
156.00,133.82,0
134.00,132.93,0
120.00,132.35,0
211.00,132.36,0
196.00,134.11,0
120.00,136.97,0
230.00,140.12,0
155.00,143.95,0
205.00,148.26,0
158.00,152.60,0
137.00,156.29,0
149.00,158.73,0
206.00,160.63,0
128.00,162.46,0
163.00,163.64,0
114.00,163.83,0
117.00,162.75,0
66.00,159.98,0
104.00,155.49,0
273.00,151.47,0
124.00,149.79,0
98.00,148.68,0
140.00,146.72,0
122.00,144.52,0
103.00,142.09,0
156.00,139.55,0
64.00,136.97,0
78.00,133.47,0
105.00,129.10,0
100.00,124.71,0
104.00,120.63,0
127.00,117.14,0
184.00,115.10,0
132.00,114.93,0
168.00,116.10,0
176.00,118.47,0
102.00,121.50,0
215.00,124.70,0
192.00,128.98,0
108.00,133.82,0
141.00,137.60,0
215.00,140.93,0
122.00,144.52,0
209.00,148.00,0
149.00,151.44,0
185.00,154.77,0
100.00,157.29,0
97.00,157.98,0
182.00,157.22,0
154.00,156.53,0
126.00,155.92,0
138.00,154.80,0
182.00,153.66,0
105.00,152.73,0
134.00,151.32,0
94.00,149.11,0
108.00,146.06,0
119.00,142.46,0
99.00,138.69,0
106.00,134.74,0
94.00,130.63,0
124.00,126.63,0
109.00,123.14,0
198.00,120.87,0
127.00,120.37,0
199.00,121.40,0
154.00,123.78,0
123.00,126.70,0
134.00,129.14,0
242.00,131.95,0
144.00,136.03,0
108.00,139.90,0
112.00,142.10,0
190.00,143.39,0
145.00,144.89,0
169.00,146.61,0
268.00,149.28,0
183.00,153.69,0
84.00,157.90,0
98.00,159.59,0
190.00,159.49,0
194.00,159.69,0
83.00,160.03,0
165.00,159.33,0
204.00,158.63,0
137.00,158.72,0
162.00,158.83,0
130.00,158.54,0
117.00,157.54,0
96.00,155.35,0
116.00,152.05,0
161.00,148.55,0
174.00,146.05,0
136.00,144.65,0
127.00,143.54,0
152.00,142.44,0
159.00,141.77,0
174.00,141.90,0
208.00,143.21,0
125.00,145.40,0
211.00,147.78,0
264.00,151.41,0
324.00,157.99,0
162.00,166.65,0
112.00,174.00,0
139.00,178.18,0
182.00,180.19,0
139.00,181.07,0
92.00,180.32,0
90.00,177.19,0
249.00,173.25,0
139.00,170.54,0
220.00,169.01,0
202.00,168.72,0
169.00,169.48,0
102.00,169.76,0
89.00,168.19,0
112.00,164.68,0
110.00,160.07,0
125.00,155.06,0
74.00,149.70,0
92.00,143.71,0
124.00,137.57,0
127.00,132.21,0
208.00,128.61,0
119.00,127.09,0
164.00,126.76,0
209.00,127.74,0
145.00,130.29,0
202.00,133.70,0
119.00,137.40,0
176.00,140.75,0
147.00,143.76,0
244.00,147.18,0
205.00,151.85,0
181.00,157.30,0
104.00,161.78,0
189.00,164.62,0
122.00,166.33,0
218.00,167.51,0
144.00,168.68,0
88.00,168.90,0
125.00,167.15,0
208.00,164.82,0
140.00,163.22,0
83.00,161.33,0
230.00,158.99,0
64.00,156.97,0
47.00,153.60,0
114.00,148.23,0
90.00,142.24,0
122.00,136.43,0
88.00,131.00,0
99.00,125.82,0
112.00,121.01,0
122.00,117.03,0
127.00,114.13,0
104.00,112.13,0
125.00,110.70,0
207.00,110.59,0
117.00,112.28,0
185.00,115.03,0
148.00,118.55,0
207.00,122.99,0
112.00,127.88,0
157.00,132.22,0
223.00,136.52,0
179.00,141.73,0
163.00,147.16,0
119.00,151.57,0
184.00,154.76,0
127.00,157.13,0
101.00,158.20,0
108.00,157.40,0
142.00,155.39,0
124.00,152.99,0
171.00,150.74,0
86.00,148.61,0
47.00,145.29,0
69.00,140.03,0
83.00,133.62,0
58.00,126.76,0
75.00,119.62,0
97.00,112.77,0
55.00,106.51,0
119.00,100.93,0
117.00,96.74,0
96.00,94.08,0
127.00,92.55,0
106.00,92.09,0
154.00,92.77,0
145.00,94.83,0
122.00,97.94,0
127.00,101.32,0
175.00,105.10,0
182.00,109.93,0
138.00,115.58,0
180.00,121.32,0
164.00,127.14,0
116.00,132.52,0
117.00,136.46,0
193.00,139.43,0
145.00,142.43,0
74.00,144.61,0
148.00,145.13,0
98.00,144.61,0
174.00,143.71,0
130.00,143.04,0
86.00,142.09,0
100.00,140.01,0
54.00,136.61,0
75.00,131.85,0
57.00,126.05,0
62.00,119.56,0
77.00,112.81,0
76.00,106.35,0
76.00,100.46,0
136.00,95.66,0
106.00,92.60,0
97.00,90.90,0
90.00,89.82,0
102.00,89.16,0
158.00,89.45,0
165.00,91.52,0
198.00,95.72,0
112.00,101.30,0
164.00,107.03,0
135.00,112.60,0
144.00,117.89,0
128.00,122.56,0
159.00,126.68,0
143.00,130.49,0
159.00,134.06,0
162.00,137.50,0
90.00,140.30,0
58.00,141.10,0
152.00,140.02,0
63.00,138.07,0
126.00,135.37,0
100.00,132.28,0
68.00,128.82,0
90.00,124.63,0
80.00,120.03,0
69.00,115.21,0
82.00,110.21,0
74.00,105.30,0
68.00,100.56,0
69.00,95.94,0
88.00,91.69,0
72.00,88.04,0
103.00,85.13,0
87.00,83.13,0
120.00,82.13,0
145.00,82.56,0
199.00,85.16,0
153.00,90.12,0
134.00,96.18,0
116.00,102.04,0
95.00,106.93,0
107.00,110.52,0
205.00,113.84,0
93.00,117.64,0
114.00,120.81,0
146.00,123.08,0
104.00,124.96,0
155.00,126.46,0
151.00,128.09,0
125.00,129.90,0
97.00,131.10,0
156.00,131.61,0
103.00,131.87,0
185.00,132.24,0
108.00,132.94,0
59.00,132.88,0
62.00,130.83,0
55.00,126.94,0
87.00,121.93,0
70.00,116.56,0
87.00,111.22,0
99.00,106.32,0
98.00,102.25,0
92.00,98.98,0
66.00,96.09,0
94.00,93.35,0
159.00,91.60,0
164.00,91.99,0
194.00,94.88,0
141.00,99.69,0
125.00,105.01,0
103.00,109.67,0
175.00,113.76,0
156.00,118.15,0
136.00,122.72,0
184.00,127.20,0
153.00,131.82,0
159.00,136.34,0
82.00,139.84,0
87.00,141.26,0
89.00,140.49,0
142.00,138.62,0
90.00,136.45,0
75.00,133.55,0
155.00,130.20,0
117.00,127.50,0
66.00,125.00,0
69.00,121.58,0
72.00,117.26,0
78.00,112.50,0
123.00,108.06,0
87.00,104.51,0
95.00,101.60,0
89.00,99.05,0
83.00,96.79,0
100.00,94.80,0
161.00,93.82,0
195.00,95.07,0
116.00,98.41,0
172.00,102.62,0
116.00,107.20,0
130.00,111.55,0
155.00,115.55,0
141.00,119.58,0
108.00,123.19,0
232.00,126.73,0
114.00,130.90,0
138.00,134.69,0
231.00,138.25,0
82.00,142.01,0
121.00,144.45,0
114.00,145.14,0
162.00,145.09,0
98.00,144.69,0
198.00,144.20,0
85.00,143.85,0
60.00,142.36,0
133.00,139.32,0
91.00,135.85,0
79.00,131.97,0
82.00,127.41,0
99.00,122.56,0
60.00,117.63,0
146.00,113.01,0
128.00,109.73,0
96.00,107.72,0
103.00,106.13,0
127.00,104.95,0
187.00,105.09,0
252.00,107.95,0
118.00,113.23,0
135.00,118.64,0
112.00,122.97,0
212.00,126.91,0
230.00,132.03,0
110.00,138.02,0
102.00,142.56,0
171.00,145.31,0
122.00,147.28,0
224.00,149.19,0
117.00,151.38,0
64.00,152.36,0
113.00,151.04,0
66.00,147.99,0
114.00,143.74,0
73.00,138.79,0
269.00,134.82,0
145.00,133.61,0
131.00,133.98,0
70.00,133.78,0
81.00,132.12,0
64.00,128.91,0
79.00,124.60,0
83.00,119.73,0
76.00,114.72,0
115.00,110.02,0
168.00,106.72,0
94.00,105.18,0
104.00,104.34,0
101.00,103.59,0
174.00,103.55,0
127.00,104.86,0
106.00,106.81,0
147.00,108.77,0
132.00,111.06,0
90.00,113.27,0
109.00,114.69,0
125.00,115.56,0
112.00,116.29,0
135.00,117.00,0
104.00,117.69,0
173.00,118.58,0
71.00,119.65,0
157.00,120.41,0
54.00,120.63,0
112.00,119.92,0
138.00,118.86,0
94.00,118.11,0
57.00,116.80,0
97.00,114.46,0
65.00,111.51,0
82.00,108.13,0
95.00,104.67,0
81.00,101.50,0
83.00,98.55,0
76.00,95.71,0
108.00,93.23,0
94.00,91.45,0
89.00,90.26,0
164.00,89.97,0
107.00,91.09,0
96.00,92.87,0
128.00,94.67,0
95.00,96.60,0
207.00,99.22,0
159.00,103.44,0
208.00,109.29,0
74.00,115.48,0
155.00,120.59,0
101.00,124.50,0
235.00,128.24,0
125.00,132.59,0
126.00,136.57,0
52.00,138.63,0
165.00,138.88,0
55.00,138.10,0
94.00,135.98,0
92.00,132.65,0
69.00,128.60,0
57.00,123.63,0
99.00,118.10,0
54.00,112.55,0
58.00,106.80,0
82.00,100.99,0
62.00,95.58,0
84.00,90.70,0
72.00,86.50,0
89.00,83.06,0
99.00,80.59,0
95.00,79.20,0
94.00,78.70,0
105.00,78.92,0
102.00,79.84,0
83.00,81.13,0
100.00,82.47,0
83.00,83.78,0
100.00,85.04,0
87.00,86.24,0
87.00,87.29,0
71.00,87.94,0
88.00,88.15,0
69.00,88.01,0
118.00,87.84,0
93.00,88.09,0
155.00,89.17,0
79.00,91.02,0
103.00,92.85,0
45.00,93.91,0
90.00,93.94,0
45.00,93.09,0
49.00,91.26,0
56.00,88.50,0
44.00,85.17,0
54.00,81.46,0
82.00,77.89,0
99.00,75.22,0
37.00,73.32,0
106.00,71.76,0
103.00,71.11,0
99.00,71.67,0
111.00,73.13,0
97.00,75.27,0
113.00,77.87,0
108.00,80.84,0
116.00,84.09,0
84.00,87.28,0
99.00,89.99,0
84.00,92.09,0
124.00,93.88,0
117.00,95.85,0
149.00,98.36,0
72.00,101.04,0
133.00,103.26,0
80.00,104.98,0
138.00,106.39,0
113.00,107.81,0
66.00,108.88,0
75.00,108.74,0
59.00,107.32,0
91.00,105.05,0
90.00,102.58,0
72.00,100.15,0
52.00,97.36,0
41.00,93.81,0
93.00,89.89,0
61.00,86.31,0
71.00,83.10,0
77.00,80.23,0
61.00,77.76,0
106.00,75.83,0
99.00,74.93,0
89.00,75.02,0
82.00,75.58,0
115.00,76.54,0
114.00,78.25,0
95.00,80.60,0
100.00,83.05,0
98.00,85.42,0
109.00,87.75,0
88.00,89.95,0
109.00,91.91,0
80.00,93.55,0
110.00,94.84,0
78.00,95.80,0
76.00,96.20,0
122.00,96.22,0
115.00,96.66,0
84.00,97.39,0
41.00,97.41,0
45.00,95.94,0
41.00,93.06,0
37.00,89.16,0
149.00,85.43,0
127.00,83.58,0
134.00,83.85,0
81.00,85.21,0
80.00,86.53,0
62.00,87.18,0
82.00,87.16,0
71.00,86.72,0
88.00,86.09,0
156.00,86.09,0
132.00,87.64,0
121.00,90.41,0
167.00,93.98,0
114.00,98.29,0
163.00,102.94,0
260.00,108.84,0
170.00,116.78,0
150.00,125.16,0
218.00,133.07,0
140.00,140.69,0
229.00,147.84,0
237.00,155.29,0
175.00,163.07,0
204.00,170.13,0
179.00,176.17,0
161.00,180.90,0
125.00,183.68,0
164.00,184.50,0
209.00,184.48,0
115.00,184.12,0
356.00,184.34,0
139.00,186.39,0
162.00,188.37,0
127.00,188.54,0
99.00,186.69,0
116.00,182.73,0
152.00,177.68,0
189.00,173.00,0
152.00,169.36,0
68.00,165.63,0
103.00,160.56,0
178.00,155.14,0
127.00,150.73,0
120.00,146.97,0
132.00,143.37,0
183.00,140.59,0
272.00,140.20,0
187.00,142.82,0
271.00,147.68,0
302.00,155.05,0
199.00,164.38,0
159.00,173.13,0
223.00,180.17,0
220.00,186.39,0
129.00,191.49,0
256.00,195.11,0
156.00,198.00,0
203.00,200.02,0
91.00,200.35,0
220.00,198.98,0
132.00,196.83,0
145.00,193.90,0
93.00,189.53,0
191.00,184.26,0
144.00,179.29,0
77.00,174.18,0
120.00,168.00,0
82.00,161.03,0
118.00,153.75,0
156.00,147.05,0
119.00,141.63,0
109.00,136.99,0
177.00,133.18,0
112.00,130.64,0
144.00,128.88,0
180.00,128.08,0
266.00,129.59,0
173.00,133.75,0
314.00,140.17,0
154.00,148.30,0
192.00,156.31,0
202.00,163.35,0
172.00,169.64,0
214.00,175.10,0
219.00,180.22,0
215.00,185.33,0
188.00,190.00,0
183.00,193.67,0
220.00,196.45,0
192.00,198.80,0
167.00,200.39,0
298.00,201.78,0
219.00,204.29,0
188.00,207.08,0
109.00,208.17,0
216.00,207.27,0
98.00,205.01,0
113.00,200.86,0
132.00,194.84,0
120.00,187.94,0
103.00,180.41,0
147.00,172.64,0
94.00,165.08,0
127.00,157.70,0
113.00,150.69,0
159.00,144.61,0
182.00,140.27,0
208.00,138.39,0
218.00,139.13,0
135.00,141.52,0
292.00,145.10,0
178.00,150.44,0
158.00,156.18,0
221.00,161.30,0
142.00,165.98,0
219.00,170.04,0
126.00,173.34,0
257.00,176.13,0
137.00,178.85,0
247.00,181.44,0
138.00,183.76,0
261.00,185.93,0
114.00,187.83,0
248.00,189.15,0
157.00,190.25,0
235.00,191.38,0
116.00,192.05,0
202.00,191.75,0
127.00,190.54,0
88.00,187.80,0
72.00,182.62,0
90.00,175.32,0
118.00,167.01,0
100.00,158.69,0
91.00,150.51,0
115.00,142.60,0
130.00,135.61,0
109.00,129.80,0
157.00,125.28,0
215.00,122.96,0
204.00,123.67,0
147.00,126.46,0
283.00,130.85,0
212.00,137.53,0
174.00,145.33,0
126.00,152.13,0
200.00,157.44,0
204.00,162.31,0
127.00,166.72,0
268.00,170.56,0
119.00,174.30,0
152.00,176.82,0
105.00,177.26,0
183.00,176.25,0
250.00,175.61,0
113.00,175.90,0
246.00,176.27,0
157.00,177.03,0
109.00,177.29,0
99.00,175.54,0
84.00,171.65,0
98.00,166.04,0
100.00,159.44,0
149.00,152.85,0
127.00,147.14,0
146.00,142.46,0
113.00,138.60,0
124.00,135.18,0
111.00,132.01,0
110.00,129.01,0
143.00,126.38,0
202.00,125.15,0
221.00,126.44,0
160.00,129.86,0
127.00,133.69,0
229.00,137.49,0
141.00,141.83,0
165.00,146.03,0
134.00,149.39,0
116.00,151.54,0
139.00,152.34,0
150.00,152.41,0
140.00,152.20,0
235.00,152.50,0
97.00,153.54,0
240.00,154.77,0
142.00,156.55,0
97.00,157.86,0
153.00,157.68,0
150.00,156.89,0
116.00,155.80,0
108.00,153.88,0
104.00,150.94,0
91.00,147.07,0
104.00,142.50,0
96.00,137.57,0
101.00,132.54,0
112.00,127.73,0
135.00,123.66,0
161.00,120.97,0
183.00,120.23,0
135.00,121.16,0
174.00,123.04,0
222.00,126.24,0
151.00,130.86,0
284.00,136.71,0
200.00,144.28,0
124.00,151.94,0
193.00,158.04,0
176.00,163.12,0
436.00,169.71,0
172.00,179.19,0
276.00,189.21,0
118.00,197.53,0
234.00,203.48,0
204.00,207.81,0
153.00,210.79,0
239.00,212.28,0
111.00,212.53,0
107.00,210.35,0
139.00,205.60,0
117.00,199.34,0
115.00,192.02,0
154.00,184.25,0
107.00,176.63,0
148.00,169.26,0
129.00,162.46,0
176.00,156.73,0
198.00,152.80,0
321.00,152.20,0
236.00,155.61,0
247.00,161.63,0
297.00,169.39,0
245.00,178.67,0
197.00,187.95,0
191.00,195.65,0
242.00,201.81,0
303.00,207.90,0
163.00,214.01,0
220.00,218.60,0
181.00,221.34,0
185.00,222.44,0
299.00,222.95,0
204.00,224.13,0
178.00,224.93,0
226.00,224.60,0
237.00,224.09,0
277.00,224.37,0
160.00,225.02,0
110.00,223.88,0
162.00,220.11,0
155.00,214.84,0
188.00,209.17,0
144.00,203.53,0
165.00,197.81,0
141.00,192.01,0
156.00,186.22,0
142.00,180.59,0
198.00,175.62,0
212.00,172.24,0
224.00,170.97,0
246.00,171.83,0
252.00,174.82,0
252.00,179.58,0
202.00,185.18,0
261.00,190.88,0
210.00,196.63,0
236.00,202.07,0
172.00,206.59,0
200.00,209.64,0
303.00,212.26,0
220.00,215.72,0
288.00,219.73,0
144.00,223.28,0
216.00,225.15,0
269.00,226.12,0
220.00,227.43,0
292.00,229.18,0
173.00,231.01,0
138.00,231.18,0
118.00,228.31,0
113.00,222.63,0
98.00,214.63,0
127.00,205.06,0
151.00,195.16,0
189.00,186.29,0
125.00,178.80,0
218.00,172.63,0
179.00,168.35,0
228.00,166.17,0
338.00,167.07,0
285.00,172.07,0
319.00,180.31,0
308.00,190.77,0
217.00,201.91,0
273.00,212.10,0
282.00,221.47,0
201.00,229.84,0
232.00,236.16,0
178.00,240.13,0
204.00,241.76,0
264.00,242.03,0
336.00,243.07,0
277.00,245.83,0
252.00,249.24,0
235.00,251.99,0
248.00,253.77,0
188.00,254.32,0
236.00,253.46,0
262.00,252.03,0
223.00,250.75,0
317.00,249.95,0
192.00,249.75,0
308.00,249.68,0
307.00,250.59,0
189.00,252.19,0
259.00,252.86,0
323.00,253.52,0
346.00,255.97,0
213.00,259.53,0
245.00,262.06,0
273.00,263.39,0
216.00,264.02,0
232.00,263.51,0
229.00,261.93,0
270.00,260.01,0
251.00,258.38,0
324.00,257.65,0
287.00,258.38,0
229.00,259.71,0
127.00,259.34,0
214.00,256.23,0
90.00,250.73,0
209.00,243.22,0
166.00,235.04,0
276.00,227.80,0
166.00,222.08,0
260.00,217.56,0
200.00,214.25,0
297.00,212.57,0
250.00,212.91,0
302.00,215.19,0
258.00,219.01,0
275.00,223.70,0
378.00,229.68,0
353.00,238.07,0
329.00,248.26,0
406.00,259.53,0
291.00,271.35,0
282.00,281.85,0
316.00,290.20,0
417.00,297.95,0
268.00,305.71,0
259.00,311.53,0
191.00,313.70,0
297.00,312.72,0
196.00,309.75,0
245.00,304.99,0
219.00,298.74,0
315.00,292.37,0
220.00,286.70,0
222.00,280.98,0
271.00,275.08,0
264.00,269.99,0
275.00,266.08,0
283.00,263.37,0
200.00,261.22,0
285.00,258.94,0
300.00,257.50,0
264.00,257.38,0
206.00,257.33,0
158.00,255.69,0
199.00,251.93,0
149.00,246.60,0
176.00,239.96,0
126.00,232.15,0
169.00,223.48,0
145.00,214.54,0
185.00,205.98,0
218.00,198.73,0
187.00,193.33,0
190.00,189.29,0
329.00,187.39,0
346.00,189.60,0
330.00,196.18,0
228.00,204.91,0
238.00,213.22,0
278.00,220.61,0
292.00,227.91,0
247.00,235.09,0
253.00,241.36,0
187.00,245.91,0
255.00,248.54,0
260.00,250.22,0
212.00,251.38,0
310.00,252.16,0
386.00,254.50,0
376.00,259.89,0
265.00,266.97,0
324.00,273.70,0
308.00,279.85,0
143.00,284.23,0
125.00,284.13,0
174.00,279.30,0
131.00,271.41,0
144.00,261.25,0
130.00,249.43,0
151.00,236.78,0
129.00,223.98,0
229.00,212.13,0
174.00,202.39,0
175.00,194.52,0
199.00,188.09,0
380.00,184.85,0
237.00,186.20,0
192.00,189.72,0
246.00,193.28,0
392.00,198.53,0
283.00,206.81,0
371.00,217.24,0
262.00,228.62,0
205.00,238.81,0
296.00,246.65,0
325.00,253.74,0
301.00,261.03,0
321.00,268.26,0
232.00,274.60,0
363.00,279.82,0
249.00,284.52,0
293.00,288.22,0
284.00,290.75,0
216.00,291.97,0
246.00,291.21,0
192.00,288.43,0
197.00,283.64,0
141.00,276.61,0
190.00,267.67,0
152.00,257.59,0
146.00,246.70,0
186.00,235.47,0
235.00,225.38,0
179.00,217.16,0
289.00,211.04,0
193.00,207.25,0
296.00,205.53,0
261.00,206.07,0
339.00,209.24,0
212.00,214.24,0
283.00,219.60,0
209.00,224.57,0
344.00,229.56,0
182.00,234.68,0
256.00,238.78,0
323.00,242.41,0
178.00,246.08,0
351.00,249.25,0
296.00,253.14,0
237.00,257.49,0
317.00,261.26,0
236.00,264.64,0
377.00,268.10,0
195.00,271.65,0
220.00,273.54,0
151.00,272.39,0
177.00,268.31,0
172.00,261.93,0
121.00,253.72,0
186.00,244.03,0
188.00,234.22,0
190.00,225.24,0
145.00,216.86,0
238.00,209.25,0
168.00,203.08,0
246.00,198.45,0
378.00,196.93,0
281.00,199.89,0
365.00,206.28,0
319.00,215.33,0
302.00,225.87,0
325.00,236.72,0
388.00,248.21,0
214.00,259.60,0
283.00,268.76,0
320.00,275.92,0
177.00,281.33,0
465.00,285.56,0
166.00,289.85,0
429.00,293.66,0
153.00,296.57,0
309.00,297.61,0
179.00,296.42,0
224.00,293.05,0
484.00,289.99,0
138.00,289.06,0
178.00,286.54,0
162.00,280.55,0
176.00,272.35,0
146.00,262.57,0
121.00,251.31,0
106.00,238.55,0
161.00,225.05,0
156.00,212.18,0
180.00,200.78,0
179.00,191.22,0
369.00,185.13,0
208.00,183.66,0
304.00,185.46,0
245.00,189.45,0
316.00,195.39,0
266.00,202.89,0
142.00,210.06,0
269.00,215.34,0
193.00,219.44,0
193.00,222.31,0
178.00,223.41,0
285.00,223.76,0
254.00,224.90,0
264.00,227.08,0
132.00,228.78,0
399.00,230.17,0
324.00,234.02,0
307.00,240.42,0
233.00,247.02,0
133.00,251.34,0
171.00,251.87,0
156.00,249.18,0
125.00,243.93,0
114.00,236.15,0
132.00,226.45,0
125.00,215.76,0
161.00,204.98,0
157.00,195.00,0
127.00,185.95,0
172.00,177.75,0
125.00,170.56,0
306.00,165.47,0
336.00,164.97,0
322.00,169.95,0
245.00,178.25,0
245.00,187.40,0
202.00,195.89,0
227.00,203.11,0
384.00,210.47,0
260.00,219.46,0
238.00,228.48,0
225.00,235.74,0
189.00,240.70,0
154.00,242.78,0
200.00,242.08,0
250.00,240.20,0
145.00,237.81,0
161.00,233.93,0
196.00,228.74,0
251.00,223.88,0
140.00,219.70,0
129.00,214.72,0
146.00,208.34,0
125.00,201.12,0
130.00,193.31,0
106.00,185.06,0
110.00,176.40,0
105.00,167.56,0
108.00,158.83,0
136.00,150.72,0
157.00,144.02,0
114.00,138.82,0
187.00,135.00,0
133.00,132.77,0
132.00,131.52,0
166.00,130.88,0
106.00,130.78,0
198.00,131.13,0
179.00,132.69,0
204.00,135.78,0
132.00,139.57,0
310.00,144.26,0
188.00,150.81,0
152.00,157.75,0
115.00,162.82,0
203.00,166.13,0
223.00,169.31,0
116.00,172.45,0
371.00,175.96,0
186.00,181.43,0
269.00,187.95,0
152.00,193.93,0
138.00,197.95,0
128.00,199.02,0
108.00,197.42,0
116.00,193.48,0
94.00,187.68,0
72.00,180.15,0
103.00,171.31,0
147.00,162.44,0
116.00,154.57,0
148.00,147.83,0
149.00,142.47,0
136.00,138.49,0
141.00,135.53,0
194.00,133.85,0
167.00,133.91,0
163.00,135.24,0
135.00,136.98,0
207.00,139.05,0
140.00,141.73,0
241.00,145.09,0
196.00,149.59,0
134.00,154.40,0
252.00,158.87,0
272.00,164.55,0
126.00,171.05,0
231.00,176.57,0
142.00,180.96,0
281.00,184.89,0
152.00,188.84,0
180.00,191.92,0
145.00,193.35,0
91.00,192.70,0
126.00,189.58,0
158.00,185.10,0
69.00,179.79,0
87.00,172.99,0
131.00,165.19,0
107.00,157.57,0
150.00,150.66,0
156.00,145.08,0
166.00,141.23,0
148.00,138.89,0
196.00,137.95,0
156.00,138.43,0
117.00,139.37,0
121.00,139.70,0
171.00,139.72,0
108.00,139.83,0
189.00,140.05,0
126.00,140.64,0
199.00,141.74,0
150.00,143.45,0
109.00,145.03,0
240.00,146.47,0
160.00,148.90,0
206.00,152.16,0
121.00,155.34,0
192.00,157.91,0
141.00,159.98,0
167.00,161.56,0
173.00,162.78,0
219.00,164.37,0
121.00,166.20,0
122.00,166.91,0
106.00,165.84,0
123.00,163.32,0
141.00,160.07,0
106.00,156.54,0
118.00,152.57,0
153.00,148.61,0
116.00,145.15,0
95.00,141.69,0
122.00,137.92,0
139.00,134.44,0
182.00,132.17,0
164.00,131.57,0
229.00,132.88,0
133.00,135.73,0
180.00,138.98,0
94.00,141.71,0
141.00,143.30,0
296.00,145.32,0
172.00,149.53,0
140.00,154.23,0
143.00,157.61,0
276.00,160.78,0
129.00,164.68,0
228.00,168.50,0
214.00,172.44,0
154.00,176.42,0
114.00,178.88,0
180.00,179.48,0
199.00,179.56,0
167.00,179.85,0
157.00,179.82,0
107.00,178.71,0
118.00,176.01,0
153.00,172.25,0
82.00,167.89,0
78.00,162.27,0
92.00,155.37,0
103.00,148.01,0
105.00,140.86,0
138.00,134.49,0
128.00,129.41,0
103.00,125.38,0
204.00,122.62,0
128.00,121.76,0
190.00,122.44,0
141.00,124.27,0
215.00,127.22,0
131.00,131.07,0
142.00,134.77,0
145.00,137.75,0
237.00,141.00,0
90.00,144.66,0
180.00,147.60,0
151.00,149.92,0
134.00,151.81,0
193.00,153.29,0
219.00,155.47,0
176.00,158.65,0
330.00,163.26,0
227.00,170.14,0
268.00,178.44,0
179.00,186.63,0
114.00,192.79,0
112.00,195.42,0
91.00,194.49,0
90.00,190.55,0
92.00,184.27,0
114.00,176.62,0
70.00,168.21,0
133.00,159.45,0
114.00,151.25,0
120.00,143.99,0
101.00,137.48,0
190.00,132.21,0
214.00,129.57,0
226.00,130.24,0
182.00,133.46,0
232.00,138.27,0
162.00,144.03,0
203.00,149.92,0
194.00,155.74,0
230.00,161.79,0
169.00,167.85,0
154.00,172.87,0
225.00,176.78,0
129.00,179.96,0
166.00,181.79,0
127.00,182.03,0
89.00,180.40,0
196.00,177.34,0
146.00,174.34,0
172.00,171.76,0
156.00,169.45,0
123.00,167.11,0
134.00,164.25,0
119.00,160.85,0
92.00,156.79,0
67.00,151.56,0
96.00,145.25,0
92.00,138.56,0
86.00,131.91,0
144.00,125.86,0
112.00,121.13,0
88.00,117.29,0
164.00,114.24,0
181.00,113.07,0
315.00,115.39,0
214.00,121.84,0
190.00,130.42,0
160.00,138.86,0
206.00,146.60,0
203.00,154.05,0
225.00,161.53,0
256.00,169.38,0
234.00,177.79,0
160.00,185.61,0
199.00,191.65,0
215.00,196.29,0
198.00,200.16,0
225.00,203.39,0
286.00,206.85,0
228.00,211.11,0
262.00,215.66,0
281.00,220.52,0
169.00,225.14,0
171.00,227.72,0
111.00,227.30,0
151.00,223.95,0
151.00,218.65,0
121.00,212.14,0
140.00,204.59,0
165.00,196.78,0
240.00,190.20,0
256.00,186.37,0
248.00,185.55,0
236.00,186.98,0
186.00,189.37,0
216.00,191.74,0
145.00,193.51,0
163.00,193.97,0
220.00,193.62,0
234.00,193.87,0
164.00,194.69,0
229.00,195.42,0
168.00,196.04,0
194.00,196.30,0
235.00,196.55,0
230.00,197.62,0
119.00,198.63,0
170.00,198.11,0
127.00,196.01,0
250.00,193.51,0
158.00,191.70,0
267.00,190.87,0
120.00,190.64,0
138.00,189.50,0
158.00,186.95,0
104.00,183.43,0
87.00,178.44,0
98.00,171.87,0
88.00,164.27,0
87.00,156.04,0
98.00,147.61,0
111.00,139.58,0
108.00,132.41,0
163.00,126.62,0
135.00,122.75,0
245.00,121.35,0
162.00,122.80,0
178.00,126.01,0
151.00,129.81,0
241.00,134.36,0
225.00,140.45,0
229.00,148.04,0
276.00,156.84,0
179.00,166.26,0
221.00,174.98,0
166.00,182.34,0
286.00,188.83,0
269.00,195.86,0
157.00,202.83,0
165.00,207.60,0
168.00,209.78,0
315.00,211.24,0
198.00,213.59,0
147.00,215.41,0
278.00,216.04,0
138.00,216.33,0
116.00,214.95,0
119.00,210.84,0
104.00,204.52,0
76.00,196.28,0
101.00,186.49,0
111.00,176.12,0
106.00,165.94,0
117.00,156.37,0
163.00,148.08,0
151.00,141.79,0
137.00,137.30,0
229.00,134.75,0
241.00,135.24,0
220.00,138.88,0
154.00,143.94,0
193.00,148.99,0
200.00,154.01,0
227.00,159.52,0
170.00,165.24,0
277.00,171.09,0
172.00,177.29,0
243.00,183.28,0
198.00,188.84,0
140.00,193.27,0
127.00,195.23,0
223.00,195.37,0
158.00,195.06,0
270.00,195.06,0
283.00,196.74,0
184.00,199.94,0
222.00,202.98,0
70.00,204.35,0
122.00,202.63,0
86.00,197.94,0
89.00,191.01,0
102.00,182.42,0
89.00,173.03,0
108.00,163.38,0
145.00,154.35,0
139.00,146.83,0
128.00,140.81,0
117.00,135.81,0
222.00,132.35,0
161.00,131.31,0
274.00,132.94,0
190.00,137.24,0
183.00,142.87,0
217.00,148.82,0
196.00,155.13,0
260.00,161.99,0
222.00,169.59,0
258.00,177.72,0
232.00,186.05,0
191.00,193.77,0
173.00,199.73,0
159.00,203.43,0
202.00,205.23,0
127.00,205.51,0
228.00,204.60,0
169.00,203.35,0
257.00,202.49,0
179.00,202.26,0
125.00,201.51,0
109.00,198.73,0
88.00,193.61,0
74.00,186.29,0
148.00,177.75,0
124.00,169.45,0
100.00,161.65,0
109.00,153.95,0
118.00,146.62,0
151.00,140.29,0
152.00,135.58,0
230.00,133.16,0
232.00,133.92,0
166.00,137.16,0
227.00,141.62,0
202.00,147.11,0
196.00,153.27,0
168.00,159.17,0
201.00,164.46,0
214.00,169.52,0
212.00,174.71,0
246.00,180.19,0
251.00,186.28,0
210.00,192.67,0
125.00,197.73,0
158.00,200.16,0
267.00,201.23,0
228.00,202.98,0
151.00,204.83,0
227.00,205.72,0
158.00,205.90,0
122.00,204.73,0
103.00,201.26,0
87.00,195.36,0
103.00,187.57,0
99.00,178.69,0
125.00,169.57,0
127.00,160.96,0
126.00,153.27,0
107.00,146.38,0
169.00,140.51,0
99.00,135.90,0
174.00,132.37,0
230.00,130.91,0
208.00,132.46,0
132.00,135.68,0
238.00,139.52,0
170.00,144.24,0
257.00,149.97,0
184.00,156.54,0
272.00,163.77,0
167.00,171.27,0
248.00,178.37,0
232.00,185.26,0
136.00,191.39,0
184.00,195.40,0
145.00,197.35,0
231.00,198.14,0
165.00,198.56,0
261.00,199.12,0
214.00,200.41,0
121.00,201.45,0
112.00,200.29,0
100.00,196.45,0
127.00,190.67,0
113.00,183.83,0
54.00,175.91,0
102.00,166.77,0
111.00,157.33,0
132.00,148.73,0
182.00,141.88,0
183.00,137.58,0
178.00,135.78,0
232.00,136.29,0
212.00,139.21,0
207.00,143.98,0
204.00,149.69,0
301.00,156.64,0
196.00,165.03,0
214.00,173.45,0
169.00,180.67,0
270.00,186.98,0
225.00,193.31,0
238.00,199.65,0
193.00,205.26,0
167.00,209.28,0
142.00,210.91,0
263.00,211.08,0
197.00,211.38,0
178.00,211.52,0
293.00,211.62,0
224.00,212.86,0
107.00,213.78,0
102.00,211.87,0
107.00,206.90,0
91.00,199.65,0
90.00,190.68,0
97.00,180.61,0
154.00,170.61,0
111.00,161.63,0
190.00,154.15,0
127.00,148.46,0
168.00,144.30,0
238.00,142.15,0
331.00,143.87,0
249.00,149.90,0
172.00,157.79,0
184.00,164.99,0
216.00,171.25,0
187.00,176.99,0
142.00,181.54,0
201.00,184.56,0
204.00,186.93,0
190.00,189.16,0
140.00,190.59,0
231.00,191.17,0
129.00,191.33,0
89.00,189.91,0
164.00,186.46,0
142.00,182.29,0
180.00,178.29,0
108.00,174.39,0
252.00,171.02,0
157.00,169.17,0
114.00,167.79,0
131.00,165.47,0
127.00,162.39,0
91.00,158.61,0
126.00,154.09,0
143.00,149.58,0
110.00,145.52,0
148.00,141.84,0
150.00,138.95,0
239.00,137.86,0
180.00,139.16,0
271.00,142.73,0
219.00,148.54,0
247.00,155.95,0
178.00,163.79,0
313.00,171.90,0
254.00,181.14,0
319.00,191.58,0
253.00,202.63,0
261.00,213.31,0
272.00,223.03,0
362.00,232.68,0
186.00,242.08,0
216.00,249.07,0
206.00,252.96,0
221.00,254.57,0
289.00,255.12,0
207.00,255.43,0
374.00,256.11,0
298.00,258.52,0
198.00,261.48,0
174.00,262.24,0
242.00,260.66,0
140.00,257.40,0
157.00,252.03,0
111.00,244.28,0
197.00,235.03,0
169.00,225.80,0
274.00,218.01,0
195.00,212.44,0
304.00,209.19,0
267.00,208.64,0
308.00,210.79,0
212.00,214.51,0
278.00,218.59,0
226.00,222.67,0
394.00,227.72,0
331.00,235.14,0
254.00,243.85,0
343.00,252.18,0
219.00,259.75,0
287.00,265.74,0
225.00,269.93,0
265.00,272.46,0
237.00,273.57,0
205.00,273.17,0
380.00,272.32,0
317.00,273.27,0
222.00,275.18,0
238.00,275.78,0
181.00,274.38,0
187.00,270.75,0
148.00,264.85,0
161.00,256.95,0
139.00,247.49,0
239.00,237.73,0
189.00,229.11,0
218.00,221.89,0
183.00,215.75,0
209.00,210.50,0
209.00,206.25,0
270.00,203.63,0
403.00,204.42,0
235.00,209.11,0
187.00,214.53,0
303.00,219.09,0
198.00,223.51,0
217.00,227.04,0
294.00,229.88,0
298.00,233.55,0
192.00,237.57,0
413.00,241.81,0
171.00,246.87,0
272.00,251.05,0
291.00,254.22,0
292.00,257.71,0
195.00,260.68,0
187.00,261.49,0
367.00,261.19,0
173.00,261.36,0
163.00,260.11,0
144.00,255.85,0
166.00,249.26,0
126.00,240.98,0
147.00,231.36,0
145.00,221.08,0
190.00,211.15,0
131.00,202.04,0
174.00,193.62,0
140.00,185.93,0
283.00,180.03,0
180.00,176.93,0
314.00,176.63,0
157.00,178.53,0
324.00,181.93,0
177.00,186.63,0
279.00,191.93,0
180.00,197.18,0
326.00,202.62,0
159.00,208.24,0
167.00,212.34,0
257.00,214.64,0
193.00,216.51,0
164.00,217.45,0
222.00,217.12,0
131.00,215.81,0
182.00,213.19,0
187.00,209.79,0
192.00,206.46,0
167.00,203.20,0
218.00,200.15,0
108.00,197.10,0
104.00,192.71,0
112.00,186.53,0
103.00,179.22,0
121.00,171.38,0
104.00,163.47,0
129.00,155.82,0
107.00,148.74,0
126.00,142.31,0
127.00,136.74,0
151.00,132.37,0
235.00,130.16,0
279.00,131.62,0
129.00,136.03,0
172.00,140.74,0
257.00,145.70,0
251.00,152.42,0
153.00,160.04,0
164.00,166.50,0
140.00,171.02,0
285.00,174.82,0
129.00,178.87,0
171.00,181.93,0
270.00,184.36,0
88.00,186.72,0
253.00,188.12,0
284.00,190.23,0
106.00,193.21,0
275.00,195.46,0
124.00,197.15,0
92.00,197.00,0
123.00,193.92,0
116.00,188.90,0
133.00,182.86,0
110.00,176.28,0
127.00,169.41,0
153.00,162.87,0
188.00,157.64,0
104.00,153.69,0
131.00,149.97,0
213.00,146.96,0
195.00,146.04,0
160.00,146.83,0
164.00,148.19,0
254.00,150.46,0
189.00,154.34,0
165.00,158.78,0
288.00,163.57,0
190.00,169.48,0
261.00,176.06,0
126.00,182.17,0
243.00,187.04,0
85.00,190.32,0
131.00,191.00,0
153.00,189.35,0
166.00,186.81,0
188.00,184.27,0
102.00,181.56,0
158.00,178.06,0
106.00,173.82,0
127.00,168.97,0
116.00,163.63,0
103.00,158.00,0
135.00,152.26,0
122.00,146.96,0
110.00,142.12,0
149.00,137.80,0
130.00,134.40,0
152.00,132.01,0
212.00,131.16,0
242.00,132.95,0
228.00,137.54,0
152.00,143.49,0
249.00,149.72,0
170.00,156.27,0
123.00,161.97,0
250.00,166.46,0
134.00,170.62,0
164.00,173.77,0
145.00,175.45,0
206.00,176.38,0
133.00,176.95,0
225.00,177.30,0
122.00,177.53,0
231.00,177.63,0
110.00,177.56,0
143.00,176.54,0
218.00,175.01,0
148.00,174.06,0
177.00,173.31,0
108.00,172.04,0
133.00,169.74,0
123.00,166.47,0
121.00,162.61,0
92.00,158.08,0
127.00,152.98,0
167.00,148.29,0
136.00,144.74,0
170.00,142.30,0
154.00,140.95,0
101.00,140.05,0
212.00,139.43,0
246.00,140.74,0
169.00,144.28,0
161.00,148.35,0
222.00,152.43,0
261.00,157.66,0
178.00,164.05,0
206.00,170.28,0
162.00,175.61,0
148.00,179.45,0
244.00,182.23,0
125.00,184.61,0
164.00,185.75,0
166.00,185.60,0
129.00,184.51,0
171.00,182.49,0
246.00,180.85,0
129.00,180.17,0
92.00,178.63,0
138.00,175.26,0
106.00,170.83,0
108.00,165.59,0
119.00,159.79,0
144.00,154.15,0
94.00,148.91,0
128.00,143.81,0
90.00,138.81,0
120.00,133.96,0
127.00,129.62,0
148.00,126.35,0
172.00,124.62,0
216.00,125.01,0
127.00,127.22,0
133.00,129.68,0
246.00,132.54,0
132.00,136.59,0
222.00,141.20,0
265.00,147.01,0
196.00,154.38,0
219.00,162.13,0
98.00,168.70,0
248.00,173.61,0
265.00,178.71,0
131.00,184.20,0
176.00,188.09,0
89.00,189.57,0
137.00,188.47,0
174.00,185.84,0
111.00,182.61,0
167.00,178.78,0
124.00,174.65,0
113.00,170.10,0
138.00,165.07,0
122.00,160.01,0
137.00,155.16,0
141.00,150.78,0
134.00,147.04,0
112.00,143.65,0
128.00,140.33,0
128.00,137.27,0
288.00,135.98,0
134.00,137.43,0
244.00,140.61,0
169.00,144.91,0
140.00,149.37,0
194.00,153.13,0
275.00,157.56,0
165.00,163.24,0
199.00,168.81,0
213.00,173.88,0
114.00,178.08,0
256.00,181.16,0
176.00,184.13,0
121.00,186.33,0
118.00,186.25,0
188.00,184.54,0
137.00,182.36,0
150.00,179.72,0
149.00,176.63,0
143.00,173.32,0
126.00,169.72,0
118.00,165.61,0
82.00,160.68,0
110.00,154.86,0
146.00,149.02,0
113.00,143.91,0
105.00,139.21,0
148.00,134.93,0
109.00,131.43,0
153.00,128.72,0
152.00,127.09,0
298.00,127.88,0
128.00,131.49,0
215.00,136.24,0
201.00,141.61,0
194.00,147.72,0
192.00,153.94,0
304.00,160.86,0
121.00,168.41,0
177.00,174.55,0
226.00,179.25,0
198.00,183.73,0
109.00,187.09,0
263.00,189.08,0
115.00,190.55,0
253.00,191.52,0
178.00,192.54,0
180.00,193.46,0
104.00,193.08,0
183.00,191.12,0
82.00,187.89,0
93.00,182.86,0
146.00,176.44,0
91.00,169.66,0
144.00,162.80,0
93.00,156.11,0
112.00,149.52,0
122.00,143.20,0
150.00,137.84,0
127.00,133.75,0
136.00,130.68,0
158.00,128.63,0
238.00,128.51,0
153.00,130.68,0
194.00,134.12,0
159.00,138.07,0
228.00,142.62,0
130.00,147.53,0
167.00,151.79,0
148.00,155.08,0
157.00,157.57,0
104.00,158.93,0
186.00,159.26,0
240.00,160.16,0
127.00,162.10,0
146.00,163.51,0
117.00,163.62,0
243.00,163.44,0
125.00,163.91,0
150.00,164.17,0
255.00,164.56,0
132.00,165.96,0
82.00,166.50,0
110.00,164.77,0
89.00,161.25,0
102.00,156.47,0
120.00,151.07,0
147.00,146.01,0
129.00,141.83,0
142.00,138.49,0
138.00,135.92,0
127.00,133.99,0
188.00,132.88,0
174.00,133.25,0
246.00,135.57,0
243.00,140.32,0
146.00,146.54,0
273.00,153.11,0
146.00,159.96,0
264.00,166.73,0
178.00,173.42,0
180.00,179.38,0
170.00,183.83,0
294.00,187.87,0
110.00,191.90,0
237.00,194.82,0
224.00,197.28,0
278.00,200.59,0
113.00,203.86,0
275.00,206.04,0
246.00,208.40,0
134.00,210.75,0
131.00,210.91,0
126.00,208.33,0
104.00,203.51,0
127.00,196.93,0
111.00,189.28,0
82.00,180.76,0
133.00,171.68,0
130.00,163.04,0
170.00,155.73,0
157.00,150.23,0
190.00,146.66,0
299.00,146.01,0
155.00,148.47,0
198.00,152.11,0
206.00,156.11,0
170.00,160.44,0
117.00,163.91,0
160.00,165.78,0
230.00,167.24,0
111.00,168.85,0
114.00,169.16,0
161.00,167.93,0
112.00,165.98,0
88.00,162.90,0
127.00,158.59,0
298.00,155.37,0
104.00,154.62,0
136.00,154.25,0
129.00,153.04,0
124.00,151.34,0
83.00,148.83,0
128.00,145.47,0
107.00,141.79,0
105.00,137.99,0
103.00,134.02,0
141.00,130.31,0
176.00,127.83,0
149.00,127.01,0
146.00,127.33,0
198.00,128.64,0
166.00,131.26,0
252.00,135.38,0
148.00,140.80,0
158.00,146.10,0
158.00,150.45,0
238.00,154.66,0
181.00,159.50,0
127.00,163.91,0
177.00,166.91,0
143.00,168.81,0
192.00,170.09,0
125.00,170.82,0
127.00,170.42,0
199.00,169.26,0
265.00,169.32,0
184.00,171.35,0
162.00,173.80,0
87.00,174.82,0
121.00,173.58,0
112.00,170.54,0
138.00,166.59,0
159.00,162.60,0
116.00,158.93,0
117.00,155.07,0
137.00,151.04,0
143.00,147.40,0
155.00,144.53,0
127.00,142.37,0
260.00,141.57,0
160.00,142.96,0
159.00,145.41,0
127.00,147.46,0
190.00,149.12,0
131.00,150.73,0
187.00,152.26,0
154.00,153.83,0
280.00,156.34,0
199.00,160.62,0
189.00,165.73,0
190.00,170.48,0
256.00,175.27,0
171.00,180.33,0
183.00,184.67,0
199.00,187.94,0
119.00,190.01,0
94.00,189.69,0
113.00,186.67,0
119.00,181.84,0
87.00,175.80,0
110.00,168.71,0
114.00,161.23,0
118.00,154.00,0
122.00,147.31,0
166.00,141.72,0
103.00,137.39,0
142.00,133.81,0
113.00,130.79,0
177.00,128.68,0
146.00,127.88,0
231.00,128.82,0
146.00,131.50,0
316.00,136.12,0
156.00,142.85,0
206.00,150.11,0
121.00,156.37,0
216.00,161.44,0
177.00,165.99,0
168.00,170.06,0
143.00,172.94,0
116.00,174.14,0
192.00,173.99,0
132.00,173.35,0
206.00,172.60,0
138.00,171.96,0
256.00,171.89,0
134.00,172.63,0
163.00,173.17,0
110.00,172.57,0
97.00,170.39,0
145.00,166.82,0
129.00,162.87,0
101.00,158.64,0
105.00,153.80,0
105.00,148.46,0
115.00,143.05,0
179.00,138.46,0
139.00,135.45,0
130.00,133.54,0
182.00,132.48,0
164.00,132.72,0
249.00,134.77,0
166.00,138.72,0
133.00,143.03,0
165.00,146.51,0
201.00,149.80,0
176.00,153.49,0
260.00,157.93,0
148.00,163.05,0
189.00,167.72,0
145.00,171.26,0
187.00,173.80,0
176.00,175.73,0
171.00,177.26,0
124.00,177.86,0
207.00,177.62,0
115.00,176.96,0
89.00,174.96,0
176.00,171.54,0
77.00,167.56,0
97.00,162.52,0
141.00,156.72,0
84.00,150.96,0
68.00,144.71,0
102.00,137.85,0
115.00,131.27,0
122.00,125.69,0
103.00,121.11,0
139.00,117.48,0
100.00,114.82,0
141.00,112.97,0
117.00,111.96,0
228.00,112.46,0
129.00,114.93,0
175.00,118.47,0
131.00,122.28,0
90.00,125.49,0
156.00,127.64,0
162.00,129.72,0
119.00,131.96,0
130.00,133.68,0
111.00,134.62,0
80.00,134.45,0
126.00,133.15,0
112.00,131.44,0
115.00,129.64,0
132.00,127.90,0
238.00,127.44,0
148.00,129.13,0
152.00,131.82,0
109.00,134.14,0
107.00,135.41,0
87.00,135.26,0
90.00,133.74,0
97.00,131.17,0
105.00,128.08,0
92.00,124.80,0
93.00,121.33,0
102.00,117.82,0
100.00,114.54,0
143.00,111.94,0
210.00,111.19,0
125.00,112.64,0
204.00,115.49,0
122.00,119.25,0
174.00,123.31,0
133.00,127.30,0
167.00,131.14,0
156.00,134.88,0
152.00,138.47,0
125.00,141.46,0
154.00,143.65,0
145.00,145.34,0
236.00,147.45,0
163.00,150.62,0
163.00,154.05,0
73.00,156.19,0
164.00,156.56,0
165.00,156.34,0
127.00,156.14,0
65.00,154.83,0
63.00,151.34,0
105.00,146.11,0
169.00,140.96,0
89.00,136.78,0
88.00,132.68,0
92.00,128.12,0
82.00,123.35,0
94.00,118.53,0
177.00,114.65,0
117.00,112.58,0
138.00,111.83,0
162.00,112.16,0
138.00,113.66,0
127.00,115.71,0
191.00,118.26,0
184.00,122.04,0
107.00,126.38,0
198.00,130.43,0
98.00,134.16,0
156.00,137.10,0
132.00,139.29,0
209.00,141.55,0
112.00,144.06,0
174.00,146.22,0
103.00,147.69,0
171.00,148.47,0
142.00,149.00,0
181.00,149.74,0
111.00,150.43,0
90.00,150.06,0
89.00,147.95,0
78.00,144.32,0
80.00,139.46,0
80.00,133.79,0
62.00,127.56,0
115.00,121.24,0
100.00,115.67,0
104.00,111.08,0
89.00,107.19,0
147.00,104.25,0
118.00,102.70,0
211.00,103.04,0
199.00,105.98,0
150.00,111.00,0
146.00,116.46,0
176.00,121.87,0
193.00,127.67,0
176.00,133.95,0
235.00,140.74,0
164.00,147.93,0
117.00,154.13,0
167.00,158.41,0
108.00,161.06,0
175.00,162.37,0
141.00,162.94,0
189.00,163.33,0
119.00,163.50,0
186.00,163.29,0
108.00,162.69,0
150.00,161.41,0
58.00,158.96,0
89.00,154.78,0
99.00,149.25,0
82.00,143.17,0
92.00,136.75,0
106.00,130.42,0
118.00,124.79,0
88.00,119.94,0
86.00,115.43,0
117.00,111.31,0
114.00,108.08,0
140.00,106.05,0
208.00,106.00,0
143.00,108.24,0
150.00,111.68,0
270.00,116.50,0
158.00,123.32,0
104.00,130.13,0
210.00,135.76,0
189.00,141.45,0
108.00,146.85,0
191.00,151.03,0
127.00,154.31,0
163.00,156.72,0
257.00,159.24,0
164.00,162.84,0
150.00,166.27,0
258.00,169.35,0
124.00,172.61,0
121.00,174.57,0
156.00,174.60,0
52.00,172.85,0
89.00,168.67,0
81.00,162.48,0
66.00,155.01,0
81.00,146.65,0
77.00,137.96,0
90.00,129.48,0
103.00,121.74,0
99.00,115.09,0
111.00,109.65,0
143.00,105.71,0
114.00,103.46,0
231.00,103.31,0
128.00,105.59,0
147.00,109.07,0
148.00,112.81,0
190.00,117.17,0
202.00,122.63,0
161.00,128.95,0
107.00,134.71,0
241.00,139.73,0
108.00,144.68,0
122.00,148.45,0
154.00,150.58,0
109.00,151.68,0
154.00,151.86,0
110.00,151.33,0
183.00,150.53,0
133.00,149.97,0
155.00,149.58,0
85.00,148.71,0
45.00,146.18,0
90.00,141.62,0
65.00,135.89,0
68.00,129.44,0
90.00,122.66,0
81.00,116.18,0
73.00,110.10,0
106.00,104.59,0
149.00,100.52,0
117.00,98.41,0
90.00,97.46,0
155.00,97.26,0
135.00,98.30,0
156.00,100.64,0
274.00,105.03,0
288.00,113.08,0
146.00,123.66,0
116.00,133.36,0
197.00,141.09,0
209.00,148.24,0
130.00,154.93,0
99.00,159.59,0
127.00,161.61,0
223.00,162.56,0
308.00,165.19,0
171.00,170.08,0
123.00,174.56,0
130.00,176.74,0
106.00,176.61,0
242.00,175.50,0
114.00,174.67,0
66.00,172.71,0
136.00,168.67,0
109.00,163.71,0
115.00,158.41,0
80.00,152.62,0
119.00,146.43,0
112.00,140.43,0
83.00,134.75,0
142.00,129.45,0
78.00,124.82,0
98.00,120.45,0
109.00,116.31,0
124.00,112.96,0
211.00,111.38,0
213.00,112.78,0
278.00,117.65,0
134.00,124.91,0
140.00,131.98,0
260.00,138.56,0
141.00,145.59,0
204.00,152.29,0
103.00,157.74,0
134.00,161.15,0
135.00,162.61,0
109.00,162.57,0
182.00,161.59,0
125.00,160.45,0
196.00,159.46,0
148.00,158.94,0
151.00,158.60,0
97.00,157.63,0
53.00,154.95,0
54.00,149.93,0
97.00,143.29,0
78.00,136.22,0
96.00,129.23,0
94.00,122.65,0
65.00,116.49,0
100.00,110.63,0
178.00,106.18,0
120.00,104.06,0
84.00,103.14,0
82.00,102.10,0
199.00,101.62,0
162.00,103.19,0
123.00,106.30,0
134.00,109.64,0
170.00,113.18,0
151.00,117.30,0
172.00,121.87,0
122.00,126.42,0
225.00,130.99,0
106.00,135.74,0
111.00,139.38,0
206.00,141.96,0
150.00,144.79,0
273.00,148.58,0
99.00,153.13,0
170.00,156.81,0
136.00,159.18,0
170.00,160.78,0
148.00,161.84,0
83.00,161.84,0
111.00,160.02,0
74.00,156.45,0
119.00,151.68,0
78.00,146.28,0
105.00,140.47,0
75.00,134.41,0
85.00,128.18,0
115.00,122.18,0
111.00,117.11,0
104.00,113.03,0
97.00,109.63,0
189.00,107.44,0
110.00,107.07,0
194.00,108.23,0
149.00,110.88,0
115.00,114.26,0
214.00,117.94,0
222.00,123.18,0
194.00,130.17,0
130.00,137.28,0
185.00,143.43,0
144.00,148.69,0
118.00,152.64,0
119.00,154.71,0
206.00,155.82,0
200.00,157.57,0
127.00,159.74,0
182.00,161.36,0
203.00,163.00,0
72.00,164.31,0
65.00,163.28,0
80.00,159.45,0
60.00,153.62,0
112.00,146.69,0
90.00,139.67,0
112.00,133.05,0
103.00,127.07,0
103.00,121.80,0
74.00,116.94,0
83.00,112.14,0
112.00,107.70,0
249.00,105.36,0
235.00,107.06,0
191.00,112.31,0
194.00,119.29,0
149.00,126.66,0
155.00,133.43,0
272.00,140.19,0
216.00,148.26,0
287.00,157.69,0
174.00,167.62,0
237.00,176.83,0
229.00,185.23,0
160.00,192.55,0
270.00,198.52,0
179.00,203.76,0
266.00,208.40,0
266.00,213.11,0
217.00,218.03,0
112.00,221.27,0
114.00,221.00,0
90.00,217.05,0
68.00,209.90,0
87.00,200.13,0
165.00,189.45,0
120.00,179.52,0
101.00,170.23,0
139.00,161.35,0
84.00,153.10,0
94.00,145.07,0
109.00,137.34,0
110.00,130.40,0
228.00,125.42,0
177.00,123.63,0
350.00,125.89,0
296.00,133.18,0
174.00,143.51,0
194.00,153.54,0
217.00,162.52,0
240.00,171.15,0
200.00,179.46,0
127.00,186.18,0
224.00,190.74,0
196.00,194.27,0
217.00,197.41,0
281.00,200.80,0
177.00,204.65,0
302.00,208.55,0
182.00,212.57,0
332.00,216.85,0
214.00,221.69,0
246.00,226.36,0
68.00,228.83,0
97.00,227.09,0
113.00,221.39,0
136.00,213.56,0
105.00,204.60,0
100.00,194.69,0
120.00,184.25,0
170.00,174.45,0
133.00,166.13,0
138.00,159.06,0
116.00,152.77,0
220.00,147.81,0
208.00,145.49,0
307.00,146.72,0
191.00,151.16,0
169.00,156.62,0
154.00,161.24,0
301.00,165.84,0
224.00,171.96,0
203.00,178.81,0
235.00,185.25,0
181.00,191.08,0
319.00,196.76,0
335.00,204.12,0
270.00,213.36,0
168.00,221.94,0
198.00,227.79,0
147.00,230.58,0
214.00,230.92,0
182.00,229.82,0
182.00,227.66,0
155.00,224.28,0
142.00,219.56,0
108.00,213.23,0
178.00,205.80,0
159.00,198.51,0
128.00,191.56,0
144.00,184.58,0
146.00,177.81,0
136.00,171.52,0
207.00,166.23,0
166.00,162.63,0
233.00,160.90,0
267.00,161.70,0
322.00,165.94,0
174.00,172.69,0
210.00,179.38,0
196.00,185.06,0
261.00,190.39,0
231.00,195.99,0
286.00,202.10,0
283.00,209.04,0
238.00,216.40,0
238.00,223.08,0
286.00,229.04,0
255.00,234.80,0
302.00,240.50,0
158.00,245.28,0
250.00,247.99,0
261.00,249.45,0
256.00,250.81,0
222.00,251.77,0
227.00,251.84,0
217.00,250.94,0
197.00,249.05,0
146.00,245.63,0
127.00,239.95,0
187.00,232.55,0
156.00,224.66,0
285.00,217.72,0
186.00,212.79,0
196.00,209.06,0
206.00,205.79,0
309.00,204.10,0
193.00,204.45,0
278.00,205.99,0
186.00,208.09,0
297.00,210.63,0
202.00,213.72,0
224.00,216.64,0
205.00,218.76,0
282.00,220.72,0
174.00,222.70,0
272.00,224.29,0
259.00,226.16,0
310.00,229.20,0
284.00,233.53,0
240.00,238.36,0
206.00,242.16,0
205.00,244.13,0
197.00,244.29,0
182.00,242.76,0
213.00,239.98,0
126.00,236.02,0
175.00,230.50,0
131.00,223.70,0
182.00,216.27,0
177.00,209.03,0
167.00,202.42,0
205.00,196.63,0
199.00,192.14,0
152.00,188.61,0
211.00,185.60,0
242.00,183.91,0
229.00,184.17,0
227.00,185.94,0
306.00,189.31,0
245.00,194.55,0
206.00,200.38,0
174.00,205.05,0
268.00,208.62,0
312.00,212.87,0
173.00,217.86,0
216.00,221.67,0
269.00,224.47,0
276.00,227.67,0
155.00,230.65,0
268.00,232.34,0
148.00,232.89,0
164.00,231.63,0
207.00,228.64,0
208.00,225.30,0
265.00,222.66,0
253.00,221.48,0
149.00,220.86,0
160.00,218.97,0
105.00,215.05,0
145.00,209.20,0
142.00,202.30,0
104.00,194.78,0
112.00,186.45,0
104.00,177.52,0
97.00,168.32,0
94.00,159.00,0
109.00,149.92,0
217.00,142.45,0
183.00,138.05,0
186.00,136.51,0
201.00,137.09,0
224.00,139.70,0
206.00,144.13,0
200.00,149.63,0
200.00,155.54,0
241.00,161.82,0
220.00,168.70,0
296.00,176.44,0
259.00,185.35,0
315.00,195.31,0
242.00,205.78,0
293.00,215.95,0
205.00,225.08,0
298.00,232.85,0
257.00,239.80,0
236.00,245.82,0
171.00,249.70,0
137.00,250.31,0
131.00,247.25,0
103.00,240.92,0
86.00,231.64,0
94.00,219.94,0
136.00,207.18,0
92.00,194.42,0
200.00,182.60,0
127.00,172.70,0
152.00,164.48,0
201.00,158.01,0
277.00,154.79,0
245.00,155.45,0
306.00,159.72,0
159.00,166.11,0
161.00,171.97,0
247.00,176.76,0
184.00,181.48,0
251.00,186.24,0
247.00,191.40,0
231.00,197.06,0
308.00,203.27,0
236.00,210.23,0
138.00,216.15,0
215.00,219.51,0
182.00,220.99,0
152.00,220.86,0
206.00,219.19,0
132.00,216.40,0
79.00,211.66,0
116.00,204.40,0
89.00,195.40,0
111.00,185.46,0
101.00,175.18,0
127.00,165.21,0
155.00,156.39,0
153.00,149.39,0
103.00,143.79,0
95.00,138.53,0
212.00,134.13,0
212.00,132.41,0
216.00,133.81,0
235.00,137.69,0
176.00,143.23,0
181.00,149.04,0
196.00,154.60,0
287.00,160.83,0
200.00,168.26,0
204.00,175.73,0
206.00,182.32,0
294.00,188.83,0
274.00,196.38,0
210.00,204.31,0
271.00,211.56,0
248.00,218.35,0
253.00,224.72,0
198.00,230.00,0
232.00,233.69,0
110.00,235.13,0
111.00,233.09,0
97.00,227.37,0
124.00,219.03,0
98.00,209.10,0
126.00,198.32,0
117.00,187.43,0
127.00,176.97,0
151.00,167.48,0
158.00,159.59,0
224.00,154.01,0
241.00,151.69,0
189.00,152.30,0
221.00,154.70,0
235.00,158.55,0
232.00,163.87,0
167.00,169.65,0
212.00,174.86,0
151.00,179.18,0
204.00,182.46,0
178.00,185.02,0
145.00,186.67,0
201.00,187.28,0
110.00,186.99,0
159.00,185.38,0
88.00,182.30,0
205.00,178.39,0
143.00,174.81,0
98.00,171.19,0
71.00,166.16,0
51.00,159.25,0
55.00,150.62,0
107.00,141.31,0
57.00,132.26,0
68.00,123.39,0
136.00,115.29,0
60.00,108.63,0
92.00,102.86,0
86.00,97.79,0
127.00,93.95,0
105.00,91.59,0
133.00,90.66,0
137.00,91.15,0
138.00,93.01,0
122.00,95.77,0
110.00,98.76,0
127.00,101.64,0
140.00,104.64,0
100.00,107.65,0
150.00,110.43,0
105.00,113.06,0
178.00,115.77,0
150.00,119.06,0
82.00,122.26,0
182.00,124.75,0
71.00,126.79,0
173.00,128.25,0
105.00,129.44,0
121.00,130.23,0
127.00,130.44,0
64.00,129.92,0
42.00,127.70,0
54.00,123.45,0
78.00,118.01,0
58.00,112.18,0
81.00,106.32,0
84.00,100.86,0
89.00,96.17,0
70.00,92.17,0
94.00,88.75,0
105.00,86.22,0
135.00,85.08,0
127.00,85.54,0
162.00,87.62,0
151.00,91.29,0
130.00,95.96,0
106.00,100.61,0
71.00,104.23,0
212.00,107.34,0
117.00,111.19,0
95.00,114.92,0
92.00,117.25,0
82.00,118.14,0
119.00,118.01,0
169.00,118.06,0
88.00,118.70,0
77.00,118.74,0
119.00,117.85,0
88.00,116.60,0
59.00,114.72,0
79.00,111.86,0
88.00,108.51,0
67.00,105.05,0
67.00,101.33,0
75.00,97.44,0
58.00,93.53,0
99.00,89.86,0
73.00,86.82,0
68.00,84.23,0
93.00,81.97,0
117.00,80.61,0
74.00,80.22,0
116.00,80.42,0
106.00,81.32,0
144.00,83.22,0
111.00,86.08,0
109.00,89.33,0
81.00,92.24,0
91.00,94.39,0
129.00,96.15,0
88.00,97.92,0
80.00,99.21,0
77.00,99.60,0
69.00,99.10,0
66.00,97.77,0
86.00,95.89,0
83.00,93.96,0
72.00,92.06,0
70.00,90.02,0
46.00,87.64,0
74.00,84.87,0
77.00,82.20,0
40.00,79.67,0
58.00,76.90,0
113.00,74.47,0
83.00,73.19,0
81.00,72.77,0
82.00,72.75,0
75.00,72.97,0
68.00,73.21,0
128.00,73.77,0
73.00,75.05,0
93.00,76.56,0
87.00,78.05,0
122.00,79.81,0
89.00,81.98,0
146.00,84.60,0
104.00,87.80,0
86.00,90.96,0
79.00,93.29,0
116.00,94.96,0
82.00,96.34,0
69.00,97.08,0
79.00,96.91,0
86.00,96.16,0
60.00,94.99,0
89.00,93.39,0
169.00,92.46,0
54.00,92.66,0
103.00,92.89,0
91.00,92.90,0
48.00,92.58,0
66.00,91.38,0
46.00,89.30,0
55.00,86.54,0
105.00,83.73,0
72.00,81.62,0
74.00,79.98,0
78.00,78.56,0
75.00,77.40,0
120.00,76.84,0
85.00,77.17,0
81.00,77.95,0
113.00,78.93,0
94.00,80.38,0
100.00,82.15,0
106.00,84.07,0
100.00,86.16,0
111.00,88.35,0
103.00,90.60,0
78.00,92.58,0
99.00,93.98,0
80.00,94.88,0
82.00,95.24,0
86.00,95.09,0
70.00,94.50,0
75.00,93.42,0
109.00,92.22,0
45.00,91.06,0
117.00,89.78,0
62.00,88.65,0
48.00,87.25,0
57.00,85.08,0
69.00,82.54,0
56.00,79.94,0
72.00,77.42,0
69.00,75.17,0
83.00,73.39,0
77.00,72.20,0
83.00,71.55,0
84.00,71.39,0
107.00,71.87,0
88.00,73.04,0
99.00,74.68,0
118.00,76.79,0
124.00,79.65,0
144.00,83.39,0
121.00,87.88,0
86.00,92.29,0
125.00,96.03,0
124.00,99.51,0
118.00,102.92,0
111.00,106.00,0
84.00,108.34,0
78.00,109.50,0
76.00,109.37,0
115.00,108.51,0
128.00,107.85,0
68.00,107.42,0
49.00,106.13,0
44.00,103.38,0
47.00,99.38,0
38.00,94.51,0
42.00,89.04,0
50.00,83.35,0
122.00,78.45,0
74.00,75.18,0
76.00,73.07,0
62.00,71.43,0
70.00,70.05,0
62.00,68.87,0
160.00,68.62,0
75.00,69.94,0
84.00,71.90,0
103.00,73.87,0
121.00,76.32,0
98.00,79.32,0
153.00,82.85,0
105.00,86.99,0
87.00,90.99,0
109.00,94.22,0
79.00,96.73,0
77.00,98.29,0
47.00,98.54,0
82.00,97.55,0
75.00,95.95,0
64.00,94.00,0
61.00,91.61,0
60.00,88.78,0
56.00,85.67,0
56.00,82.35,0
60.00,78.99,0
53.00,75.73,0
55.00,72.57,0
37.00,69.42,0
41.00,66.13,0
48.00,62.83,0
67.00,59.93,0
66.00,57.80,0
86.00,56.63,0
104.00,56.69,0
68.00,57.85,0
96.00,59.60,0
58.00,61.59,0
67.00,63.37,0
115.00,65.17,0
80.00,67.50,0
118.00,70.29,0
97.00,73.49,0
109.00,76.99,0
107.00,80.58,0
77.00,83.96,0
70.00,86.48,0
49.00,87.73,0
111.00,88.10,0
94.00,88.47,0
71.00,88.90,0
77.00,88.86,0
88.00,88.49,0
71.00,87.95,0
89.00,87.28,0
90.00,86.68,0
139.00,86.73,0
92.00,87.70,0
40.00,88.53,0
49.00,88.07,0
83.00,86.64,0
59.00,84.96,0
87.00,83.25,0
76.00,81.75,0
84.00,80.58,0
74.00,79.66,0
75.00,78.86,0
103.00,78.35,0
86.00,78.40,0
100.00,78.95,0
95.00,79.90,0
67.00,80.93,0
87.00,81.65,0
118.00,82.47,0
240.00,85.01,0
96.00,89.88,0
113.00,95.11,0
78.00,99.26,0
73.00,101.95,0
124.00,103.51,0
89.00,104.66,0
78.00,105.21,0
81.00,104.85,0
74.00,103.70,0
112.00,102.23,0
113.00,101.12,0
52.00,100.16,0
54.00,98.35,0
76.00,95.68,0
53.00,92.63,0
47.00,89.15,0
94.00,85.55,0
61.00,82.43,0
72.00,79.71,0
76.00,77.34,0
90.00,75.57,0
77.00,74.48,0
101.00,74.03,0
94.00,74.34,0
90.00,75.25,0
75.00,76.34,0
98.00,77.43,0
99.00,78.77,0
91.00,80.37,0
87.00,81.98,0
130.00,83.75,0
106.00,86.07,0
89.00,88.55,0
138.00,90.99,0
106.00,93.74,0
84.00,96.31,0
90.00,98.09,0
73.00,98.98,0
77.00,98.98,0
76.00,98.21,0
67.00,96.83,0
73.00,94.91,0
48.00,92.48,0
46.00,89.36,0
109.00,86.09,0
44.00,83.31,0
46.00,80.44,0
73.00,77.34,0
53.00,74.45,0
67.00,71.82,0
107.00,69.88,0
105.00,69.27,0
49.00,69.55,0
84.00,69.84,0
52.00,69.98,0
103.00,70.17,0
123.00,71.15,0
82.00,73.10,0
80.00,75.20,0
78.00,76.95,0
118.00,78.66,0
119.00,80.94,0
114.00,83.88,0
108.00,87.10,0
85.00,90.10,0
89.00,92.44,0
76.00,93.96,0
82.00,94.68,0
128.00,95.14,0
65.00,95.67,0
54.00,95.50,0
74.00,94.25,0
102.00,92.69,0
53.00,91.18,0
100.00,89.57,0
48.00,87.87,0
56.00,85.76,0
52.00,83.07,0
46.00,79.98,0
64.00,76.71,0
65.00,73.66,0
61.00,71.02,0
75.00,68.83,0
58.00,67.11,0
94.00,65.94,0
65.00,65.44,0
87.00,65.47,0
66.00,65.85,0
71.00,66.35,0
85.00,66.97,0
102.00,68.05,0
92.00,69.78,0
121.00,72.14,0
100.00,75.13,0
140.00,78.74,0
92.00,82.77,0
123.00,86.80,0
71.00,90.36,0
83.00,92.96,0
74.00,94.43,0
119.00,95.32,0
71.00,96.01,0
151.00,96.77,0
79.00,97.88,0
163.00,99.39,0
55.00,101.06,0
64.00,101.76,0
62.00,100.96,0
68.00,99.12,0
48.00,96.47,0
100.00,93.45,0
65.00,90.65,0
92.00,88.19,0
88.00,86.19,0
76.00,84.66,0
91.00,83.44,0
106.00,82.76,0
91.00,82.77,0
83.00,83.10,0
113.00,83.67,0
84.00,84.58,0
134.00,85.91,0
119.00,87.98,0
84.00,90.40,0
102.00,92.47,0
73.00,93.97,0
87.00,94.77,0
64.00,94.81,0
53.00,93.92,0
78.00,92.19,0
85.00,90.26,0
87.00,88.57,0
68.00,87.07,0
69.00,85.46,0
60.00,83.62,0
39.00,81.34,0
44.00,78.42,0
44.00,75.01,0
40.00,71.37,0
62.00,67.77,0
75.00,64.78,0
64.00,62.64,0
74.00,61.23,0
113.00,60.83,0
91.00,61.73,0
84.00,63.51,0
87.00,65.62,0
85.00,67.89,0
89.00,70.23,0
164.00,73.21,0
152.00,77.77,0
114.00,83.47,0
109.00,89.09,0
114.00,94.09,0
109.00,98.47,0
127.00,102.34,0
112.00,105.82,0
67.00,108.42,0
86.00,109.56,0
53.00,109.23,0
57.00,107.41,0
134.00,104.97,0
139.00,103.48,0
66.00,102.88,0
115.00,102.21,0
45.00,101.15,0
37.00,98.99,0
41.00,95.42,0
58.00,90.99,0
68.00,86.48,0
84.00,82.49,0
60.00,79.18,0
96.00,76.52,0
94.00,74.83,0
72.00,74.01,0
81.00,73.58,0
71.00,73.34,0
100.00,73.40,0
78.00,73.91,0
104.00,74.82,0
128.00,76.46,0
120.00,79.14,0
185.00,83.12,0
178.00,88.94,0
225.00,96.74,0
167.00,106.04,0
203.00,115.91,0
132.00,125.40,0
251.00,134.40,0
137.00,143.16,0
217.00,151.22,0
134.00,158.17,0
178.00,163.71,0
172.00,167.98,0
128.00,171.04,0
157.00,172.55,0
114.00,172.59,0
97.00,170.90,0
181.00,168.00,0
125.00,165.08,0
93.00,161.74,0
88.00,157.13,0
95.00,151.45,0
66.00,144.97,0
100.00,137.94,0
107.00,131.12,0
113.00,125.13,0
101.00,120.04,0
171.00,116.21,0
102.00,113.96,0
115.00,112.54,0
195.00,112.08,0
117.00,113.16,0
202.00,115.47,0
161.00,119.02,0
134.00,123.22,0
160.00,127.20,0
201.00,131.43,0
230.00,136.83,0
99.00,142.71,0
171.00,147.41,0
130.00,150.84,0
224.00,153.86,0
179.00,157.34,0
172.00,161.01,0
155.00,164.08,0
173.00,166.40,0
107.00,167.69,0
98.00,167.14,0
98.00,164.51,0
102.00,160.34,0
135.00,155.48,0
97.00,150.53,0
113.00,145.44,0
107.00,140.33,0
143.00,135.68,0
121.00,131.92,0
150.00,129.11,0
94.00,126.97,0
123.00,124.96,0
128.00,123.17,0
145.00,122.07,0
270.00,122.88,0
151.00,126.35,0
163.00,130.88,0
202.00,135.62,0
160.00,140.73,0
174.00,145.72,0
155.00,150.17,0
141.00,153.76,0
150.00,156.25,0
125.00,157.66,0
122.00,157.83,0
164.00,157.14,0
146.00,156.34,0
117.00,155.30,0
156.00,153.81,0
117.00,152.10,0
196.00,150.62,0
184.00,150.26,0
120.00,150.66,0
76.00,150.12,0
115.00,147.93,0
110.00,144.82,0
114.00,141.39,0
144.00,138.09,0
135.00,135.45,0
120.00,133.38,0
128.00,131.56,0
128.00,129.99,0
138.00,128.81,0
85.00,127.70,0
134.00,126.29,0
180.00,125.45,0
96.00,125.54,0
163.00,125.88,0
126.00,126.50,0
105.00,127.10,0
122.00,127.13,0
151.00,127.09,0
155.00,127.64,0
128.00,128.71,0
149.00,129.89,0
131.00,131.10,0
157.00,132.37,0
108.00,133.54,0
121.00,134.09,0
162.00,134.31,0
66.00,134.26,0
118.00,133.20,0
112.00,131.40,0
120.00,129.52,0
105.00,127.58,0
86.00,125.33,0
115.00,122.72,0
122.00,120.30,0
82.00,118.12,0
124.00,115.96,0
116.00,114.16,0
129.00,113.03,0
116.00,112.49,0
138.00,112.48,0
107.00,112.88,0
95.00,113.14,0
146.00,113.26,0
254.00,114.92,0
146.00,118.99,0
229.00,124.54,0
177.00,131.09,0
169.00,137.96,0
105.00,143.74,0
122.00,147.53,0
165.00,149.79,0
155.00,151.57,0
127.00,152.89,0
124.00,153.25,0
135.00,152.67,0
127.00,151.49,0
198.00,150.44,0
95.00,149.77,0
107.00,148.40,0
229.00,146.90,0
123.00,146.60,0
143.00,146.62,0
164.00,146.53,0
94.00,146.29,0
91.00,144.93,0
129.00,142.45,0
133.00,139.83,0
97.00,137.29,0
117.00,134.48,0
110.00,131.55,0
140.00,128.92,0
162.00,127.22,0
188.00,127.13,0
220.00,129.12,0
180.00,133.03,0
201.00,138.06,0
161.00,143.47,0
184.00,148.68,0
116.00,153.05,0
138.00,155.87,0
121.00,157.09,0
127.00,157.01,0
134.00,155.95,0
213.00,155.02,0
111.00,154.73,0
225.00,154.86,0
117.00,155.43,0
183.00,156.03,0
112.00,156.24,0
123.00,155.61,0
115.00,153.91,0
94.00,151.22,0
79.00,147.31,0
76.00,142.18,0
121.00,136.50,0
106.00,131.17,0
84.00,126.22,0
113.00,121.50,0
114.00,117.40,0
100.00,114.04,0
149.00,111.55,0
152.00,110.52,0
175.00,111.29,0
150.00,113.57,0
134.00,116.60,0
143.00,119.68,0
142.00,122.71,0
187.00,126.03,0
119.00,129.64,0
145.00,132.81,0
178.00,135.68,0
132.00,138.60,0
149.00,141.13,0
96.00,142.72,0
137.00,143.17,0
201.00,143.50,0
173.00,144.90,0
207.00,147.41,0
130.00,150.36,0
120.00,152.49,0
110.00,153.04,0
106.00,152.09,0
107.00,149.87,0
70.00,146.45,0
147.00,142.27,0
93.00,138.17,0
152.00,134.49,0
130.00,131.61,0
124.00,129.50,0
106.00,127.61,0
133.00,125.84,0
127.00,124.45,0
186.00,124.02,0
246.00,125.76,0
148.00,129.76,0
173.00,134.42,0
142.00,138.77,0
121.00,142.26,0
94.00,144.17,0
197.00,145.04,0
166.00,146.31,0
141.00,147.98,0
88.00,148.79,0
218.00,148.91,0
96.00,149.20,0
183.00,149.39,0
87.00,149.13,0
147.00,148.16,0
127.00,146.72,0
171.00,145.50,0
146.00,144.85,0
88.00,144.12,0
82.00,142.16,0
97.00,138.86,0
94.00,134.81,0
101.00,130.46,0
135.00,126.41,0
136.00,123.34,0
120.00,121.29,0
155.00,120.11,0
139.00,119.93,0
222.00,121.25,0
198.00,124.70,0
157.00,129.58,0
120.00,134.22,0
170.00,138.00,0
221.00,141.93,0
102.00,146.13,0
161.00,149.34,0
124.00,151.37,0
128.00,152.34,0
159.00,152.50,0
117.00,152.23,0
176.00,151.70,0
139.00,151.30,0
200.00,151.40,0
154.00,152.21,0
136.00,153.11,0
100.00,153.09,0
93.00,151.56,0
102.00,148.60,0
139.00,145.04,0
114.00,141.63,0
123.00,138.40,0
102.00,135.19,0
74.00,131.60,0
60.00,127.08,0
118.00,122.02,0
118.00,117.56,0
112.00,114.14,0
131.00,111.68,0
120.00,110.20,0
227.00,110.37,0
164.00,112.93,0
147.00,116.94,0
176.00,121.36,0
166.00,126.19,0
179.00,131.37,0
178.00,136.76,0
232.00,142.67,0
128.00,148.81,0
153.00,153.86,0
143.00,157.37,0
163.00,159.81,0
116.00,161.23,0
153.00,161.49,0
143.00,161.03,0
165.00,160.35,0
190.00,160.01,0
113.00,159.90,0
198.00,159.61,0
134.00,159.42,0
108.00,158.76,0
103.00,156.74,0
97.00,153.43,0
117.00,149.25,0
91.00,144.63,0
124.00,139.84,0
127.00,135.43,0
120.00,131.72,0
102.00,128.43,0
109.00,125.25,0
112.00,122.27,0
127.00,119.77,0
215.00,118.71,0
157.00,119.86,0
210.00,122.89,0
117.00,126.87,0
179.00,130.85,0
145.00,134.66,0
148.00,138.22,0
111.00,140.91,0
143.00,142.54,0
169.00,143.74,0
186.00,145.42,0
205.00,148.05,0
199.00,151.71,0
222.00,156.31,0
140.00,161.09,0
126.00,164.60,0
205.00,166.76,0
107.00,168.21,0
91.00,167.97,0
133.00,165.73,0
103.00,162.36,0
82.00,157.90,0
135.00,152.61,0
77.00,147.10,0
112.00,141.36,0
118.00,135.80,0
110.00,130.86,0
110.00,126.49,0
176.00,123.16,0
102.00,121.23,0
149.00,120.12,0
130.00,119.68,0
159.00,120.09,0
110.00,121.04,0
190.00,122.46,0
111.00,124.45,0
187.00,126.81,0
222.00,130.24,0
144.00,134.93,0
111.00,139.16,0
200.00,142.46,0
130.00,145.55,0
98.00,147.71,0
103.00,147.98,0
201.00,147.47,0
118.00,147.35,0
118.00,146.98,0
243.00,146.77,0
114.00,147.69,0
110.00,148.31,0
136.00,147.76,0
111.00,146.54,0
104.00,144.59,0
98.00,141.77,0
102.00,138.26,0
127.00,134.58,0
130.00,131.34,0
70.00,128.32,0
107.00,124.90,0
131.00,121.61,0
131.00,119.22,0
114.00,117.65,0
151.00,116.79,0
186.00,117.24,0
151.00,119.26,0
186.00,122.43,0
136.00,126.23,0
189.00,130.30,0
154.00,134.60,0
153.00,138.80,0
112.00,142.12,0
136.00,144.19,0
171.00,145.58,0
97.00,146.58,0
255.00,147.61,0
172.00,149.97,0
205.00,153.47,0
96.00,156.65,0
127.00,158.21,0
127.00,158.10,0
87.00,156.66,0
115.00,153.83,0
152.00,150.47,0
88.00,147.13,0
99.00,143.25,0
107.00,138.81,0
129.00,134.50,0
110.00,130.70,0
103.00,127.23,0
113.00,123.93,0
133.00,121.15,0
178.00,119.63,0
202.00,120.24,0
110.00,122.47,0
182.00,125.10,0
147.00,128.10,0
182.00,131.58,0
151.00,135.34,0
240.00,139.70,0
150.00,144.87,0
186.00,150.00,0
104.00,154.11,0
155.00,156.67,0
217.00,158.66,0
136.00,160.91,0
199.00,162.99,0
196.00,165.22,0
146.00,167.54,0
99.00,168.62,0
136.00,167.82,0
80.00,165.41,0
90.00,161.30,0
90.00,155.75,0
107.00,149.50,0
71.00,142.92,0
94.00,136.02,0
99.00,129.24,0
118.00,123.21,0
80.00,117.98,0
127.00,113.46,0
86.00,109.74,0
137.00,106.89,0
154.00,105.43,0
164.00,105.87,0
187.00,108.24,0
225.00,112.79,0
183.00,119.28,0
150.00,126.38,0
242.00,133.59,0
194.00,141.48,0
225.00,149.87,0
130.00,157.69,0
176.00,163.88,0
191.00,168.72,0
213.00,173.20,0
233.00,177.91,0
119.00,182.20,0
252.00,185.41,0
125.00,187.91,0
144.00,188.93,0
322.00,189.53,0
172.00,191.65,0
108.00,193.32,0
101.00,192.25,0
110.00,188.58,0
75.00,182.79,0
129.00,175.55,0
93.00,167.78,0
152.00,160.17,0
94.00,153.15,0
170.00,146.97,0
134.00,142.11,0
188.00,138.90,0
191.00,137.65,0
264.00,139.07,0
272.00,143.77,0
138.00,150.41,0
237.00,156.98,0
119.00,162.82,0
108.00,166.67,0
181.00,168.34,0
280.00,170.25,0
210.00,173.97,0
139.00,177.98,0
161.00,180.50,0
137.00,181.38,0
224.00,181.49,0
313.00,183.01,0
258.00,187.33,0
168.00,192.66,0
93.00,196.01,0
102.00,195.82,0
80.00,192.29,0
90.00,186.17,0
122.00,178.49,0
125.00,170.55,0
105.00,162.82,0
125.00,155.36,0
127.00,148.54,0
184.00,143.10,0
118.00,139.31,0
231.00,137.22,0
252.00,137.97,0
155.00,141.34,0
199.00,145.52,0
126.00,149.50,0
123.00,152.32,0
127.00,153.52,0
254.00,154.58,0
94.00,156.30,0
154.00,157.37,0
262.00,158.46,0
140.00,160.82,0
123.00,162.79,0
274.00,164.36,0
101.00,166.50,0
163.00,167.90,0
94.00,167.71,0
114.00,165.87,0
96.00,162.45,0
92.00,157.75,0
107.00,152.17,0
134.00,146.53,0
83.00,141.18,0
96.00,135.72,0
137.00,130.49,0
109.00,126.16,0
122.00,122.65,0
127.00,119.88,0
126.00,117.97,0
204.00,117.43,0
158.00,118.86,0
209.00,122.04,0
140.00,126.34,0
177.00,130.94,0
168.00,135.58,0
269.00,141.10,0
242.00,148.44,0
225.00,157.21,0
127.00,165.44,0
275.00,172.46,0
143.00,178.87,0
181.00,183.97,0
148.00,187.15,0
71.00,187.93,0
137.00,185.84,0
62.00,181.48,0
238.00,176.30,0
92.00,171.74,0
93.00,166.85,0
102.00,160.78,0
127.00,154.35,0
114.00,148.25,0
115.00,142.60,0
111.00,137.35,0
144.00,132.80,0
98.00,129.05,0
146.00,125.96,0
123.00,123.68,0
118.00,122.07,0
118.00,120.76,0
202.00,120.36,0
174.00,121.82,0
237.00,125.39,0
235.00,131.29,0
151.00,138.51,0
263.00,146.03,0
193.00,154.09,0
132.00,161.58,0
186.00,167.25,0
121.00,171.20,0
181.00,173.58,0
143.00,174.82,0
186.00,175.39,0
122.00,175.28,0
131.00,174.03,0
93.00,171.28,0
143.00,167.33,0
117.00,162.91,0
182.00,158.77,0
127.00,155.41,0
98.00,152.13,0
131.00,148.36,0
114.00,144.50,0
154.00,141.04,0
76.00,137.86,0
95.00,134.19,0
130.00,130.24,0
169.00,127.27,0
102.00,125.50,0
130.00,124.17,0
119.00,123.03,0
183.00,122.64,0
280.00,124.64,0
216.00,129.95,0
287.00,137.93,0
173.00,147.41,0
149.00,156.20,0
233.00,163.54,0
209.00,170.52,0
294.00,178.00,0
163.00,185.74,0
249.00,192.65,0
216.00,198.79,0
252.00,204.60,0
129.00,209.26,0
239.00,212.09,0
296.00,214.68,0
165.00,217.79,0
304.00,220.64,0
169.00,223.29,0
243.00,225.24,0
88.00,225.42,0
130.00,222.64,0
128.00,217.09,0
78.00,209.53,0
74.00,199.81,0
100.00,188.53,0
108.00,176.86,0
176.00,166.21,0
146.00,157.62,0
147.00,150.98,0
127.00,145.63,0
220.00,141.87,0
224.00,140.86,0
213.00,142.75,0
183.00,146.35,0
188.00,150.59,0
189.00,155.02,0
284.00,160.30,0
172.00,166.69,0
127.00,172.27,0
317.00,176.96,0
114.00,181.91,0
222.00,186.00,0
246.00,189.60,0
139.00,193.12,0
164.00,195.09,0
177.00,195.44,0
232.00,195.44,0
209.00,196.01,0
107.00,196.21,0
79.00,194.04,0
109.00,189.07,0
77.00,182.13,0
67.00,173.55,0
107.00,163.95,0
93.00,154.32,0
113.00,145.26,0
103.00,137.06,0
138.00,130.08,0
111.00,124.52,0
179.00,120.64,0
205.00,119.26,0
265.00,121.30,0
130.00,125.98,0
229.00,131.60,0
130.00,137.45,0
194.00,143.00,0
232.00,148.68,0
214.00,155.30,0
179.00,162.12,0
215.00,168.45,0
151.00,173.97,0
197.00,178.32,0
213.00,182.00,0
126.00,184.97,0
115.00,185.89,0
184.00,184.92,0
150.00,183.31,0
133.00,181.13,0
211.00,178.66,0
127.00,176.52,0
65.00,173.45,0
74.00,168.12,0
79.00,160.94,0
60.00,152.57,0
82.00,143.49,0
71.00,134.28,0
80.00,125.35,0
65.00,116.87,0
103.00,109.15,0
90.00,102.65,0
145.00,97.86,0
146.00,95.34,0
169.00,95.28,0
123.00,97.10,0
214.00,100.46,0
112.00,105.17,0
127.00,109.95,0
177.00,114.44,0
142.00,119.20,0
181.00,124.20,0
124.00,129.08,0
162.00,133.40,0
118.00,136.96,0
145.00,139.61,0
168.00,141.78,0
84.00,143.40,0
103.00,143.52,0
209.00,142.98,0
127.00,143.21,0
119.00,143.45,0
64.00,142.42,0
64.00,139.51,0
71.00,134.86,0
112.00,129.49,0
59.00,124.05,0
72.00,118.32,0
79.00,112.40,0
94.00,106.85,0
91.00,102.06,0
127.00,98.38,0
80.00,95.84,0
136.00,94.24,0
184.00,94.33,0
142.00,96.60,0
159.00,100.33,0
163.00,105.00,0
106.00,109.96,0
84.00,113.89,0
102.00,116.22,0
67.00,117.08,0
113.00,116.76,0
58.00,115.56,0
103.00,113.56,0
57.00,110.95,0
96.00,107.89,0
56.00,104.52,0
78.00,100.86,0
63.00,97.02,0
64.00,93.11,0
43.00,89.00,0
40.00,84.50,0
44.00,79.67,0
60.00,74.91,0
43.00,70.53,0
76.00,66.71,0
60.00,63.70,0
93.00,61.72,0
61.00,60.70,0
98.00,60.51,0
86.00,61.21,0
93.00,62.72,0
121.00,65.04,0
90.00,68.18,0
104.00,71.66,0
105.00,75.27,0
95.00,78.90,0
128.00,82.56,0
154.00,86.77,0
112.00,91.63,0
84.00,96.11,0
77.00,99.30,0
70.00,100.99,0
75.00,101.33,0
86.00,100.78,0
48.00,99.46,0
63.00,97.21,0
83.00,94.40,0
56.00,91.50,0
46.00,88.27,0
53.00,84.55,0
46.00,80.57,0
51.00,76.51,0
89.00,72.86,0
60.00,70.06,0
54.00,67.78,0
76.00,65.83,0
70.00,64.45,0
37.00,63.37,0
102.00,62.48,0
94.00,62.50,0
96.00,63.64,0
98.00,65.58,0
84.00,67.99,0
101.00,70.61,0
83.00,73.31,0
83.00,75.83,0
81.00,77.97,0
96.00,79.83,0
141.00,82.03,0
110.00,85.03,0
97.00,88.27,0
89.00,91.07,0
80.00,93.11,0
83.00,94.33,0
110.00,95.09,0
96.00,95.81,0
68.00,96.25,0
100.00,96.15,0
56.00,95.57,0
49.00,94.13,0
97.00,92.00,0
50.00,89.76,0
41.00,87.06,0
100.00,84.04,0
42.00,81.31,0
54.00,78.51,0
82.00,75.71,0
66.00,73.42,0
85.00,71.73,0
64.00,70.54,0
82.00,69.75,0
89.00,69.47,0
53.00,69.54,0
93.00,69.68,0
83.00,70.14,0
91.00,71.05,0
84.00,72.28,0
129.00,74.03,0
96.00,76.53,0
94.00,79.33,0
108.00,82.07,0
91.00,84.76,0
88.00,87.12,0
76.00,88.88,0
63.00,89.77,0
74.00,89.75,0
71.00,89.11,0
66.00,88.01,0
46.00,86.31,0
41.00,83.82,0
48.00,80.61,0
105.00,77.50,0
37.00,75.02,0
38.00,72.45,0
68.00,69.59,0
76.00,67.19,0
58.00,65.44,0
69.00,64.10,0
39.00,62.91,0
95.00,61.92,0
98.00,61.82,0
78.00,62.75,0
91.00,64.24,0
84.00,66.09,0
95.00,68.23,0
71.00,70.46,0
106.00,72.66,0
96.00,75.06,0
93.00,77.63,0
119.00,80.33,0
84.00,83.16,0
78.00,85.58,0
142.00,87.74,0
59.00,89.97,0
129.00,91.90,0
71.00,93.54,0
54.00,94.38,0
68.00,93.94,0
121.00,93.06,0
48.00,92.28,0
49.00,90.83,0
75.00,88.55,0
40.00,85.87,0
45.00,82.65,0
90.00,79.29,0
50.00,76.39,0
45.00,73.60,0
123.00,71.22,0
68.00,70.03,0
60.00,69.44,0
86.00,68.97,0
52.00,68.67,0
84.00,68.44,0
121.00,68.83,0
83.00,70.23,0
97.00,72.15,0
99.00,74.32,0
81.00,76.63,0
93.00,78.78,0
174.00,81.44,0
109.00,85.32,0
88.00,89.42,0
146.00,93.14,0
87.00,96.74,0
83.00,99.62,0
148.00,101.82,0
62.00,103.77,0
91.00,104.82,0
108.00,105.07,0
56.00,104.78,0
55.00,103.37,0
143.00,101.44,0
60.00,99.93,0
50.00,98.07,0
141.00,95.90,0
77.00,94.47,0
58.00,93.17,0
73.00,91.31,0
57.00,89.04,0
63.00,86.42,0
127.00,84.14,0
70.00,82.82,0
85.00,81.99,0
76.00,81.26,0
94.00,80.76,0
90.00,80.63,0
165.00,81.50,0
117.00,83.89,0
81.00,86.90,0
111.00,89.54,0
107.00,91.97,0
110.00,94.37,0
112.00,96.71,0
105.00,98.91,0
85.00,100.68,0
93.00,101.74,0
151.00,102.66,0
86.00,103.95,0
68.00,104.73,0
93.00,104.47,0
64.00,103.45,0
71.00,101.66,0
95.00,99.43,0
93.00,97.38,0
66.00,95.47,0
110.00,93.62,0
44.00,91.86,0
58.00,89.59,0
75.00,86.86,0
69.00,84.20,0
65.00,81.69,0
69.00,79.30,0
64.00,77.07,0
54.00,74.90,0
99.00,73.02,0
100.00,72.09,0
80.00,72.13,0
106.00,72.80,0
127.00,74.36,0
125.00,77.11,0
103.00,80.61,0
119.00,84.33,0
103.00,88.03,0
116.00,91.58,0
95.00,94.81,0
134.00,97.76,0
105.00,100.64,0
102.00,103.19,0
80.00,104.93,0
92.00,105.71,0
113.00,105.92,0
56.00,105.67,0
83.00,104.54,0
88.00,102.79,0
58.00,100.69,0
90.00,98.19,0
113.00,95.95,0
65.00,94.22,0
74.00,92.41,0
84.00,90.44,0
56.00,88.42,0
62.00,86.09,0
127.00,84.00,0
68.00,82.81,0
75.00,81.96,0
82.00,81.09,0
70.00,80.29,0
91.00,79.62,0
90.00,79.31,0
92.00,79.45,0
110.00,80.10,0
59.00,81.01,0
104.00,81.77,0
78.00,82.49,0
119.00,83.45,0
90.00,84.77,0
118.00,86.42,0
74.00,88.12,0
120.00,89.69,0
104.00,91.37,0
78.00,92.98,0
64.00,93.82,0
66.00,93.59,0
57.00,92.41,0
58.00,90.43,0
60.00,87.85,0
102.00,85.30,0
57.00,83.20,0
59.00,81.12,0
43.00,78.67,0
66.00,75.95,0
56.00,73.28,0
67.00,70.85,0
63.00,68.76,0
81.00,67.16,0
74.00,66.19,0
86.00,65.87,0
59.00,65.96,0
83.00,66.23,0
146.00,67.30,0
78.00,69.62,0
108.00,72.48,0
87.00,75.40,0
86.00,78.17,0
99.00,80.65,0
137.00,83.34,0
100.00,86.55,0
74.00,89.51,0
72.00,91.46,0
84.00,92.41,0
77.00,92.70,0
127.00,92.88,0
76.00,93.30,0
53.00,93.29,0
48.00,92.10,0
64.00,89.91,0
74.00,87.34,0
68.00,84.81,0
53.00,82.27,0
45.00,79.42,0
38.00,76.12,0
66.00,72.65,0
41.00,69.36,0
64.00,66.31,0
91.00,63.95,0
72.00,62.67,0
68.00,62.13,0
81.00,62.05,0
58.00,62.33,0
88.00,62.83,0
97.00,63.87,0
147.00,66.08,0
141.00,69.97,0
113.00,75.10,0
84.00,80.23,0
85.00,84.51,0
125.00,88.09,0
118.00,91.65,0
84.00,95.01,0
101.00,97.62,0
82.00,99.42,0
106.00,100.56,0
73.00,101.15,0
81.00,101.00,0
70.00,100.06,0
72.00,98.46,0
60.00,96.26,0
77.00,93.63,0
108.00,91.19,0
66.00,89.29,0
50.00,87.29,0
40.00,84.59,0
59.00,81.30,0
64.00,77.95,0
45.00,74.74,0
69.00,71.68,0
65.00,69.03,0
62.00,66.90,0
77.00,65.26,0
102.00,64.49,0
81.00,64.76,0
109.00,65.90,0
90.00,67.81,0
132.00,70.49,0
71.00,73.71,0
109.00,76.89,0
90.00,79.89,0
123.00,82.94,0
112.00,86.21,0
147.00,89.92,0
84.00,93.82,0
90.00,97.03,0
78.00,99.08,0
130.00,100.47,0
58.00,101.48,0
81.00,101.60,0
62.00,100.66,0
72.00,98.91,0
45.00,96.39,0
76.00,93.25,0
70.00,89.99,0
44.00,86.69,0
48.00,83.02,0
44.00,79.01,0
43.00,74.83,0
64.00,70.78,0
65.00,67.31,0
69.00,64.62,0
74.00,62.74,0
85.00,61.72,0
73.00,61.53,0
96.00,62.05,0
114.00,63.53,0
101.00,66.05,0
90.00,69.15,0
102.00,72.38,0
70.00,75.46,0
99.00,78.12,0
102.00,80.61,0
103.00,83.20,0
125.00,86.00,0
86.00,88.90,0
118.00,91.60,0
63.00,93.81,0
136.00,95.52,0
77.00,97.07,0
72.00,98.04,0
96.00,98.15,0
103.00,98.03,0
80.00,97.85,0
114.00,97.59,0
56.00,97.18,0
76.00,96.16,0
90.00,94.67,0
65.00,93.06,0
67.00,91.13,0
79.00,88.95,0
56.00,86.67,0
69.00,84.23,0
108.00,82.08,0
79.00,80.76,0
79.00,79.93,0
70.00,79.19,0
127.00,78.88,0
90.00,79.46,0
160.00,81.12,0
84.00,83.79,0
84.00,86.45,0
89.00,88.43,0
127.00,90.23,0
80.00,92.11,0
158.00,94.17,0
90.00,96.63,0
85.00,98.80,0
93.00,100.10,0
82.00,100.70,0
84.00,100.65,0
108.00,100.24,0
64.00,99.63,0
74.00,98.43,0
105.00,96.88,0
92.00,95.61,0
49.00,94.27,0
45.00,92.09,0
60.00,89.05,0
38.00,85.46,0
64.00,81.56,0
69.00,77.85,0
57.00,74.59,0
36.00,71.46,0
80.00,68.45,0
81.00,66.18,0
69.00,64.85,0
82.00,64.18,0
83.00,64.16,0
65.00,64.61,0
93.00,65.35,0
80.00,66.48,0
74.00,67.84,0
103.00,69.37,0
60.00,71.05,0
68.00,72.38,0
139.00,73.77,0
94.00,76.02,0
69.00,78.50,0
73.00,80.31,0
64.00,81.33,0
58.00,81.56,0
66.00,81.08,0
37.00,79.91,0
42.00,77.88,0
54.00,75.21,0
46.00,72.31,0
46.00,69.31,0
54.00,66.32,0
51.00,63.56,0
49.00,61.04,0
89.00,59.09,0
60.00,58.02,0
89.00,57.75,0
60.00,58.10,0
123.00,59.19,0
76.00,61.22,0
63.00,63.52,0
59.00,65.33,0
85.00,66.74,0
69.00,68.07,0
71.00,69.26,0
71.00,70.20,0
84.00,71.05,0
69.00,71.90,0
119.00,72.97,0
88.00,74.65,0
72.00,76.49,0
59.00,77.77,0
63.00,78.25,0
52.00,78.00,0
57.00,77.08,0
41.00,75.55,0
59.00,73.52,0
38.00,71.17,0
52.00,68.58,0
48.00,65.92,0
43.00,63.30,0
42.00,60.67,0
60.00,58.21,0
53.00,56.19,0
47.00,54.56,0
97.00,53.54,0
54.00,53.42,0
48.00,53.67,0
76.00,53.94,0
64.00,54.55,0
72.00,55.50,0
78.00,56.75,0
74.00,58.32,0
61.00,59.95,0
70.00,61.41,0
91.00,62.90,0
68.00,64.60,0
139.00,66.77,0
63.00,69.60,0
74.00,72.24,0
54.00,74.06,0
97.00,75.29,0
68.00,76.34,0
76.00,77.18,0
66.00,77.63,0
50.00,77.53,0
53.00,76.70,0
54.00,75.27,0
48.00,73.43,0
73.00,71.44,0
38.00,69.48,0
36.00,67.23,0
71.00,64.79,0
41.00,62.60,0
55.00,60.58,0
68.00,58.86,0
65.00,57.72,0
55.00,57.03,0
52.00,56.50,0
51.00,55.96,0
65.00,55.52,0
50.00,55.25,0
77.00,55.22,0
69.00,55.63,0
62.00,56.39,0
70.00,57.27,0
95.00,58.50,0
65.00,60.19,0
110.00,62.25,0
68.00,64.67,0
87.00,67.12,0
66.00,69.32,0
92.00,71.26,0
62.00,72.96,0
61.00,74.13,0
54.00,74.54,0
61.00,74.28,0
46.00,73.47,0
49.00,72.10,0
38.00,70.18,0
36.00,67.73,0
62.00,65.05,0
38.00,62.51,0
38.00,59.96,0
56.00,57.45,0
63.00,55.41,0
53.00,53.96,0
84.00,53.17,0
64.00,53.15,0
55.00,53.60,0
69.00,54.17,0
66.00,54.95,0
57.00,55.86,0
123.00,57.22,0
64.00,59.38,0
74.00,61.75,0
61.00,63.76,0
74.00,65.42,0
76.00,66.87,0
85.00,68.33,0
60.00,69.71,0
74.00,70.76,0
55.00,71.39,0
102.00,71.88,0
67.00,72.57,0
80.00,73.31,0
48.00,73.72,0
66.00,73.59,0
59.00,73.04,0
71.00,72.31,0
52.00,71.46,0
45.00,70.27,0
66.00,68.76,0
49.00,67.21,0
59.00,65.65,0
68.00,64.24,0
39.00,62.97,0
48.00,61.54,0
55.00,59.98,0
45.00,58.49,0
56.00,57.08,0
67.00,55.98,0
65.00,55.41,0
68.00,55.32,0
100.00,55.92,0
75.00,57.36,0
71.00,59.22,0
77.00,61.10,0
74.00,62.98,0
75.00,64.81,0
136.00,67.02,0
75.00,69.97,0
79.00,72.91,0
77.00,75.30,0
76.00,77.18,0
72.00,78.54,0
63.00,79.32,0
86.00,79.64,0
66.00,79.74,0
50.00,79.40,0
55.00,78.33,0
54.00,76.69,0
53.00,74.70,0
67.00,72.60,0
70.00,70.72,0
50.00,69.08,0
53.00,67.39,0
43.00,65.52,0
38.00,63.40,0
68.00,61.24,0
43.00,59.36,0
55.00,57.71,0
79.00,56.46,0
68.00,55.97,0
64.00,56.05,0
80.00,56.54,0
66.00,57.43,0
72.00,58.56,0
86.00,59.93,0
106.00,61.88,0
83.00,64.47,0
88.00,67.28,0
81.00,70.00,0
94.00,72.60,0
98.00,75.20,0
80.00,77.76,0
90.00,80.00,0
95.00,82.00,0
109.00,84.02,0
116.00,86.33,0
81.00,88.72,0
75.00,90.52,0
75.00,91.43,0
56.00,91.41,0
60.00,90.42,0
103.00,88.98,0
48.00,87.54,0
55.00,85.66,0
61.00,83.20,0
59.00,80.53,0
41.00,77.66,0
64.00,74.61,0
67.00,71.77,0
67.00,69.43,0
48.00,67.42,0
75.00,65.62,0
66.00,64.27,0
79.00,63.49,0
98.00,63.45,0
95.00,64.38,0
89.00,66.07,0
73.00,68.02,0
95.00,69.99,0
91.00,72.10,0
124.00,74.62,0
72.00,77.48,0
68.00,79.86,0
95.00,81.53,0
81.00,82.91,0
67.00,83.90,0
102.00,84.50,0
69.00,84.97,0
74.00,85.11,0
75.00,84.82,0
67.00,84.20,0
82.00,83.35,0
104.00,82.71,0
54.00,82.34,0
73.00,81.70,0
73.00,80.76,0
76.00,79.82,0
52.00,78.76,0
75.00,77.45,0
64.00,76.10,0
80.00,74.90,0
76.00,73.99,0
104.00,73.62,0
90.00,74.00,0
92.00,74.95,0
92.00,76.22,0
124.00,77.97,0
76.00,80.16,0
92.00,82.22,0
70.00,83.79,0
115.00,85.09,0
99.00,86.56,0
92.00,88.16,0
68.00,89.36,0
97.00,90.01,0
76.00,90.31,0
71.00,90.21,0
90.00,89.69,0
76.00,89.04,0
99.00,88.42,0
84.00,87.98,0
67.00,87.50,0
66.00,86.59,0
98.00,85.48,0
72.00,84.58,0
89.00,83.83,0
84.00,83.25,0
89.00,82.92,0
68.00,82.65,0
87.00,82.30,0
72.00,81.90,0
94.00,81.58,0
97.00,81.58,0
108.00,82.17,0
85.00,83.18,0
82.00,84.17,0
88.00,84.93,0
103.00,85.69,0
61.00,86.36,0
108.00,86.77,0
69.00,87.07,0
94.00,87.23,0
102.00,87.44,0
112.00,88.09,0
116.00,89.33,0
78.00,90.81,0
85.00,91.88,0
98.00,92.52,0
80.00,92.93,0
78.00,92.95,0
69.00,92.41,0
116.00,91.70,0
119.00,91.60,0
74.00,92.03,0
105.00,92.40,0
80.00,92.62,0
104.00,92.78,0
100.00,93.05,0
84.00,93.38,0
51.00,93.17,0
76.00,92.10,0
60.00,90.42,0
98.00,88.57,0
63.00,86.87,0
75.00,85.18,0
74.00,83.45,0
83.00,81.91,0
104.00,80.87,0
77.00,80.45,0
61.00,80.11,0
96.00,79.64,0
79.00,79.39,0
85.00,79.38,0
87.00,79.53,0
80.00,79.81,0
78.00,80.07,0
106.00,80.45,0
120.00,81.47,0
79.00,83.05,0
87.00,84.53,0
80.00,85.61,0
108.00,86.54,0
83.00,87.52,0
106.00,88.51,0
46.00,89.15,0
65.00,88.86,0
44.00,87.51,0
56.00,85.33,0
86.00,82.85,0
59.00,80.60,0
53.00,78.34,0
72.00,76.00,0
72.00,73.92,0
87.00,72.41,0
102.00,71.74,0
100.00,72.11,0
83.00,73.19,0
78.00,74.43,0
72.00,75.49,0
88.00,76.35,0
76.00,77.17,0
97.00,78.02,0
92.00,79.08,0
89.00,80.33,0
90.00,81.60,0
74.00,82.70,0
77.00,83.41,0
53.00,83.51,0
82.00,83.02,0
59.00,82.17,0
84.00,81.16,0
78.00,80.23,0
104.00,79.72,0
48.00,79.45,0
72.00,78.87,0
51.00,77.83,0
67.00,76.46,0
58.00,74.91,0
61.00,73.26,0
58.00,71.56,0
68.00,69.92,0
63.00,68.49,0
84.00,67.44,0
52.00,66.75,0
89.00,66.30,0
80.00,66.33,0
104.00,67.08,0
86.00,68.52,0
90.00,70.37,0
71.00,72.24,0
94.00,73.96,0
80.00,75.63,0
77.00,77.13,0
124.00,78.68,0
75.00,80.56,0
88.00,82.32,0
58.00,83.49,0
96.00,84.10,0
67.00,84.41,0
70.00,84.33,0
60.00,83.69,0
87.00,82.73,0
56.00,81.66,0
103.00,80.64,0
54.00,79.81,0
57.00,78.76,0
52.00,77.18,0
64.00,75.29,0
42.00,73.20,0
64.00,70.94,0
48.00,68.69,0
64.00,66.55,0
77.00,64.82,0
65.00,63.70,0
74.00,63.06,0
65.00,62.79,0
65.00,62.73,0
92.00,62.98,0
101.00,63.99,0
93.00,65.83,0
71.00,68.01,0
74.00,69.97,0
96.00,71.75,0
70.00,73.51,0
96.00,75.16,0
70.00,76.68,0
102.00,78.09,0
60.00,79.34,0
66.00,80.04,0
53.00,79.96,0
75.00,79.29,0
79.00,78.50,0
57.00,77.69,0
77.00,76.74,0
107.00,76.12,0
49.00,75.93,0
71.00,75.57,0
46.00,74.74,0
57.00,73.46,0
64.00,71.91,0
56.00,70.35,0
58.00,68.78,0
60.00,67.22,0
60.00,65.79,0
77.00,64.65,0
112.00,64.33,0
76.00,65.08,0
110.00,66.59,0
68.00,68.55,0
78.00,70.45,0
102.00,72.26,0
102.00,74.43,0
94.00,76.92,0
84.00,79.36,0
82.00,81.43,0
59.00,82.85,0
78.00,83.49,0
107.00,83.88,0
64.00,84.34,0
66.00,84.39,0
72.00,83.86,0
53.00,82.87,0
53.00,81.27,0
77.00,79.32,0
36.00,77.22,0
36.00,74.61,0
53.00,71.48,0
41.00,68.26,0
48.00,65.07,0
50.00,62.04,0
56.00,59.37,0
50.00,57.13,0
86.00,55.54,0
63.00,54.85,0
77.00,54.90,0
41.00,55.25,0
66.00,55.55,0
54.00,55.82,0
76.00,56.25,0
61.00,56.91,0
74.00,57.79,0
50.00,58.69,0
68.00,59.43,0
80.00,60.22,0
42.00,61.07,0
49.00,61.46,0
59.00,61.37,0
41.00,60.98,0
59.00,60.33,0
37.00,59.46,0
46.00,58.32,0
42.00,56.93,0
52.00,55.51,0
35.00,54.08,0
48.00,52.62,0
42.00,51.19,0
42.00,49.86,0
46.00,48.61,0
48.00,47.57,0
43.00,46.73,0
49.00,46.06,0
57.00,45.66,0
44.00,45.57,0
69.00,45.75,0
54.00,46.33,0
60.00,47.20,0
54.00,48.18,0
78.00,49.37,0
66.00,50.92,0
80.00,52.82,0
73.00,54.98,0
80.00,57.34,0
56.00,59.62,0
64.00,61.50,0
54.00,62.86,0
112.00,64.17,0
61.00,65.84,0
76.00,67.49,0
44.00,68.64,0
63.00,69.11,0
45.00,68.97,0
68.00,68.40,0
47.00,67.60,0
42.00,66.44,0
36.00,64.74,0
39.00,62.58,0
39.00,60.13,0
36.00,57.54,0
38.00,54.91,0
44.00,52.38,0
72.00,50.36,0
48.00,49.12,0
62.00,48.44,0
50.00,48.17,0
61.00,48.21,0
58.00,48.55,0
73.00,49.26,0
57.00,50.34,0
74.00,51.65,0
45.00,53.00,0
90.00,54.37,0
57.00,55.95,0
71.00,57.57,0
56.00,59.01,0
79.00,60.32,0
62.00,61.60,0
82.00,62.89,0
56.00,64.12,0
61.00,65.04,0
52.00,65.50,0
60.00,65.54,0
52.00,65.26,0
65.00,64.78,0
37.00,64.08,0
55.00,63.04,0
45.00,61.76,0
39.00,60.26,0
36.00,58.45,0
37.00,56.36,0
38.00,54.14,0
36.00,51.89,0
52.00,49.81,0
42.00,48.08,0
50.00,46.72,0
55.00,45.77,0
64.00,45.38,0
60.00,45.59,0
79.00,46.42,0
56.00,47.78,0
77.00,49.45,0
56.00,51.29,0
82.00,53.22,0
58.00,55.23,0
90.00,57.31,0
58.00,59.44,0
79.00,61.45,0
90.00,63.48,0
78.00,65.71,0
46.00,67.65,0
72.00,68.88,0
53.00,69.56,0
63.00,69.76,0
45.00,69.46,0
64.00,68.73,0
36.00,67.62,0
58.00,66.15,0
44.00,64.47,0
39.00,62.59,0
40.00,60.43,0
47.00,58.16,0
44.00,55.99,0
41.00,53.94,0
94.00,52.42,0
41.00,51.76,0
56.00,51.47,0
48.00,51.21,0
67.00,51.13,0
49.00,51.28,0
91.00,51.82,0
52.00,52.86,0
57.00,53.98,0
48.00,54.82,0
67.00,55.46,0
62.00,56.14,0
75.00,56.99,0
51.00,57.93,0
78.00,58.83,0
66.00,59.83,0
74.00,60.95,0
60.00,62.06,0
60.00,62.94,0
50.00,63.44,0
61.00,63.55,0
51.00,63.37,0
71.00,63.08,0
41.00,62.70,0
66.00,62.16,0
44.00,61.48,0
40.00,60.54,0
39.00,59.16,0
39.00,57.47,0
46.00,55.63,0
33.00,53.74,0
42.00,51.81,0
43.00,49.95,0
54.00,48.39,0
46.00,47.23,0
46.00,46.38,0
51.00,45.76,0
74.00,45.61,0
45.00,46.00,0
84.00,46.82,0
46.00,48.05,0
73.00,49.45,0
57.00,50.93,0
