109.00,179.17,1
66.00,180.01,1
294.00,179.07,1
460.00,181.68,1
42.00,188.06,1
233.00,193.11,1
117.00,195.71,1
370.00,198.13,1
323.00,203.21,1
185.00,210.27,1
163.00,215.75,1
160.00,218.31,1
49.00,217.40,1
58.00,212.13,1
102.00,203.21,1
243.00,193.88,1
82.00,185.91,1
136.00,178.20,1
207.00,171.08,1
148.00,165.79,1
558.00,165.06,1
80.00,170.27,1
413.00,177.96,1
364.00,188.46,1
213.00,201.42,1
147.00,212.36,1
133.00,218.90,1
154.00,221.27,1
196.00,221.00,1
50.00,218.40,1
482.00,215.62,1
115.00,215.71,1
112.00,215.46,1
53.00,211.33,1
170.00,204.39,1
119.00,196.58,1
395.00,190.80,1
128.00,188.68,1
83.00,186.90,1
42.00,182.10,1
178.00,175.30,1
354.00,170.55,1
254.00,170.78,1
87.00,173.16,1
48.00,173.18,1
149.00,170.15,1
242.00,167.08,1
394.00,167.72,1
72.00,171.80,1
107.00,174.54,1
167.00,174.59,1
245.00,174.52,1
89.00,174.87,1
106.00,173.73,1
176.00,171.07,1
93.00,167.94,1
63.00,163.51,1
186.00,158.09,1
156.00,153.63,1
163.00,150.63,1
144.00,148.54,1
147.00,146.99,1
136.00,145.70,1
368.00,146.42,1
186.00,150.91,1
89.00,156.18,1
48.00,158.42,1
168.00,157.77,1
187.00,156.77,1
59.00,155.80,1
330.00,155.16,1
687.00,161.20,1
90.00,175.34,1
219.00,189.30,1
56.00,198.46,1
294.00,204.04,1
237.00,208.81,1
63.00,212.40,1
122.00,212.10,1
127.00,208.44,1
146.00,203.06,1
142.00,196.90,1
101.00,190.09,1
521.00,185.80,1
265.00,188.05,1
41.00,192.59,1
66.00,193.02,1
215.00,190.14,1
43.00,186.11,1
46.00,179.73,1
254.00,172.15,1
48.00,165.67,1
112.00,159.07,1
112.00,151.98,1
81.00,145.01,1
50.00,137.59,1
51.00,129.31,1
218.00,121.80,1
244.00,118.11,1
109.00,118.22,1
164.00,119.56,1
61.00,120.74,1
108.00,120.88,1
56.00,119.75,1
202.00,118.42,1
73.00,117.90,1
91.00,117.24,1
132.00,116.05,1
175.00,115.71,1
218.00,117.39,1
49.00,120.25,1
190.00,122.63,1
172.00,125.35,1
140.00,128.86,1
46.00,131.38,1
71.00,131.41,1
322.00,131.30,1
64.00,133.34,1
49.00,134.59,1
183.00,133.94,1
142.00,133.62,1
178.00,134.31,1
111.00,135.43,1
58.00,135.59,1
154.00,134.38,1
60.00,132.54,1
37.00,129.33,1
73.00,124.32,1
59.00,118.40,1
68.00,112.13,1
65.00,105.81,1
126.00,100.18,1
96.00,96.01,1
137.00,93.43,1
43.00,91.80,1
127.00,90.42,1
126.00,89.88,1
50.00,90.05,1
130.00,90.15,1
354.00,92.74,1
213.00,100.44,1
121.00,110.41,1
203.00,119.78,1
126.00,128.33,1
86.00,135.06,1
46.00,138.55,1
133.00,139.17,1
154.00,138.88,1
40.00,138.04,1
198.00,136.39,1
83.00,134.93,1
202.00,134.03,1
134.00,134.05,1
100.00,134.35,1
89.00,133.64,1
112.00,131.90,1
74.00,129.41,1
37.00,125.68,1
58.00,120.40,1
87.00,114.41,1
45.00,108.35,1
60.00,102.12,1
77.00,96.02,1
84.00,90.66,1
164.00,86.97,1
83.00,85.40,1
47.00,84.51,1
127.00,83.54,1
66.00,83.08,1
77.00,82.76,1
249.00,83.67,1
208.00,88.05,1
120.00,94.96,1
56.00,101.24,1
215.00,106.36,1
61.00,111.26,1
103.00,114.93,1
52.00,116.53,1
71.00,116.18,1
46.00,114.04,1
105.00,110.86,1
96.00,107.68,1
39.00,104.47,1
87.00,100.74,1
46.00,96.71,1
74.00,92.52,1
117.00,88.86,1
40.00,86.01,1
41.00,82.96,1
54.00,79.36,1
147.00,76.44,1
123.00,75.60,1
102.00,76.56,1
182.00,78.96,1
72.00,82.62,1
172.00,86.80,1
106.00,91.42,1
204.00,96.76,1
158.00,103.17,1
86.00,109.65,1
74.00,114.29,1
52.00,116.40,1
102.00,116.46,1
97.00,115.57,1
200.00,115.17,1
136.00,116.32,1
94.00,118.02,1
157.00,119.39,1
76.00,120.48,1
70.00,120.46,1
49.00,118.64,1
70.00,115.31,1
56.00,110.97,1
88.00,106.24,1
110.00,101.96,1
86.00,98.60,1
127.00,96.16,1
61.00,94.45,1
72.00,92.67,1
81.00,90.63,1
119.00,88.99,1
213.00,89.19,1
86.00,91.64,1
88.00,94.37,1
116.00,96.46,1
53.00,97.93,1
56.00,98.10,1
105.00,97.21,1
69.00,96.09,1
127.00,95.11,1
55.00,94.35,1
166.00,93.99,1
78.00,94.46,1
82.00,95.03,1
42.00,94.65,1
93.00,93.38,1
87.00,91.92,1
51.00,90.41,1
91.00,88.57,1
64.00,86.71,1
38.00,84.54,1
40.00,81.56,1
108.00,78.47,1
46.00,76.02,1
99.00,74.12,1
76.00,72.88,1
127.00,72.65,1
91.00,73.56,1
143.00,75.58,1
70.00,78.30,1
62.00,80.64,1
37.00,81.65,1
90.00,81.59,1
85.00,81.33,1
100.00,81.43,1
76.00,81.79,1
170.00,82.86,1
78.00,85.02,1
83.00,87.24,1
80.00,88.71,1
194.00,90.50,1
136.00,93.88,1
48.00,97.60,1
60.00,99.62,1
57.00,99.71,1
58.00,98.39,1
70.00,96.13,1
136.00,94.00,1
111.00,93.02,1
58.00,92.64,1
43.00,91.51,1
206.00,90.52,1
40.00,90.89,1
107.00,91.41,1
60.00,91.38,1
46.00,90.58,1
72.00,88.83,1
62.00,86.66,1
72.00,84.35,1
110.00,82.42,1
52.00,81.07,1
128.00,80.20,1
238.00,81.40,1
46.00,85.02,1
44.00,88.05,1
112.00,89.48,1
129.00,90.90,1
40.00,92.35,1
68.00,92.69,1
90.00,92.08,1
78.00,91.27,1
135.00,90.78,1
118.00,91.27,1
44.00,92.06,1
208.00,93.03,1
77.00,95.13,1
124.00,97.59,1
44.00,99.29,1
86.00,99.75,1
161.00,99.91,1
165.00,101.47,1
53.00,103.80,1
78.00,105.03,1
199.00,105.86,1
79.00,107.59,1
80.00,108.96,1
84.00,109.07,1
55.00,108.05,1
126.00,106.34,1
46.00,104.44,1
51.00,101.77,1
82.00,98.25,1
65.00,94.65,1
59.00,91.03,1
70.00,87.36,1
56.00,83.78,1
132.00,80.90,1
51.00,79.09,1
136.00,78.16,1
39.00,77.87,1
100.00,77.66,1
177.00,78.38,1
34.00,80.38,1
70.00,81.85,1
105.00,82.57,1
40.00,83.03,1
53.00,82.60,1
37.00,81.05,1
40.00,78.58,1
98.00,75.88,1
49.00,73.68,1
89.00,71.92,1
48.00,70.49,1
136.00,69.72,1
72.00,70.07,1
81.00,71.01,1
135.00,72.44,1
94.00,74.80,1
63.00,77.31,1
149.00,79.71,1
92.00,82.65,1
75.00,85.52,1
118.00,87.85,1
97.00,90.09,1
166.00,92.76,1
117.00,96.26,1
90.00,99.79,1
75.00,102.24,1
93.00,103.47,1
46.00,103.51,1
92.00,102.41,1
76.00,100.71,1
67.00,98.66,1
74.00,96.18,1
114.00,93.83,1
71.00,92.03,1
130.00,90.81,1
223.00,91.45,1
148.00,94.91,1
160.00,100.02,1
81.00,105.14,1
105.00,109.08,1
151.00,112.12,1
78.00,114.73,1
45.00,115.83,1
54.00,114.65,1
78.00,111.86,1
127.00,108.83,1
180.00,107.17,1
174.00,107.82,1
51.00,109.55,1
55.00,109.96,1
152.00,109.21,1
54.00,108.45,1
77.00,107.07,1
47.00,104.57,1
83.00,101.31,1
113.00,98.18,1
46.00,95.48,1
185.00,93.50,1
175.00,93.77,1
59.00,95.83,1
68.00,97.20,1
105.00,97.51,1
41.00,97.16,1
109.00,96.13,1
64.00,94.84,1
218.00,94.48,1
426.00,98.84,1
61.00,108.26,1
48.00,116.78,1
156.00,121.98,1
42.00,125.21,1
52.00,125.93,1
173.00,124.96,1
216.00,125.17,1
153.00,127.47,1
175.00,130.76,1
100.00,133.92,1
166.00,136.38,1
118.00,138.28,1
73.00,139.06,1
96.00,138.02,1
74.00,135.46,1
382.00,134.24,1
86.00,136.53,1
224.00,140.19,1
75.00,143.37,1
43.00,144.48,1
97.00,142.67,1
125.00,139.55,1
206.00,137.15,1
83.00,135.91,1
114.00,134.49,1
39.00,131.86,1
45.00,127.46,1
112.00,121.88,1
40.00,116.18,1
49.00,109.99,1
86.00,103.50,1
87.00,97.69,1
118.00,93.18,1
115.00,90.29,1
58.00,88.47,1
132.00,87.16,1
59.00,86.44,1
104.00,85.95,1
71.00,85.53,1
111.00,85.34,1
51.00,85.22,1
57.00,84.54,1
41.00,82.93,1
78.00,80.77,1
41.00,78.41,1
312.00,77.93,1
85.00,81.22,1
50.00,85.44,1
223.00,89.20,1
116.00,94.17,1
198.00,100.24,1
66.00,106.33,1
105.00,111.04,1
41.00,113.56,1
40.00,113.60,1
74.00,111.48,1
103.00,108.59,1
134.00,106.22,1
131.00,105.06,1
172.00,105.41,1
63.00,106.65,1
70.00,107.10,1
81.00,106.25,1
159.00,105.32,1
106.00,105.32,1
49.00,105.30,1
102.00,104.33,1
176.00,103.69,1
88.00,104.26,1
52.00,104.59,1
67.00,103.52,1
121.00,101.82,1
59.00,100.20,1
57.00,98.10,1
69.00,95.26,1
94.00,92.34,1
38.00,89.50,1
67.00,86.35,1
44.00,82.88,1
98.00,79.58,1
203.00,78.13,1
202.00,80.30,1
64.00,84.86,1
96.00,89.05,1
122.00,92.41,1
111.00,95.64,1
135.00,98.89,1
155.00,102.51,1
122.00,106.56,1
131.00,110.50,1
339.00,115.81,1
82.00,123.39,1
69.00,129.79,1
88.00,132.89,1
96.00,133.66,1
48.00,132.54,1
41.00,129.18,1
59.00,123.94,1
107.00,118.06,1
66.00,112.48,1
59.00,106.99,1
100.00,101.63,1
75.00,96.95,1
84.00,92.96,1
44.00,89.22,1
97.00,85.65,1
118.00,83.05,1
43.00,81.44,1
80.00,79.87,1
92.00,78.47,1
114.00,77.95,1
144.00,78.81,1
99.00,81.02,1
50.00,83.26,1
186.00,85.39,1
71.00,88.27,1
203.00,91.93,1
186.00,97.16,1
152.00,103.95,1
204.00,111.43,1
159.00,119.38,1
41.00,126.13,1
68.00,129.62,1
94.00,130.21,1
61.00,128.97,1
95.00,126.30,1
65.00,122.72,1
77.00,118.43,1
90.00,113.82,1
79.00,109.32,1
43.00,104.70,1
168.00,100.47,1
102.00,97.94,1
80.00,96.51,1
53.00,94.84,1
101.00,92.80,1
75.00,90.91,1
117.00,89.51,1
39.00,88.36,1
104.00,87.04,1
190.00,86.78,1
197.00,89.31,1
51.00,93.57,1
80.00,96.83,1
87.00,98.58,1
136.00,99.86,1
159.00,101.82,1
86.00,104.41,1
83.00,106.34,1
66.00,106.91,1
68.00,106.15,1
54.00,104.18,1
96.00,101.47,1
62.00,98.61,1
40.00,95.33,1
42.00,91.17,1
49.00,86.43,1
187.00,82.68,1
79.00,81.26,1
75.00,80.97,1
205.00,81.67,1
192.00,85.12,1
127.00,90.86,1
163.00,97.27,1
57.00,103.14,1
136.00,107.60,1
174.00,111.59,1
40.00,115.26,1
207.00,118.06,1
190.00,121.59,1
91.00,125.87,1
103.00,128.89,1
75.00,130.00,1
142.00,129.80,1
226.00,130.20,1
183.00,132.62,1
117.00,135.93,1
158.00,138.70,1
127.00,140.85,1
114.00,142.17,1
49.00,141.79,1
42.00,138.89,1
70.00,133.75,1
70.00,127.49,1
42.00,120.59,1
80.00,113.30,1
93.00,106.45,1
174.00,101.36,1
124.00,98.81,1
67.00,97.65,1
41.00,96.00,1
103.00,93.65,1
80.00,91.47,1
160.00,90.29,1
171.00,91.14,1
132.00,94.02,1
106.00,97.57,1
145.00,101.08,1
58.00,104.16,1
80.00,105.87,1
85.00,106.16,1
123.00,105.95,1
48.00,105.42,1
60.00,103.82,1
177.00,102.02,1
97.00,101.51,1
70.00,101.42,1
84.00,100.65,1
72.00,99.29,1
46.00,97.23,1
49.00,94.20,1
126.00,91.01,1
107.00,88.97,1
121.00,88.28,1
82.00,88.41,1
140.00,89.09,1
40.00,89.99,1
58.00,90.00,1
110.00,89.21,1
173.00,89.41,1
135.00,91.47,1
50.00,94.10,1
121.00,95.92,1
78.00,97.19,1
134.00,98.34,1
189.00,100.39,1
48.00,103.27,1
212.00,106.15,1
93.00,109.51,1
107.00,112.62,1
73.00,114.41,1
37.00,114.35,1
112.00,112.67,1
84.00,110.51,1
60.00,108.02,1
95.00,105.02,1
42.00,101.67,1
50.00,97.64,1
56.00,92.98,1
59.00,88.19,1
84.00,83.76,1
90.00,80.25,1
86.00,77.82,1
103.00,76.44,1
84.00,75.97,1
54.00,75.78,1
152.00,75.99,1
68.00,77.16,1
121.00,78.88,1
62.00,80.66,1
78.00,82.01,1
81.00,82.80,1
47.00,83.03,1
160.00,83.23,1
83.00,84.35,1
38.00,85.42,1
78.00,85.36,1
81.00,84.77,1
43.00,83.85,1
91.00,82.51,1
76.00,81.24,1
115.00,80.56,1
360.00,82.92,1
40.00,89.22,1
47.00,95.08,1
64.00,98.02,1
119.00,99.43,1
54.00,100.15,1
50.00,99.66,1
63.00,97.79,1
42.00,94.93,1
66.00,91.38,1
86.00,87.80,1
125.00,85.18,1
164.00,84.52,1
44.00,85.35,1
89.00,85.98,1
38.00,85.75,1
74.00,84.70,1
178.00,84.12,1
146.00,85.66,1
112.00,88.84,1
49.00,91.78,1
45.00,93.07,1
100.00,92.94,1
51.00,92.21,1
91.00,91.03,1
59.00,89.53,1
94.00,87.93,1
69.00,86.42,1
49.00,84.73,1
121.00,83.03,1
61.00,81.89,1
76.00,80.96,1
153.00,80.61,1
89.00,81.56,1
142.00,83.50,1
40.00,85.63,1
140.00,87.41,1
123.00,89.53,1
157.00,92.70,1
197.00,97.29,1
46.00,102.51,1
114.00,106.42,1
253.00,110.23,1
149.00,115.84,1
123.00,121.84,1
127.00,126.69,1
228.00,131.19,1
84.00,135.79,1
44.00,138.44,1
90.00,138.03,1
158.00,136.31,1
44.00,134.21,1
146.00,131.42,1
47.00,128.11,1
108.00,124.22,1
71.00,119.92,1
52.00,115.17,1
93.00,109.96,1
54.00,104.78,1
76.00,99.66,1
164.00,95.53,1
71.00,93.16,1
156.00,92.09,1
242.00,93.40,1
50.00,97.03,1
47.00,99.80,1
78.00,100.44,1
85.00,99.99,1
65.00,98.92,1
153.00,97.88,1
74.00,97.53,1
102.00,97.38,1
58.00,96.81,1
65.00,95.51,1
156.00,94.20,1
65.00,93.74,1
131.00,93.74,1
78.00,93.99,1
88.00,94.17,1
61.00,93.80,1
77.00,92.78,1
40.00,91.04,1
46.00,88.37,1
146.00,85.73,1
100.00,84.50,1
78.00,84.29,1
61.00,83.95,1
55.00,83.03,1
50.00,81.40,1
108.00,79.64,1
159.00,79.19,1
88.00,80.48,1
67.00,82.13,1
157.00,83.79,1
202.00,87.11,1
172.00,92.84,1
83.00,99.34,1
167.00,105.17,1
189.00,111.13,1
91.00,117.26,1
43.00,121.46,1
64.00,122.61,1
67.00,121.36,1
87.00,118.75,1
160.00,116.15,1
53.00,114.14,1
36.00,111.32,1
80.00,107.20,1
52.00,102.56,1
146.00,98.37,1
92.00,95.54,1
54.00,93.40,1
39.00,90.66,1
219.00,88.47,1
38.00,88.15,1
118.00,88.41,1
109.00,88.85,1
70.00,89.61,1
91.00,90.02,1
180.00,90.93,1
66.00,92.89,1
126.00,94.94,1
131.00,97.06,1
40.00,99.01,1
84.00,99.65,1
214.00,100.33,1
66.00,102.30,1
289.00,105.66,1
142.00,111.24,1
107.00,117.42,1
110.00,122.10,1
88.00,125.03,1
134.00,126.60,1
132.00,127.64,1
95.00,128.29,1
55.00,127.66,1
98.00,125.46,1
192.00,123.30,1
100.00,122.41,1
98.00,121.74,1
158.00,120.96,1
61.00,120.29,1
114.00,119.07,1
75.00,117.21,1
124.00,115.12,1
236.00,114.37,1
168.00,116.33,1
78.00,119.34,1
89.00,121.09,1
74.00,121.15,1
206.00,120.85,1
94.00,121.42,1
72.00,121.70,1
97.00,120.66,1
42.00,118.41,1
113.00,115.21,1
104.00,112.04,1
100.00,109.41,1
72.00,106.90,1
151.00,104.72,1
311.00,105.28,1
80.00,109.30,1
43.00,112.99,1
64.00,113.95,1
64.00,112.84,1
162.00,111.18,1
149.00,110.68,1
88.00,111.17,1
149.00,111.78,1
41.00,112.08,1
160.00,111.84,1
155.00,112.22,1
213.00,114.45,1
186.00,118.70,1
86.00,123.57,1
225.00,128.00,1
60.00,132.06,1
102.00,134.46,1
63.00,134.53,1
96.00,132.82,1
172.00,130.65,1
156.00,129.62,1
107.00,129.45,1
124.00,129.11,1
57.00,127.98,1
42.00,125.19,1
111.00,120.99,1
150.00,117.21,1
94.00,114.65,1
114.00,112.66,1
110.00,110.99,1
41.00,109.14,1
45.00,106.08,1
158.00,102.63,1
144.00,100.80,1
68.00,100.33,1
106.00,99.84,1
47.00,98.87,1
272.00,98.77,1
181.00,101.84,1
184.00,107.61,1
55.00,113.44,1
170.00,117.96,1
66.00,121.29,1
543.00,126.85,1
135.00,137.58,1
154.00,149.20,1
123.00,157.78,1
260.00,164.54,1
209.00,171.28,1
64.00,176.87,1
164.00,179.39,1
39.00,178.95,1
54.00,175.13,1
42.00,167.90,1
96.00,158.77,1
62.00,149.00,1
52.00,138.88,1
46.00,128.34,1
80.00,117.93,1
64.00,108.35,1
110.00,100.11,1
45.00,93.26,1
170.00,88.04,1
74.00,84.94,1
50.00,82.82,1
152.00,81.17,1
57.00,80.64,1
70.00,80.34,1
395.00,82.35,1
55.00,88.83,1
45.00,95.36,1
91.00,99.11,1
373.00,103.65,1
277.00,112.92,1
94.00,124.63,1
160.00,134.58,1
104.00,141.97,1
39.00,146.25,1
100.00,146.93,1
71.00,145.14,1
127.00,142.02,1
84.00,138.31,1
363.00,136.37,1
47.00,137.47,1
64.00,138.05,1
122.00,136.38,1
169.00,134.54,1
176.00,133.96,1
167.00,134.79,1
64.00,135.71,1
92.00,135.10,1
75.00,132.83,1
85.00,129.42,1
209.00,126.30,1
61.00,124.43,1
102.00,122.47,1
155.00,120.40,1
70.00,118.84,1
82.00,116.84,1
47.00,113.78,1
54.00,109.58,1
55.00,104.50,1
177.00,100.00,1
94.00,97.43,1
87.00,96.00,1
96.00,94.75,1
142.00,94.15,1
67.00,94.28,1
198.00,95.18,1
89.00,97.29,1
39.00,99.10,1
86.00,99.28,1
95.00,98.66,1
45.00,97.58,1
73.00,95.66,1
65.00,93.16,1
101.00,90.69,1
45.00,88.39,1
98.00,86.11,1
45.00,83.90,1
74.00,81.60,1
128.00,79.81,1
201.00,80.21,1
68.00,82.83,1
161.00,86.20,1
44.00,89.50,1
163.00,92.45,1
53.00,95.13,1
88.00,96.98,1
87.00,97.79,1
39.00,97.66,1
127.00,96.73,1
81.00,95.93,1
261.00,96.70,1
44.00,99.46,1
48.00,101.55,1
120.00,101.92,1
88.00,101.93,1
149.00,102.25,1
190.00,103.88,1
101.00,106.89,1
196.00,110.51,1
64.00,114.21,1
261.00,118.09,1
54.00,122.42,1
225.00,126.59,1
84.00,130.42,1
72.00,132.87,1
46.00,132.59,1
260.00,131.48,1
108.00,131.87,1
95.00,132.52,1
37.00,131.38,1
36.00,127.85,1
137.00,122.97,1
80.00,118.42,1
64.00,114.02,1
63.00,109.15,1
88.00,104.12,1
127.00,99.89,1
107.00,97.08,1
46.00,94.93,1
67.00,92.36,1
155.00,90.12,1
104.00,89.41,1
130.00,89.99,1
186.00,91.99,1
37.00,94.93,1
75.00,96.79,1
40.00,96.86,1
214.00,96.76,1
181.00,98.84,1
70.00,102.48,1
58.00,105.00,1
139.00,106.11,1
121.00,107.22,1
160.00,109.00,1
51.00,110.81,1
134.00,111.80,1
70.00,112.07,1
37.00,111.13,1
76.00,108.53,1
101.00,105.36,1
88.00,102.50,1
63.00,99.74,1
65.00,96.65,1
90.00,93.45,1
137.00,91.09,1
73.00,89.90,1
120.00,89.35,1
149.00,89.79,1
80.00,91.27,1
93.00,92.71,1
131.00,94.01,1
72.00,95.43,1
82.00,96.29,1
133.00,96.82,1
99.00,97.71,1
67.00,98.45,1
81.00,98.34,1
37.00,97.21,1
48.00,94.80,1
110.00,91.83,1
47.00,89.14,1
82.00,86.52,1
78.00,84.05,1
210.00,83.11,1
57.00,84.25,1
38.00,85.32,1
60.00,84.90,1
153.00,84.35,1
93.00,84.95,1
227.00,87.27,1
156.00,91.94,1
93.00,97.70,1
42.00,102.02,1
58.00,103.87,1
44.00,103.48,1
127.00,102.02,1
139.00,101.14,1
46.00,100.87,1
71.00,99.82,1
58.00,97.75,1
48.00,94.88,1
149.00,92.06,1
62.00,90.25,1
85.00,88.86,1
40.00,87.10,1
74.00,84.86,1
81.00,82.58,1
41.00,80.40,1
46.00,77.81,1
48.00,74.76,1
42.00,71.48,1
112.00,68.64,1
55.00,66.87,1
73.00,65.76,1
72.00,64.99,1
170.00,65.47,1
102.00,67.95,1
208.00,72.39,1
152.00,78.92,1
120.00,86.51,1
244.00,94.67,1
44.00,103.14,1
93.00,109.67,1
43.00,113.26,1
85.00,114.42,1
165.00,114.64,1
191.00,116.03,1
60.00,118.28,1
84.00,119.34,1
56.00,118.51,1
72.00,116.17,1
56.00,112.67,1
39.00,108.12,1
227.00,104.07,1
54.00,102.06,1
48.00,100.32,1
41.00,97.24,1
49.00,93.15,1
67.00,88.67,1
71.00,84.42,1
241.00,82.13,1
76.00,82.88,1
127.00,85.02,1
127.00,87.61,1
44.00,90.20,1
123.00,91.97,1
156.00,93.96,1
106.00,96.85,1
79.00,99.54,1
44.00,100.83,1
86.00,100.56,1
86.00,99.52,1
402.00,100.93,1
84.00,106.74,1
92.00,113.09,1
148.00,117.60,1
72.00,120.94,1
80.00,122.57,1
44.00,122.04,1
113.00,119.91,1
251.00,118.65,1
92.00,119.61,1
127.00,121.05,1
55.00,121.45,1
37.00,119.99,1
101.00,116.81,1
47.00,112.90,1
127.00,108.84,1
98.00,105.47,1
41.00,102.42,1
181.00,99.71,1
272.00,99.98,1
268.00,105.10,1
67.00,112.77,1
93.00,118.95,1
479.00,125.77,1
40.00,135.83,1
137.00,144.74,1
121.00,150.32,1
212.00,154.47,1
365.00,160.05,1
94.00,167.57,1
320.00,174.96,1
49.00,181.26,1
48.00,183.87,1
90.00,181.71,1
109.00,176.82,1
54.00,170.22,1
56.00,161.80,1
231.00,153.34,1
59.00,146.62,1
94.00,140.33,1
94.00,133.72,1
91.00,127.36,1
118.00,121.57,1
57.00,116.32,1
106.00,111.27,1
149.00,107.21,1
197.00,105.56,1
69.00,105.90,1
174.00,106.87,1
73.00,108.12,1
323.00,110.83,1
84.00,115.88,1
70.00,120.52,1
176.00,123.38,1
102.00,125.80,1
61.00,127.12,1
96.00,126.55,1
60.00,124.50,1
57.00,121.07,1
288.00,118.29,1
113.00,118.44,1
85.00,119.61,1
54.00,119.31,1
65.00,117.26,1
239.00,115.32,1
117.00,115.50,1
69.00,116.30,1
150.00,116.41,1
79.00,116.35,1
364.00,118.01,1
106.00,122.95,1
53.00,127.83,1
38.00,129.37,1
65.00,127.84,1
142.00,125.01,1
67.00,122.16,1
162.00,119.58,1
175.00,118.35,1
94.00,118.52,1
65.00,118.26,1
164.00,117.36,1
104.00,116.90,1
127.00,116.81,1
78.00,116.48,1
134.00,115.82,1
160.00,115.68,1
128.00,116.56,1
71.00,117.41,1
117.00,117.37,1
114.00,116.92,1
48.00,115.95,1
342.00,115.96,1
49.00,118.62,1
47.00,120.75,1
96.00,120.34,1
263.00,120.21,1
198.00,122.91,1
169.00,127.76,1
43.00,132.01,1
63.00,133.47,1
64.00,132.11,1
38.00,128.59,1
42.00,123.14,1
79.00,116.60,1
201.00,111.10,1
62.00,107.74,1
286.00,106.69,1
112.00,108.54,1
88.00,111.30,1
467.00,115.95,1
64.00,124.66,1
124.00,133.11,1
174.00,139.13,1
123.00,144.02,1
124.00,147.47,1
64.00,148.80,1
167.00,148.34,1
86.00,147.09,1
123.00,145.09,1
75.00,142.13,1
194.00,139.04,1
61.00,136.42,1
164.00,133.90,1
48.00,131.16,1
38.00,127.22,1
54.00,121.45,1
132.00,115.36,1
150.00,110.79,1
86.00,107.94,1
67.00,105.42,1
127.00,102.89,1
200.00,101.89,1
81.00,102.80,1
42.00,103.43,1
407.00,105.23,1
81.00,110.88,1
245.00,118.24,1
54.00,125.08,1
150.00,130.30,1
41.00,133.23,1
43.00,133.30,1
56.00,130.43,1
47.00,125.61,1
80.00,119.68,1
90.00,113.65,1
60.00,107.96,1
118.00,102.77,1
98.00,98.70,1
103.00,95.78,1
135.00,94.03,1
45.00,93.05,1
43.00,91.44,1
40.00,88.60,1
282.00,86.87,1
44.00,88.06,1
90.00,89.85,1
100.00,90.93,1
189.00,92.71,1
64.00,95.49,1
143.00,98.24,1
127.00,101.04,1
99.00,103.92,1
54.00,105.81,1
100.00,106.27,1
139.00,106.36,1
118.00,107.01,1
81.00,107.73,1
159.00,108.35,1
46.00,108.92,1
81.00,108.48,1
37.00,106.57,1
90.00,103.61,1
129.00,100.79,1
214.00,99.97,1
86.00,101.37,1
65.00,102.82,1
37.00,102.60,1
136.00,101.31,1
104.00,100.39,1
226.00,101.11,1
220.00,104.69,1
120.00,110.46,1
69.00,115.56,1
78.00,118.39,1
93.00,119.24,1
106.00,119.01,1
210.00,119.15,1
149.00,120.90,1
150.00,123.68,1
225.00,127.27,1
155.00,132.06,1
54.00,136.20,1
170.00,138.40,1
51.00,139.17,1
44.00,137.76,1
117.00,134.24,1
49.00,129.82,1
88.00,124.68,1
58.00,118.99,1
90.00,113.16,1
179.00,108.44,1
58.00,105.47,1
76.00,102.78,1
85.00,99.79,1
112.00,97.17,1
40.00,94.85,1
70.00,92.12,1
38.00,88.79,1
79.00,85.18,1
144.00,82.43,1
83.00,81.35,1
96.00,81.19,1
69.00,81.23,1
130.00,81.59,1
66.00,82.44,1
121.00,83.52,1
62.00,84.64,1
176.00,86.19,1
75.00,88.56,1
86.00,90.84,1
45.00,91.97,1
83.00,91.92,1
50.00,90.99,1
91.00,89.53,1
78.00,88.02,1
110.00,86.92,1
46.00,86.05,1
94.00,84.99,1
76.00,83.94,1
42.00,82.74,1
122.00,81.42,1
68.00,80.66,1
75.00,80.16,1
70.00,79.51,1
194.00,79.77,1
66.00,81.67,1
38.00,83.43,1
41.00,83.51,1
199.00,83.45,1
46.00,84.66,1
102.00,86.04,1
79.00,86.96,1
164.00,88.30,1
103.00,90.62,1
84.00,93.14,1
163.00,95.57,1
187.00,99.20,1
148.00,104.34,1
120.00,109.80,1
41.00,113.86,1
145.00,116.04,1
147.00,117.81,1
120.00,119.88,1
75.00,121.30,1
72.00,121.18,1
44.00,119.25,1
48.00,115.56,1
95.00,110.86,1
158.00,106.89,1
38.00,104.05,1
61.00,100.89,1
123.00,97.49,1
90.00,94.96,1
65.00,92.94,1
137.00,91.28,1
77.00,90.44,1
72.00,89.81,1
103.00,89.04,1
75.00,88.43,1
190.00,88.70,1
86.00,90.48,1
111.00,92.75,1
396.00,97.24,1
156.00,106.16,1
228.00,117.20,1
147.00,128.00,1
86.00,137.00,1
275.00,144.20,1
81.00,150.84,1
144.00,155.70,1
49.00,157.65,1
167.00,157.28,1
42.00,155.31,1
80.00,151.36,1
86.00,145.74,1
64.00,139.25,1
63.00,131.98,1
69.00,124.24,1
78.00,116.55,1
72.00,109.29,1
61.00,102.51,1
50.00,95.98,1
105.00,90.04,1
79.00,85.36,1
98.00,81.97,1
227.00,80.83,1
139.00,83.01,1
73.00,86.71,1
105.00,89.88,1
134.00,92.76,1
178.00,96.45,1
75.00,100.72,1
100.00,104.18,1
58.00,106.12,1
135.00,106.99,1
82.00,107.50,1
50.00,107.20,1
78.00,105.58,1
99.00,103.37,1
192.00,102.15,1
70.00,102.43,1
52.00,102.42,1
65.00,100.99,1
197.00,99.69,1
61.00,99.72,1
56.00,99.54,1
59.00,98.03,1
164.00,96.43,1
91.00,95.99,1
171.00,96.77,1
172.00,99.17,1
161.00,103.33,1
88.00,107.88,1
111.00,111.48,1
125.00,114.11,1
122.00,116.33,1
182.00,118.73,1
197.00,122.30,1
243.00,127.73,1
289.00,135.69,1
150.00,145.31,1
84.00,153.37,1
49.00,157.47,1
105.00,157.74,1
66.00,155.43,1
76.00,151.10,1
116.00,145.57,1
134.00,140.21,1
75.00,135.29,1
99.00,130.24,1
44.00,124.69,1
117.00,118.87,1
230.00,114.71,1
38.00,112.86,1
105.00,111.12,1
211.00,109.92,1
89.00,110.49,1
60.00,110.97,1
39.00,109.71,1
230.00,108.17,1
89.00,108.29,1
153.00,109.43,1
58.00,110.42,1
299.00,112.23,1
39.00,115.65,1
61.00,118.05,1
187.00,118.85,1
90.00,119.87,1
124.00,120.74,1
42.00,120.54,1
133.00,119.22,1
79.00,117.46,1
40.00,114.97,1
42.00,110.95,1
84.00,105.94,1
100.00,101.20,1
192.00,98.19,1
82.00,97.33,1
291.00,98.82,1
301.00,104.69,1
109.00,114.00,1
55.00,122.05,1
204.00,127.60,1
51.00,131.84,1
55.00,133.68,1
299.00,134.47,1
128.00,137.08,1
80.00,139.79,1
107.00,140.49,1
156.00,140.08,1
166.00,139.98,1
114.00,140.25,1
213.00,140.84,1
70.00,141.68,1
194.00,142.15,1
88.00,142.32,1
87.00,141.52,1
266.00,140.59,1
54.00,140.82,1
96.00,140.22,1
53.00,137.60,1
202.00,134.38,1
170.00,132.68,1
42.00,131.82,1
120.00,129.90,1
43.00,126.83,1
196.00,123.63,1
59.00,121.19,1
80.00,118.58,1
102.00,115.33,1
100.00,112.22,1
93.00,109.41,1
114.00,106.97,1
308.00,106.76,1
105.00,109.99,1
39.00,113.41,1
72.00,114.37,1
112.00,113.76,1
208.00,113.71,1
253.00,116.37,1
289.00,122.87,1
154.00,131.92,1
56.00,139.83,1
118.00,144.38,1
54.00,145.92,1
179.00,145.60,1
152.00,145.21,1
160.00,145.42,1
223.00,146.52,1
128.00,148.59,1
54.00,149.64,1
166.00,148.80,1
62.00,146.94,1
83.00,143.75,1
78.00,139.09,1
55.00,133.37,1
207.00,127.88,1
75.00,123.98,1
121.00,120.88,1
67.00,117.69,1
60.00,113.98,1
198.00,110.57,1
177.00,109.57,1
40.00,110.08,1
148.00,110.18,1
38.00,109.70,1
107.00,108.43,1
187.00,107.52,1
59.00,107.74,1
323.00,109.55,1
86.00,113.89,1
213.00,119.29,1
84.00,124.38,1
92.00,128.03,1
68.00,129.33,1
263.00,130.10,1
136.00,132.46,1
130.00,135.36,1
42.00,136.71,1
58.00,135.41,1
77.00,131.89,1
45.00,126.96,1
58.00,120.86,1
136.00,114.68,1
180.00,110.41,1
198.00,109.27,1
82.00,110.24,1
276.00,112.60,1
117.00,116.89,1
97.00,121.29,1
178.00,124.68,1
243.00,128.88,1
48.00,133.71,1
127.00,136.80,1
123.00,138.15,1
54.00,138.11,1
249.00,137.48,1
48.00,137.42,1
143.00,136.86,1
134.00,135.76,1
282.00,136.18,1
111.00,138.68,1
280.00,142.50,1
301.00,148.74,1
52.00,156.30,1
85.00,160.89,1
304.00,163.40,1
94.00,166.41,1
116.00,168.21,1
150.00,167.94,1
68.00,166.18,1
52.00,162.12,1
80.00,155.74,1
216.00,149.28,1
70.00,144.24,1
107.00,139.47,1
44.00,133.94,1
128.00,127.98,1
127.00,122.74,1
159.00,119.19,1
356.00,119.19,1
114.00,123.43,1
176.00,128.85,1
172.00,133.99,1
239.00,139.74,1
193.00,146.44,1
90.00,152.61,1
205.00,157.03,1
41.00,159.66,1
68.00,159.29,1
80.00,155.89,1
89.00,150.75,1
42.00,144.34,1
44.00,136.48,1
61.00,127.54,1
127.00,118.95,1
117.00,112.07,1
48.00,106.53,1
484.00,104.53,1
143.00,109.13,1
120.00,116.45,1
52.00,121.75,1
38.00,123.90,1
68.00,123.08,1
179.00,121.29,1
87.00,120.17,1
38.00,118.58,1
83.00,115.47,1
274.00,113.24,1
101.00,113.87,1
130.00,115.60,1
53.00,116.52,1
198.00,116.95,1
242.00,119.13,1
244.00,124.51,1
146.00,131.72,1
153.00,138.54,1
278.00,145.19,1
84.00,152.00,1
192.00,157.41,1
150.00,161.43,1
65.00,163.75,1
336.00,165.18,1
251.00,169.01,1
45.00,173.64,1
44.00,174.59,1
324.00,173.30,1
392.00,175.58,1
60.00,181.17,1
46.00,184.01,1
73.00,181.90,1
248.00,177.92,1
76.00,174.35,1
452.00,172.91,1
121.00,175.20,1
44.00,177.25,1
100.00,175.48,1
127.00,171.40,1
262.00,167.73,1
115.00,165.74,1
138.00,163.96,1
46.00,160.79,1
247.00,157.00,1
112.00,154.32,1
206.00,152.78,1
103.00,151.75,1
127.00,150.39,1
134.00,148.45,1
114.00,146.26,1
207.00,144.47,1
71.00,143.28,1
43.00,140.85,1
166.00,137.02,1
262.00,134.83,1
70.00,135.03,1
55.00,134.49,1
148.00,132.34,1
114.00,130.18,1
162.00,128.68,1
187.00,128.45,1
123.00,129.49,1
74.00,130.18,1
102.00,129.48,1
77.00,127.59,1
91.00,124.81,1
210.00,122.44,1
135.00,121.93,1
186.00,123.02,1
110.00,124.89,1
138.00,126.68,1
134.00,128.15,1
66.00,128.93,1
55.00,127.90,1
151.00,125.59,1
138.00,123.78,1
87.00,122.56,1
53.00,120.60,1
46.00,117.07,1
331.00,114.44,1
73.00,115.13,1
65.00,116.34,1
56.00,115.54,1
61.00,113.09,1
49.00,109.35,1
208.00,105.93,1
101.00,104.51,1
291.00,105.78,1
139.00,110.07,1
145.00,115.59,1
65.00,120.05,1
127.00,122.78,1
44.00,123.78,1
254.00,124.33,1
45.00,125.58,1
165.00,126.58,1
197.00,127.88,1
44.00,129.63,1
68.00,129.56,1
158.00,128.01,1
126.00,126.81,1
50.00,125.51,1
84.00,122.92,1
137.00,119.83,1
80.00,117.13,1
56.00,114.13,1
46.00,110.03,1
211.00,106.25,1
123.00,104.76,1
210.00,105.69,1
96.00,108.18,1
40.00,110.15,1
102.00,110.29,1
108.00,109.67,1
107.00,109.08,1
88.00,108.42,1
121.00,107.67,1
79.00,106.91,1
194.00,106.72,1
281.00,109.23,1
54.00,114.26,1
129.00,118.59,1
74.00,121.15,1
109.00,122.28,1
115.00,122.45,1
268.00,123.55,1
215.00,127.46,1
77.00,132.66,1
141.00,136.42,1
90.00,138.50,1
53.00,138.55,1
87.00,136.34,1
67.00,132.57,1
44.00,127.50,1
46.00,121.10,1
110.00,114.26,1
67.00,108.03,1
124.00,102.77,1
138.00,99.13,1
62.00,96.91,1
79.00,94.83,1
93.00,92.71,1
120.00,91.22,1
131.00,90.91,1
109.00,91.74,1
227.00,94.12,1
69.00,98.05,1
116.00,101.78,1
209.00,105.46,1
61.00,109.70,1
176.00,113.49,1
168.00,117.41,1
40.00,121.08,1
93.00,122.68,1
58.00,122.17,1
88.00,120.20,1
83.00,117.35,1
122.00,114.40,1
83.00,111.77,1
112.00,109.38,1
109.00,107.39,1
51.00,105.47,1
45.00,102.64,1
51.00,98.66,1
85.00,94.29,1
207.00,91.38,1
42.00,90.64,1
123.00,90.50,1
66.00,90.34,1
92.00,90.09,1
166.00,90.36,1
108.00,91.99,1
70.00,93.92,1
135.00,95.46,1
96.00,97.07,1
95.00,98.57,1
148.00,100.05,1
220.00,102.93,1
94.00,107.34,1
64.00,111.04,1
153.00,113.26,1
72.00,114.86,1
60.00,115.22,1
77.00,113.91,1
45.00,111.27,1
61.00,107.47,1
141.00,103.58,1
48.00,100.42,1
83.00,97.35,1
124.00,94.59,1
95.00,92.89,1
107.00,92.02,1
72.00,91.46,1
124.00,91.11,1
87.00,91.20,1
118.00,91.69,1
75.00,92.32,1
52.00,92.39,1
61.00,91.37,1
339.00,91.83,1
81.00,95.97,1
137.00,101.22,1
120.00,105.80,1
183.00,110.41,1
140.00,115.45,1
86.00,119.99,1
71.00,122.62,1
399.00,125.76,1
73.00,131.79,1
70.00,137.11,1
57.00,138.83,1
169.00,138.46,1
52.00,137.28,1
143.00,135.28,1
274.00,134.35,1
102.00,135.80,1
64.00,136.89,1
43.00,135.42,1
53.00,131.44,1
81.00,125.96,1
38.00,119.67,1
49.00,112.63,1
106.00,105.55,1
146.00,100.06,1
51.00,96.30,1
76.00,92.94,1
43.00,89.33,1
70.00,85.55,1
276.00,83.65,1
142.00,85.83,1
180.00,90.79,1
134.00,96.82,1
192.00,103.51,1
133.00,110.57,1
89.00,116.79,1
249.00,122.29,1
112.00,128.21,1
189.00,133.95,1
124.00,138.95,1
88.00,142.51,1
56.00,143.42,1
89.00,141.73,1
199.00,139.34,1
128.00,138.00,1
77.00,136.81,1
52.00,134.14,1
83.00,129.84,1
117.00,125.05,1
53.00,120.33,1
50.00,115.01,1
43.00,108.76,1
42.00,101.89,1
78.00,94.99,1
101.00,89.07,1
154.00,85.23,1
129.00,83.94,1
85.00,84.31,1
95.00,85.06,1
240.00,87.07,1
55.00,90.94,1
146.00,94.97,1
199.00,99.41,1
122.00,105.02,1
82.00,110.15,1
244.00,114.79,1
98.00,120.05,1
103.00,124.57,1
149.00,127.62,1
105.00,129.91,1
81.00,130.98,1
80.00,130.32,1
166.00,128.87,1
38.00,127.22,1
81.00,124.42,1
72.00,120.43,1
383.00,118.45,1
52.00,120.42,1
78.00,122.60,1
39.00,122.24,1
168.00,120.58,1
229.00,120.32,1
105.00,122.18,1
359.00,126.17,1
161.00,133.19,1
247.00,141.79,1
126.00,150.11,1
44.00,155.95,1
70.00,157.56,1
127.00,156.14,1
44.00,152.94,1
83.00,147.92,1
163.00,142.31,1
124.00,137.75,1
96.00,133.92,1
56.00,129.66,1
67.00,124.39,1
53.00,118.27,1
121.00,112.14,1
84.00,106.91,1
88.00,102.51,1
40.00,98.27,1
42.00,93.53,1
74.00,88.47,1
44.00,83.63,1
340.00,81.33,1
132.00,83.99,1
51.00,88.67,1
43.00,91.58,1
102.00,92.73,1
196.00,94.20,1
107.00,97.18,1
140.00,100.78,1
73.00,103.99,1
115.00,106.30,1
143.00,108.23,1
50.00,109.84,1
166.00,110.82,1
55.00,111.51,1
135.00,111.73,1
83.00,111.58,1
147.00,111.48,1
117.00,111.81,1
126.00,112.55,1
67.00,113.00,1
119.00,112.72,1
70.00,111.88,1
57.00,110.15,1
47.00,107.09,1
51.00,102.90,1
72.00,98.14,1
46.00,93.27,1
102.00,88.68,1
243.00,86.34,1
188.00,88.14,1
173.00,93.16,1
70.00,98.89,1
53.00,102.99,1
62.00,104.67,1
323.00,106.61,1
93.00,111.19,1
78.00,115.85,1
226.00,119.49,1
92.00,123.45,1
178.00,127.25,1
263.00,131.80,1
131.00,137.81,1
60.00,142.65,1
146.00,144.88,1
139.00,145.84,1
74.00,145.86,1
50.00,143.79,1
75.00,139.51,1
136.00,134.42,1
186.00,130.53,1
47.00,127.84,1
44.00,124.25,1
188.00,120.06,1
114.00,117.32,1
113.00,115.74,1
133.00,114.63,1
79.00,113.78,1
78.00,112.41,1
49.00,109.99,1
121.00,106.96,1
101.00,104.36,1
142.00,102.78,1
47.00,101.76,1
168.00,100.96,1
75.00,100.80,1
100.00,100.81,1
76.00,100.38,1
167.00,100.21,1
100.00,100.98,1
137.00,102.39,1
262.00,105.37,1
84.00,110.32,1
65.00,114.53,1
130.00,116.76,1
124.00,118.30,1
186.00,120.23,1
142.00,123.00,1
93.00,125.69,1
53.00,126.72,1
81.00,125.61,1
74.00,123.00,1
51.00,119.25,1
66.00,114.46,1
84.00,109.24,1
49.00,103.99,1
53.00,98.50,1
58.00,92.83,1
105.00,87.72,1
91.00,83.90,1
101.00,81.44,1
124.00,80.33,1
86.00,80.43,1
115.00,81.24,1
108.00,82.69,1
214.00,85.56,1
92.00,90.11,1
40.00,94.21,1
58.00,96.12,1
54.00,96.11,1
60.00,94.79,1
93.00,92.86,1
95.00,91.14,1
44.00,89.53,1
154.00,88.12,1
39.00,87.38,1
84.00,86.54,1
62.00,85.25,1
93.00,83.93,1
131.00,83.30,1
50.00,83.41,1
53.00,83.09,1
51.00,81.80,1
92.00,80.16,1
75.00,78.82,1
44.00,77.56,1
59.00,75.86,1
92.00,74.17,1
71.00,73.03,1
99.00,72.49,1
109.00,72.82,1
87.00,74.01,1
177.00,76.27,1
99.00,79.95,1
79.00,83.85,1
76.00,86.80,1
137.00,89.21,1
103.00,91.84,1
56.00,94.10,1
44.00,94.85,1
114.00,94.40,1
95.00,93.98,1
75.00,93.68,1
66.00,92.92,1
259.00,93.13,1
79.00,95.71,1
44.00,98.31,1
63.00,98.94,1
114.00,98.51,1
102.00,98.17,1
52.00,97.73,1
56.00,96.32,1
98.00,94.21,1
82.00,92.25,1
91.00,90.64,1
85.00,89.29,1
134.00,88.59,1
71.00,88.64,1
92.00,88.78,1
106.00,88.94,1
130.00,89.71,1
45.00,90.73,1
124.00,91.35,1
38.00,91.53,1
112.00,91.22,1
245.00,92.17,1
78.00,95.48,1
139.00,99.31,1
174.00,103.32,1
124.00,108.00,1
52.00,111.90,1
196.00,114.67,1
105.00,117.53,1
55.00,119.62,1
135.00,120.15,1
45.00,119.63,1
55.00,117.58,1
54.00,113.85,1
167.00,109.99,1
104.00,107.49,1
68.00,105.70,1
89.00,103.55,1
44.00,100.90,1
87.00,97.72,1
60.00,94.37,1
38.00,90.73,1
114.00,87.02,1
104.00,84.39,1
78.00,82.91,1
143.00,82.38,1
56.00,82.73,1
142.00,83.55,1
60.00,84.72,1
119.00,85.96,1
173.00,87.96,1
193.00,92.02,1
82.00,97.38,1
105.00,102.04,1
53.00,105.07,1
78.00,106.28,1
49.00,105.82,1
83.00,104.10,1
37.00,101.43,1
93.00,98.12,1
82.00,94.87,1
61.00,91.89,1
42.00,88.63,1
56.00,84.86,1
75.00,81.08,1
67.00,77.79,1
42.00,74.79,1
57.00,71.75,1
60.00,68.86,1
96.00,66.64,1
54.00,65.29,1
73.00,64.40,1
170.00,64.66,1
39.00,66.50,1
122.00,68.76,1
38.00,70.87,1
100.00,72.59,1
107.00,74.34,1
121.00,76.84,1
118.00,80.08,1
214.00,84.62,1
95.00,90.61,1
118.00,96.49,1
146.00,101.71,1
108.00,106.59,1
44.00,110.13,1
68.00,111.36,1
63.00,110.60,1
63.00,108.47,1
102.00,105.68,1
85.00,102.96,1
45.00,100.11,1
70.00,96.66,1
110.00,93.27,1
93.00,90.78,1
127.00,89.39,1
42.00,88.60,1
138.00,87.95,1
63.00,87.70,1
135.00,87.91,1
88.00,88.65,1
78.00,89.50,1
88.00,89.93,1
90.00,90.12,1
144.00,90.69,1
132.00,92.35,1
40.00,94.26,1
142.00,95.52,1
182.00,97.50,1
63.00,100.51,1
95.00,102.80,1
40.00,103.55,1
108.00,103.04,1
57.00,101.82,1
131.00,100.44,1
91.00,99.46,1
40.00,98.35,1
72.00,96.25,1
169.00,94.39,1
110.00,94.18,1
80.00,94.78,1
133.00,95.44,1
97.00,96.45,1
91.00,97.49,1
71.00,97.95,1
71.00,97.57,1
90.00,96.57,1
62.00,95.20,1
142.00,93.95,1
183.00,94.28,1
159.00,96.93,1
45.00,100.27,1
95.00,102.32,1
50.00,102.84,1
76.00,102.07,1
81.00,100.43,1
113.00,98.76,1
116.00,97.72,1
116.00,97.53,1
137.00,98.17,1
141.00,99.80,1
73.00,101.82,1
102.00,103.20,1
79.00,103.78,1
92.00,103.70,1
171.00,103.79,1
37.00,104.32,1
69.00,103.85,1
68.00,102.07,1
86.00,99.74,1
97.00,97.46,1
115.00,95.77,1
40.00,94.35,1
82.00,92.44,1
97.00,90.42,1
79.00,88.83,1
97.00,87.59,1
113.00,86.95,1
44.00,86.63,1
138.00,86.32,1
72.00,86.47,1
88.00,86.78,1
103.00,87.05,1
110.00,87.73,1
133.00,89.11,1
74.00,90.94,1
72.00,92.24,1
82.00,92.65,1
127.00,92.91,1
39.00,93.13,1
101.00,92.74,1
40.00,91.70,1
116.00,90.33,1
52.00,88.97,1
67.00,87.37,1
85.00,85.50,1
46.00,83.59,1
108.00,81.73,1
109.00,80.68,1
44.00,80.28,1
261.00,81.11,1
178.00,85.23,1
139.00,91.84,1
81.00,98.26,1
127.00,103.43,1
175.00,108.15,1
76.00,112.73,1
44.00,115.55,1
168.00,116.61,1
121.00,117.70,1
97.00,118.82,1
125.00,119.39,1
45.00,119.10,1
47.00,117.11,1
98.00,113.68,1
58.00,109.78,1
91.00,105.71,1
93.00,101.88,1
92.00,98.65,1
41.00,95.56,1
48.00,91.88,1
43.00,87.54,1
85.00,83.15,1
71.00,79.41,1
66.00,76.37,1
58.00,73.69,1
135.00,71.83,1
52.00,71.20,1
42.00,70.68,1
40.00,69.41,1
89.00,67.89,1
91.00,67.05,1
45.00,66.81,1
154.00,67.19,1
125.00,69.20,1
106.00,72.70,1
79.00,76.39,1
119.00,79.84,1
82.00,83.12,1
97.00,86.00,1
57.00,88.10,1
66.00,89.06,1
122.00,89.40,1
58.00,89.76,1
144.00,90.21,1
117.00,91.40,1
42.00,92.76,1
134.00,93.49,1
73.00,94.11,1
54.00,94.24,1
78.00,93.35,1
43.00,91.67,1
50.00,89.12,1
112.00,86.35,1
63.00,84.17,1
136.00,82.82,1
44.00,82.21,1
48.00,81.27,1
201.00,80.68,1
46.00,81.67,1
66.00,82.70,1
87.00,82.93,1
134.00,83.46,1
128.00,85.11,1
163.00,88.12,1
56.00,91.71,1
77.00,94.32,1
106.00,95.78,1
143.00,97.30,1
83.00,99.17,1
119.00,100.85,1
91.00,102.19,1
84.00,103.02,1
67.00,102.93,1
50.00,101.67,1
50.00,99.14,1
53.00,95.61,1
71.00,91.64,1
80.00,87.86,1
81.00,84.66,1
93.00,82.21,1
77.00,80.47,1
82.00,79.21,1
108.00,78.52,1
195.00,79.46,1
83.00,82.35,1
39.00,85.13,1
74.00,86.37,1
44.00,86.36,1
85.00,85.51,1
87.00,84.53,1
125.00,84.17,1
75.00,84.53,1
114.00,85.22,1
79.00,86.10,1
127.00,87.22,1
62.00,88.45,1
51.00,88.96,1
234.00,89.70,1
78.00,92.24,1
78.00,95.00,1
44.00,96.24,1
69.00,95.94,1
67.00,94.59,1
79.00,92.75,1
72.00,90.75,1
63.00,88.59,1
210.00,87.39,1
118.00,88.58,1
97.00,91.05,1
176.00,93.96,1
118.00,97.75,1
69.00,101.37,1
232.00,104.80,1
132.00,109.46,1
67.00,114.03,1
96.00,116.73,1
47.00,117.42,1
52.00,116.06,1
67.00,112.98,1
127.00,109.49,1
69.00,106.44,1
172.00,104.22,1
90.00,103.25,1
81.00,102.68,1
73.00,101.53,1
85.00,99.87,1
129.00,98.39,1
168.00,98.24,1
41.00,99.08,1
144.00,99.69,1
100.00,100.41,1
73.00,101.08,1
61.00,100.78,1
78.00,99.48,1
82.00,97.67,1
38.00,95.37,1
54.00,92.23,1
68.00,88.57,1
99.00,85.24,1
92.00,82.86,1
82.00,81.32,1
44.00,79.94,1
82.00,78.33,1
189.00,77.80,1
113.00,79.57,1
98.00,82.54,1
108.00,85.51,1
56.00,88.00,1
120.00,89.79,1
74.00,91.25,1
78.00,92.19,1
83.00,92.45,1
125.00,92.63,1
56.00,92.93,1
71.00,92.62,1
38.00,91.27,1
116.00,89.39,1
112.00,88.17,1
98.00,87.95,1
63.00,87.95,1
61.00,87.39,1
54.00,86.04,1
269.00,85.79,1
73.00,88.28,1
43.00,91.06,1
69.00,92.04,1
96.00,92.03,1
66.00,91.67,1
85.00,90.96,1
118.00,90.34,1
114.00,90.48,1
124.00,91.48,1
101.00,93.05,1
88.00,94.59,1
41.00,95.25,1
191.00,95.59,1
116.00,97.14,1
60.00,99.11,1
40.00,99.60,1
123.00,98.86,1
43.00,97.74,1
43.00,95.74,1
83.00,92.81,1
64.00,89.76,1
75.00,86.84,1
57.00,83.98,1
64.00,81.12,1
61.00,78.29,1
44.00,75.45,1
64.00,72.55,1
62.00,69.88,1
58.00,67.58,1
132.00,66.16,1
78.00,66.23,1
74.00,67.09,1
54.00,67.83,1
57.00,68.13,1
109.00,68.40,1
46.00,68.99,1
123.00,69.84,1
156.00,71.89,1
122.00,75.71,1
141.00,80.58,1
41.00,85.29,1
70.00,88.47,1
78.00,90.10,1
87.00,90.95,1
39.00,90.97,1
36.00,89.63,1
109.00,87.47,1
78.00,85.68,1
43.00,84.04,1
94.00,82.14,1
59.00,80.37,1
194.00,79.74,1
60.00,80.80,1
87.00,82.25,1
50.00,82.97,1
44.00,82.68,1
60.00,81.37,1
69.00,79.60,1
129.00,78.32,1
90.00,78.21,1
120.00,79.10,1
147.00,81.10,1
124.00,84.40,1
142.00,88.55,1
117.00,93.12,1
44.00,96.99,1
82.00,99.09,1
137.00,100.25,1
127.00,101.81,1
128.00,103.93,1
48.00,105.66,1
49.00,105.75,1
86.00,104.23,1
46.00,101.83,1
127.00,99.16,1
93.00,97.09,1
34.00,95.18,1
45.00,92.27,1
51.00,88.45,1
53.00,84.27,1
36.00,79.90,1
62.00,75.49,1
62.00,71.48,1
84.00,68.30,1
129.00,66.60,1
175.00,67.39,1
80.00,70.41,1
40.00,73.48,1
75.00,75.32,1
55.00,76.25,1
133.00,77.06,1
99.00,78.60,1
73.00,80.51,1
84.00,82.02,1
98.00,83.26,1
135.00,84.89,1
59.00,86.85,1
78.00,88.20,1
180.00,89.58,1
47.00,91.69,1
64.00,93.04,1
111.00,93.36,1
56.00,93.34,1
73.00,92.69,1
40.00,91.13,1
41.00,88.54,1
66.00,85.20,1
91.00,82.02,1
41.00,79.28,1
60.00,76.50,1
77.00,73.83,1
88.00,71.85,1
74.00,70.69,1
68.00,69.98,1
110.00,69.77,1
115.00,70.65,1
168.00,73.17,1
176.00,77.85,1
209.00,84.89,1
127.00,93.42,1
87.00,101.35,1
43.00,106.86,1
38.00,109.23,1
70.00,108.97,1
121.00,107.63,1
98.00,106.45,1
54.00,105.09,1
231.00,104.20,1
78.00,105.00,1
39.00,105.65,1
125.00,104.98,1
67.00,103.94,1
127.00,102.90,1
40.00,101.69,1
72.00,99.71,1
38.00,96.73,1
39.00,92.82,1
54.00,88.17,1
72.00,83.52,1
132.00,79.96,1
117.00,78.36,1
113.00,78.52,1
164.00,80.25,1
41.00,82.90,1
94.00,84.98,1
106.00,86.52,1
208.00,89.08,1
125.00,93.43,1
112.00,98.36,1
145.00,102.93,1
44.00,106.69,1
93.00,108.71,1
90.00,109.30,1
78.00,109.03,1
129.00,108.32,1
76.00,107.60,1
69.00,106.38,1
85.00,104.40,1
39.00,101.74,1
92.00,98.46,1
64.00,95.08,1
117.00,92.16,1
81.00,90.03,1
42.00,88.08,1
64.00,85.58,1
43.00,82.60,1
66.00,79.39,1
120.00,76.77,1
54.00,75.21,1
40.00,73.76,1
92.00,72.08,1
70.00,70.86,1
63.00,70.02,1
92.00,69.45,1
88.00,69.50,1
91.00,70.20,1
80.00,71.31,1
122.00,72.88,1
169.00,75.73,1
71.00,79.78,1
57.00,83.27,1
44.00,85.04,1
90.00,85.52,1
52.00,85.34,1
74.00,84.59,1
73.00,83.48,1
128.00,82.75,1
39.00,82.51,1
56.00,81.76,1
40.00,80.07,1
109.00,78.16,1
81.00,76.92,1
71.00,76.27,1
110.00,76.00,1
117.00,76.67,1
51.00,77.92,1
98.00,78.91,1
90.00,79.83,1
109.00,81.10,1
170.00,83.34,1
40.00,86.33,1
76.00,88.45,1
136.00,89.85,1
97.00,91.63,1
90.00,93.42,1
64.00,94.51,1
131.00,95.10,1
182.00,96.60,1
65.00,99.18,1
138.00,101.58,1
40.00,103.20,1
126.00,103.85,1
87.00,104.05,1
83.00,103.92,1
49.00,102.87,1
68.00,100.72,1
43.00,97.63,1
84.00,94.02,1
44.00,90.26,1
73.00,86.44,1
83.00,82.94,1
40.00,79.84,1
75.00,76.80,1
90.00,74.27,1
50.00,72.41,1
109.00,71.08,1
71.00,70.53,1
103.00,70.70,1
122.00,71.81,1
126.00,74.19,1
38.00,76.95,1
110.00,79.08,1
215.00,82.00,1
78.00,86.61,1
93.00,91.09,1
91.00,94.41,1
107.00,96.96,1
53.00,98.65,1
55.00,98.89,1
109.00,98.04,1
44.00,96.77,1
57.00,94.70,1
101.00,92.14,1
49.00,89.69,1
107.00,87.40,1
142.00,86.11,1
41.00,85.86,1
133.00,85.79,1
141.00,86.60,1
41.00,88.13,1
46.00,88.60,1
60.00,87.61,1
113.00,86.27,1
40.00,85.09,1
57.00,83.45,1
51.00,81.13,1
152.00,79.26,1
83.00,78.84,1
66.00,79.10,1
62.00,78.96,1
63.00,78.34,1
174.00,78.27,1
131.00,80.12,1
121.00,83.47,1
92.00,87.11,1
179.00,91.00,1
39.00,95.00,1
67.00,97.56,1
117.00,98.66,1
139.00,99.88,1
208.00,102.52,1
124.00,106.78,1
74.00,110.86,1
106.00,113.41,1
56.00,114.41,1
80.00,113.85,1
42.00,111.74,1
48.00,108.18,1
50.00,103.44,1
41.00,97.96,1
80.00,92.29,1
54.00,87.03,1
80.00,82.37,1
296.00,80.35,1
142.00,82.98,1
77.00,87.67,1
162.00,92.13,1
200.00,97.47,1
181.00,104.43,1
50.00,111.32,1
88.00,115.92,1
98.00,118.25,1
36.00,118.76,1
151.00,117.87,1
226.00,117.97,1
92.00,119.89,1
163.00,122.12,1
79.00,123.89,1
80.00,124.45,1
89.00,123.46,1
51.00,121.17,1
99.00,117.80,1
39.00,113.73,1
45.00,108.70,1
129.00,103.41,1
40.00,98.80,1
42.00,94.11,1
55.00,88.91,1
89.00,84.00,1
142.00,80.61,1
58.00,78.92,1
107.00,78.04,1
131.00,78.13,1
43.00,79.03,1
43.00,79.25,1
116.00,78.82,1
65.00,78.70,1
42.00,78.38,1
86.00,77.49,1
49.00,76.42,1
39.00,74.92,1
175.00,73.81,1
45.00,74.13,1
85.00,74.82,1
131.00,75.74,1
85.00,77.51,1
85.00,79.50,1
210.00,82.22,1
151.00,87.04,1
52.00,92.49,1
165.00,97.05,1
68.00,101.03,1
43.00,103.55,1
142.00,104.48,1
67.00,104.98,1
36.00,104.47,1
89.00,102.51,1
87.00,100.12,1
89.00,97.90,1
103.00,96.02,1
68.00,94.42,1
114.00,93.00,1
73.00,91.89,1
40.00,90.49,1
63.00,88.20,1
101.00,85.75,1
127.00,84.30,1
161.00,84.70,1
108.00,86.82,1
82.00,89.35,1
75.00,91.19,1
126.00,92.53,1
47.00,93.58,1
101.00,93.93,1
91.00,93.91,1
38.00,93.44,1
93.00,92.14,1
38.00,90.27,1
43.00,87.61,1
75.00,84.34,1
51.00,81.08,1
42.00,77.72,1
80.00,74.38,1
108.00,71.95,1
68.00,70.73,1
149.00,70.72,1
121.00,72.43,1
85.00,75.27,1
108.00,78.23,1
126.00,81.43,1
76.00,84.77,1
153.00,88.07,1
135.00,91.95,1
134.00,96.46,1
40.00,100.37,1
176.00,103.24,1
66.00,105.79,1
88.00,107.51,1
231.00,109.17,1
70.00,111.97,1
123.00,114.48,1
91.00,115.97,1
38.00,116.08,1
136.00,114.82,1
53.00,113.05,1
67.00,110.51,1
70.00,107.03,1
161.00,103.90,1
96.00,102.12,1
38.00,100.63,1
119.00,98.56,1
45.00,96.39,1
64.00,93.80,1
115.00,91.10,1
83.00,89.16,1
45.00,87.43,1
72.00,85.26,1
44.00,82.70,1
246.00,81.38,1
112.00,83.07,1
133.00,86.62,1
146.00,90.79,1
135.00,95.62,1
139.00,100.72,1
52.00,105.11,1
109.00,107.86,1
64.00,109.14,1
123.00,109.47,1
79.00,109.31,1
45.00,108.26,1
75.00,105.89,1
55.00,102.63,1
60.00,98.78,1
41.00,94.37,1
75.00,89.69,1
61.00,85.24,1
65.00,81.21,1
87.00,77.76,1
47.00,74.93,1
212.00,73.55,1
101.00,74.85,1
77.00,77.42,1
49.00,79.33,1
149.00,80.83,1
186.00,83.71,1
98.00,88.25,1
56.00,92.40,1
102.00,95.08,1
66.00,96.66,1
203.00,98.28,1
119.00,101.17,1
74.00,104.28,1
38.00,105.71,1
148.00,105.73,1
59.00,105.50,1
55.00,104.48,1
37.00,101.94,1
91.00,98.45,1
264.00,96.56,1
54.00,97.47,1
57.00,98.49,1
109.00,98.29,1
113.00,98.09,1
202.00,99.14,1
435.00,104.53,1
88.00,114.80,1
78.00,124.50,1
152.00,131.01,1
87.00,135.51,1
106.00,138.02,1
89.00,138.56,1
75.00,137.34,1
152.00,135.10,1
127.00,133.12,1
120.00,131.56,1
73.00,129.66,1
49.00,126.52,1
94.00,122.14,1
60.00,117.22,1
107.00,112.25,1
84.00,107.73,1
86.00,103.71,1
48.00,99.73,1
94.00,95.70,1
74.00,92.03,1
40.00,88.52,1
113.00,85.14,1
47.00,82.34,1
40.00,79.53,1
56.00,76.27,1
39.00,72.85,1
90.00,69.69,1
230.00,68.70,1
104.00,71.11,1
51.00,74.66,1
47.00,76.98,1
135.00,78.51,1
111.00,80.63,1
119.00,83.50,1
112.00,86.74,1
75.00,89.79,1
123.00,92.32,1
247.00,95.88,1
138.00,101.64,1
52.00,107.42,1
80.00,110.93,1
52.00,112.10,1
72.00,111.38,1
105.00,109.63,1
38.00,107.32,1
58.00,103.97,1
176.00,100.71,1
47.00,98.69,1
93.00,96.89,1
40.00,94.57,1
59.00,91.60,1
83.00,88.31,1
51.00,85.16,1
56.00,81.94,1
61.00,78.64,1
78.00,75.64,1
57.00,73.13,1
45.00,70.76,1
38.00,68.14,1
75.00,65.51,1
127.00,63.96,1
95.00,64.17,1
164.00,66.16,1
79.00,69.63,1
76.00,73.25,1
87.00,76.20,1
118.00,78.97,1
148.00,82.36,1
116.00,86.58,1
84.00,90.77,1
66.00,93.85,1
96.00,95.66,1
90.00,96.75,1
89.00,97.39,1
127.00,97.92,1
117.00,98.90,1
51.00,99.78,1
42.00,99.31,1
35.00,97.03,1
155.00,94.30,1
42.00,92.31,1
39.00,90.03,1
81.00,86.99,1
172.00,84.88,1
48.00,84.41,1
74.00,84.08,1
96.00,83.47,1
74.00,83.05,1
86.00,82.72,1
73.00,82.37,1
100.00,82.12,1
96.00,82.28,1
50.00,82.50,1
144.00,82.75,1
150.00,84.25,1
100.00,87.10,1
78.00,89.93,1
110.00,92.12,1
65.00,93.74,1
73.00,94.47,1
71.00,94.22,1
76.00,93.31,1
98.00,92.19,1
68.00,91.09,1
94.00,89.96,1
85.00,88.94,1
62.00,87.92,1
68.00,86.52,1
136.00,85.36,1
90.00,85.21,1
79.00,85.56,1
59.00,85.52,1
50.00,84.71,1
213.00,84.37,1
196.00,86.87,1
78.00,91.53,1
122.00,95.97,1
196.00,100.46,1
92.00,105.56,1
137.00,110.23,1
170.00,114.56,1
157.00,119.31,1
96.00,123.78,1
211.00,127.71,1
130.00,131.83,1
101.00,135.34,1
110.00,137.17,1
58.00,137.17,1
81.00,135.17,1
93.00,131.75,1
53.00,127.43,1
76.00,122.21,1
38.00,116.20,1
38.00,109.35,1
115.00,102.42,1
84.00,96.68,1
44.00,91.82,1
108.00,87.41,1
69.00,83.89,1
92.00,81.24,1
43.00,78.99,1
150.00,77.38,1
83.00,77.11,1
94.00,77.76,1
60.00,78.42,1
54.00,78.54,1
88.00,78.14,1
221.00,79.01,1
141.00,82.61,1
204.00,88.47,1
82.00,95.21,1
67.00,100.78,1
130.00,104.54,1
158.00,107.95,1
47.00,111.05,1
42.00,112.15,1
70.00,110.94,1
41.00,108.18,1
92.00,104.50,1
50.00,100.53,1
37.00,96.05,1
205.00,92.20,1
38.00,90.23,1
88.00,88.81,1
74.00,87.17,1
41.00,85.33,1
47.00,82.78,1
81.00,79.89,1
120.00,77.77,1
73.00,76.84,1
112.00,76.74,1
124.00,77.60,1
160.00,80.00,1
124.00,83.88,1
47.00,87.82,1
98.00,90.52,1
183.00,93.10,1
159.00,97.14,1
136.00,102.27,1
111.00,107.27,1
87.00,111.20,1
63.00,113.38,1
68.00,113.58,1
88.00,112.36,1
46.00,110.10,1
110.00,107.15,1
54.00,104.00,1
50.00,100.38,1
50.00,95.99,1
156.00,92.01,1
128.00,90.00,1
83.00,89.60,1
62.00,89.28,1
45.00,88.17,1
84.00,86.35,1
46.00,84.25,1
38.00,81.63,1
111.00,78.86,1
65.00,76.85,1
173.00,76.20,1
122.00,77.60,1
145.00,80.79,1
58.00,84.43,1
132.00,87.65,1
76.00,90.49,1
111.00,92.92,1
174.00,95.60,1
99.00,99.10,1
78.00,102.20,1
65.00,103.82,1
115.00,104.27,1
55.00,104.06,1
159.00,103.63,1
60.00,103.46,1
67.00,102.76,1
50.00,100.85,1
52.00,97.85,1
98.00,94.42,1
76.00,91.37,1
83.00,88.78,1
55.00,86.33,1
89.00,83.95,1
73.00,81.89,1
66.00,80.11,1
125.00,78.84,1
134.00,78.97,1
75.00,80.32,1
80.00,81.71,1
56.00,82.46,1
48.00,82.29,1
132.00,81.78,1
127.00,82.33,1
88.00,83.96,1
124.00,85.95,1
274.00,89.67,1
99.00,95.92,1
128.00,102.47,1
67.00,107.54,1
126.00,111.05,1
155.00,113.97,1
79.00,116.67,1
89.00,118.19,1
48.00,117.98,1
64.00,115.96,1
75.00,112.67,1
41.00,108.54,1
67.00,103.64,1
57.00,98.40,1
60.00,93.16,1
79.00,88.20,1
83.00,84.00,1
44.00,80.43,1
73.00,77.07,1
49.00,73.94,1
42.00,70.88,1
80.00,67.97,1
71.00,65.77,1
106.00,64.65,1
119.00,64.98,1
83.00,66.65,1
82.00,68.74,1
62.00,70.60,1
140.00,72.55,1
156.00,75.75,1
61.00,79.93,1
70.00,83.33,1
87.00,85.54,1
38.00,86.73,1
90.00,86.85,1
45.00,86.25,1
68.00,84.98,1
39.00,83.02,1
44.00,80.35,1
59.00,77.19,1
78.00,74.22,1
37.00,71.59,1
97.00,69.29,1
48.00,67.55,1
107.00,66.48,1
41.00,65.98,1
117.00,65.94,1
112.00,66.95,1
106.00,69.20,1
84.00,72.00,1
41.00,74.34,1
72.00,75.63,1
133.00,76.74,1
105.00,78.72,1
98.00,81.27,1
85.00,83.71,1
135.00,86.14,1
149.00,89.31,1
58.00,92.82,1
105.00,95.48,1
104.00,97.42,1
65.00,98.79,1
50.00,98.91,1
93.00,97.85,1
145.00,96.96,1
51.00,96.67,1
44.00,95.66,1
97.00,93.68,1
44.00,91.41,1
44.00,88.54,1
76.00,85.16,1
68.00,81.95,1
76.00,79.18,1
73.00,76.89,1
46.00,74.81,1
138.00,73.27,1
60.00,72.84,1
44.00,72.60,1
82.00,71.92,1
57.00,71.21,1
71.00,70.53,1
89.00,70.06,1
115.00,70.40,1
58.00,71.44,1
74.00,72.39,1
94.00,73.20,1
93.00,74.33,1
55.00,75.50,1
178.00,77.04,1
56.00,79.54,1
51.00,81.62,1
77.00,82.44,1
139.00,83.19,1
40.00,84.27,1
117.00,85.08,1
106.00,86.03,1
49.00,87.03,1
57.00,87.06,1
109.00,86.46,1
37.00,85.72,1
38.00,84.16,1
55.00,81.59,1
70.00,78.73,1
45.00,75.94,1
48.00,73.03,1
40.00,69.90,1
76.00,66.89,1
78.00,64.62,1
65.00,63.22,1
74.00,62.39,1
134.00,62.56,1
120.00,64.46,1
76.00,67.50,1
88.00,70.55,1
109.00,73.53,1
106.00,76.78,1
55.00,79.82,1
48.00,81.67,1
124.00,82.64,1
137.00,84.24,1
116.00,86.91,1
81.00,89.79,1
46.00,91.67,1
70.00,92.07,1
63.00,91.39,1
70.00,90.05,1
58.00,88.20,1
102.00,86.26,1
95.00,84.89,1
95.00,84.24,1
56.00,83.78,1
78.00,83.02,1
58.00,81.92,1
170.00,81.40,1
74.00,82.23,1
100.00,83.61,1
110.00,85.06,1
186.00,87.55,1
88.00,91.26,1
87.00,94.78,1
89.00,97.22,1
42.00,98.38,1
106.00,98.32,1
116.00,98.09,1
107.00,98.34,1
74.00,98.63,1
62.00,98.20,1
56.00,96.72,1
81.00,94.49,1
71.00,92.07,1
43.00,89.38,1
139.00,86.82,1
51.00,85.08,1
44.00,83.30,1
70.00,80.92,1
70.00,78.53,1
95.00,76.64,1
44.00,75.19,1
60.00,73.60,1
39.00,71.65,1
110.00,69.84,1
54.00,68.74,1
188.00,69.00,1
44.00,70.86,1
48.00,72.60,1
51.00,73.11,1
40.00,72.64,1
80.00,71.63,1
137.00,71.27,1
110.00,72.50,1
86.00,74.70,1
62.00,76.75,1
62.00,78.01,1
86.00,78.63,1
106.00,79.32,1
123.00,80.70,1
75.00,82.62,1
66.00,84.15,1
92.00,85.00,1
78.00,85.54,1
61.00,85.67,1
132.00,85.69,1
40.00,85.88,1
44.00,85.30,1
82.00,83.78,1
65.00,82.10,1
48.00,80.25,1
98.00,78.34,1
99.00,77.14,1
147.00,77.34,1
42.00,78.54,1
88.00,79.49,1
63.00,79.91,1
39.00,79.66,1
85.00,78.71,1
102.00,77.95,1
112.00,78.11,1
181.00,79.86,1
134.00,83.56,1
91.00,88.09,1
57.00,91.70,1
67.00,93.66,1
112.00,94.55,1
49.00,94.91,1
92.00,94.53,1
93.00,93.81,1
75.00,93.08,1
86.00,92.17,1
163.00,91.81,1
42.00,92.26,1
42.00,91.94,1
56.00,90.15,1
69.00,87.65,1
56.00,84.91,1
142.00,82.69,1
37.00,81.39,1
138.00,80.65,1
102.00,80.85,1
84.00,81.86,1
63.00,82.67,1
72.00,82.88,1
73.00,82.60,1
74.00,82.08,1
156.00,82.08,1
127.00,83.61,1
137.00,86.54,1
60.00,89.72,1
96.00,92.09,1
58.00,93.39,1
54.00,93.49,1
70.00,92.42,1
78.00,90.79,1
128.00,89.47,1
54.00,88.73,1
38.00,87.48,1
62.00,85.22,1
66.00,82.57,1
60.00,79.92,1
144.00,78.00,1
62.00,77.33,1
39.00,76.81,1
58.00,75.50,1
50.00,73.70,1
176.00,72.66,1
69.00,73.37,1
100.00,74.90,1
76.00,76.43,1
97.00,77.96,1
52.00,79.20,1
147.00,80.41,1
53.00,81.97,1
87.00,83.25,1
156.00,84.64,1
75.00,86.82,1
69.00,88.70,1
162.00,90.30,1
112.00,92.72,1
221.00,96.52,1
74.00,101.42,1
38.00,105.15,1
80.00,106.39,1
42.00,105.80,1
63.00,103.72,1
62.00,100.59,1
78.00,97.08,1
64.00,93.53,1
104.00,90.30,1
37.00,87.42,1
54.00,84.26,1
40.00,80.59,1
42.00,76.59,1
59.00,72.53,1
49.00,68.77,1
73.00,65.54,1
123.00,63.55,1
97.00,63.38,1
127.00,64.82,1
82.00,67.38,1
49.00,69.90,1
57.00,71.47,1
71.00,72.23,1
146.00,73.27,1
40.00,74.98,1
98.00,76.48,1
44.00,77.40,1
123.00,78.10,1
228.00,80.36,1
93.00,85.00,1
141.00,90.30,1
48.00,94.83,1
60.00,97.60,1
61.00,98.37,1
71.00,97.77,1
87.00,96.48,1
47.00,94.72,1
91.00,92.50,1
120.00,90.64,1
60.00,89.46,1
45.00,87.96,1
86.00,85.86,1
152.00,84.48,1
118.00,84.83,1
70.00,86.09,1
69.00,86.91,1
55.00,86.83,1
94.00,86.15,1
122.00,85.81,1
157.00,86.80,1
105.00,89.16,1
145.00,92.25,1
143.00,96.00,1
64.00,99.77,1
153.00,102.84,1
151.00,106.07,1
48.00,109.19,1
69.00,110.53,1
44.00,109.78,1
38.00,107.18,1
83.00,103.32,1
42.00,98.99,1
76.00,94.44,1
71.00,90.04,1
73.00,86.12,1
43.00,82.44,1
49.00,78.65,1
38.00,74.64,1
75.00,70.77,1
80.00,67.71,1
93.00,65.86,1
87.00,65.20,1
107.00,65.64,1
132.00,67.41,1
98.00,70.41,1
54.00,73.53,1
137.00,76.30,1
129.00,79.67,1
112.00,83.80,1
72.00,87.68,1
55.00,90.30,1
41.00,91.14,1
63.00,90.39,1
178.00,89.69,1
162.00,90.99,1
76.00,93.78,1
99.00,96.22,1
94.00,97.93,1
39.00,98.67,1
48.00,97.80,1
65.00,95.56,1
42.00,92.50,1
37.00,88.64,1
40.00,84.07,1
39.00,79.11,1
40.00,74.03,1
41.00,69.04,1
70.00,64.55,1
88.00,61.23,1
70.00,59.29,1
45.00,58.12,1
74.00,57.24,1
104.00,57.14,1
70.00,58.08,1
134.00,60.02,1
95.00,63.08,1
55.00,66.46,1
62.00,69.03,1
113.00,71.12,1
49.00,73.14,1
99.00,74.82,1
166.00,77.04,1
91.00,80.50,1
77.00,83.99,1
92.00,86.64,1
149.00,89.18,1
62.00,91.90,1
127.00,94.23,1
67.00,96.05,1
51.00,96.84,1
45.00,96.00,1
72.00,93.94,1
36.00,91.13,1
36.00,87.46,1
134.00,83.78,1
92.00,81.48,1
124.00,80.70,1
43.00,80.61,1
129.00,80.68,1
91.00,81.31,1
112.00,82.61,1
159.00,84.79,1
47.00,87.59,1
168.00,90.31,1
183.00,94.07,1
119.00,99.23,1
85.00,104.06,1
132.00,107.77,1
47.00,110.29,1
94.00,111.19,1
117.00,111.10,1
104.00,110.93,1
177.00,111.29,1
44.00,112.03,1
134.00,112.19,1
78.00,111.82,1
39.00,110.56,1
63.00,107.75,1
59.00,103.90,1
38.00,99.33,1
95.00,94.46,1
68.00,90.09,1
62.00,86.21,1
74.00,82.61,1
41.00,79.21,1
60.00,75.79,1
62.00,72.53,1
112.00,70.10,1
60.00,68.81,1
51.00,67.89,1
76.00,66.92,1
137.00,66.78,1
215.00,69.15,1
61.00,73.89,1
212.00,79.58,1
57.00,85.75,1
58.00,90.78,1
51.00,93.44,1
121.00,94.71,1
40.00,95.29,1
68.00,94.81,1
61.00,93.26,1
79.00,91.22,1
136.00,89.59,1
150.00,89.54,1
91.00,90.91,1
74.00,92.30,1
46.00,92.66,1
82.00,91.91,1
103.00,90.88,1
42.00,89.83,1
65.00,88.13,1
43.00,85.71,1
43.00,82.63,1
96.00,79.42,1
45.00,76.66,1
76.00,74.20,1
53.00,71.94,1
50.00,69.76,1
91.00,67.82,1
52.00,66.44,1
126.00,65.87,1
186.00,67.29,1
124.00,71.31,1
103.00,76.45,1
84.00,81.26,1
56.00,84.93,1
97.00,87.32,1
92.00,89.08,1
118.00,90.77,1
50.00,92.17,1
51.00,92.41,1
105.00,91.66,1
40.00,90.54,1
63.00,88.75,1
39.00,86.14,1
124.00,83.50,1
70.00,81.69,1
58.00,80.28,1
77.00,78.72,1
64.00,77.22,1
154.00,76.49,1
74.00,77.11,1
112.00,78.45,1
110.00,80.24,1
68.00,82.26,1
76.00,83.74,1
106.00,84.78,1
131.00,86.23,1
170.00,88.92,1
128.00,92.98,1
60.00,97.02,1
205.00,100.62,1
55.00,104.37,1
116.00,107.33,1
129.00,109.47,1
79.00,111.21,1
46.00,111.60,1
50.00,110.02,1
52.00,106.80,1
71.00,102.67,1
55.00,98.19,1
60.00,93.53,1
48.00,88.75,1
95.00,84.25,1
68.00,80.58,1
93.00,77.80,1
69.00,75.80,1
173.00,75.11,1
68.00,76.10,1
101.00,77.72,1
125.00,79.66,1
106.00,82.26,1
82.00,85.00,1
40.00,86.82,1
71.00,87.25,1
77.00,86.83,1
114.00,86.43,1
44.00,86.16,1
173.00,86.20,1
117.00,87.60,1
140.00,90.28,1
221.00,94.44,1
228.00,101.21,1
146.00,109.82,1
96.00,117.82,1
86.00,123.49,1
86.00,126.65,1
44.00,127.36,1
82.00,125.80,1
103.00,123.02,1
116.00,120.19,1
39.00,117.15,1
76.00,113.19,1
43.00,108.36,1
147.00,103.67,1
91.00,100.21,1
57.00,97.47,1
158.00,95.16,1
47.00,93.73,1
54.00,92.08,1
84.00,89.75,1
163.00,88.19,1
56.00,87.96,1
107.00,88.03,1
46.00,87.79,1
137.00,87.48,1
72.00,87.58,1
107.00,87.98,1
53.00,88.17,1
162.00,88.51,1
99.00,89.77,1
103.00,91.59,1
254.00,94.59,1
55.00,99.24,1
105.00,103.37,1
64.00,105.80,1
72.00,106.66,1
203.00,107.18,1
94.00,108.79,1
163.00,111.00,1
75.00,113.10,1
155.00,114.82,1
42.00,115.86,1
123.00,115.81,1
45.00,114.69,1
90.00,112.53,1
48.00,109.44,1
56.00,105.47,1
143.00,101.45,1
50.00,98.29,1
104.00,95.51,1
158.00,93.68,1
55.00,93.11,1
97.00,92.61,1
130.00,92.31,1
46.00,92.36,1
69.00,91.74,1
105.00,90.63,1
253.00,91.21,1
150.00,94.94,1
136.00,100.35,1
96.00,105.42,1
91.00,109.26,1
99.00,111.67,1
44.00,112.55,1
153.00,112.32,1
246.00,113.36,1
41.00,116.09,1
110.00,117.94,1
80.00,118.27,1
42.00,117.18,1
84.00,114.52,1
81.00,111.13,1
40.00,107.22,1
50.00,102.43,1
100.00,97.38,1
70.00,92.97,1
76.00,89.16,1
246.00,87.18,1
138.00,88.64,1
66.00,91.69,1
119.00,94.19,1
54.00,95.93,1
39.00,96.27,1
205.00,96.12,1
89.00,97.28,1
52.00,98.54,1
68.00,98.39,1
89.00,97.31,1
141.00,96.48,1
72.00,96.32,1
114.00,96.31,1
47.00,95.99,1
121.00,95.29,1
42.00,94.34,1
38.00,92.50,1
122.00,90.01,1
51.00,87.90,1
124.00,86.26,1
101.00,85.48,1
39.00,85.08,1
117.00,84.41,1
143.00,84.55,1
68.00,85.77,1
83.00,86.85,1
38.00,87.04,1
52.00,86.04,1
39.00,83.91,1
99.00,81.41,1
64.00,79.31,1
128.00,78.03,1
42.00,77.47,1
74.00,76.85,1
92.00,76.16,1
205.00,76.96,1
43.00,79.53,1
137.00,82.38,1
74.00,85.07,1
151.00,87.90,1
45.00,90.62,1
91.00,92.44,1
83.00,93.32,1
74.00,93.64,1
163.00,94.04,1
85.00,95.25,1
113.00,96.71,1
72.00,97.78,1
91.00,98.24,1
42.00,97.77,1
117.00,96.59,1
47.00,95.16,1
82.00,93.35,1
45.00,91.00,1
181.00,89.13,1
152.00,89.37,1
87.00,91.34,1
63.00,93.03,1
72.00,93.60,1
44.00,93.00,1
138.00,91.93,1
114.00,91.67,1
127.00,92.51,1
62.00,93.65,1
79.00,94.14,1
124.00,94.25,1
128.00,94.98,1
149.00,96.77,1
142.00,99.63,1
156.00,103.39,1
165.00,107.95,1
41.00,112.20,1
100.00,114.58,1
76.00,115.21,1
42.00,114.31,1
72.00,111.75,1
99.00,108.46,1
42.00,104.96,1
98.00,101.15,1
83.00,97.57,1
35.00,94.08,1
48.00,89.98,1
38.00,85.28,1
37.00,80.21,1
61.00,75.13,1
76.00,70.74,1
167.00,68.19,1
43.00,67.76,1
42.00,67.63,1
141.00,67.51,1
39.00,68.19,1
178.00,69.76,1
86.00,72.63,1
106.00,76.19,1
60.00,79.33,1
62.00,81.48,1
71.00,82.51,1
40.00,82.56,1
158.00,82.42,1
60.00,83.03,1
67.00,83.59,1
109.00,83.77,1
112.00,84.41,1
48.00,85.27,1
52.00,85.24,1
58.00,84.10,1
82.00,82.52,1
55.00,80.87,1
93.00,79.30,1
68.00,78.04,1
40.00,76.73,1
125.00,75.45,1
53.00,74.82,1
105.00,74.65,1
114.00,75.17,1
57.00,76.31,1
84.00,77.23,1
103.00,78.09,1
61.00,79.06,1
143.00,80.23,1
79.00,82.00,1
75.00,83.74,1
105.00,85.06,1
46.00,85.98,1
45.00,85.83,1
104.00,84.86,1
109.00,84.32,1
66.00,84.33,1
73.00,84.14,1
74.00,83.57,1
116.00,83.16,1
150.00,83.88,1
55.00,85.55,1
91.00,86.89,1
42.00,87.34,1
36.00,86.54,1
184.00,85.53,1
67.00,85.82,1
149.00,87.07,1
118.00,89.15,1
86.00,91.67,1
80.00,93.62,1
126.00,95.08,1
109.00,96.69,1
149.00,98.79,1
151.00,101.73,1
56.00,104.81,1
73.00,106.45,1
82.00,106.52,1
89.00,105.72,1
66.00,104.31,1
103.00,102.46,1
97.00,100.72,1
70.00,99.10,1
55.00,97.00,1
71.00,94.28,1
67.00,91.27,1
97.00,88.47,1
132.00,86.66,1
68.00,85.98,1
111.00,85.75,1
47.00,85.53,1
55.00,84.67,1
99.00,83.33,1
103.00,82.51,1
122.00,82.69,1
74.00,83.58,1
48.00,84.12,1
100.00,83.98,1
127.00,84.21,1
41.00,84.86,1
66.00,84.82,1
48.00,83.80,1
77.00,82.23,1
176.00,81.45,1
127.00,82.76,1
92.00,85.34,1
78.00,87.70,1
73.00,89.24,1
100.00,90.14,1
98.00,90.91,1
90.00,91.68,1
97.00,92.34,1
55.00,92.58,1
62.00,91.93,1
97.00,90.66,1
75.00,89.44,1
70.00,88.18,1
78.00,86.72,1
119.00,85.59,1
77.00,85.16,1
38.00,84.59,1
155.00,83.90,1
66.00,84.03,1
79.00,84.37,1
82.00,84.37,1
63.00,84.11,1
150.00,84.09,1
52.00,84.73,1
61.00,85.02,1
67.00,84.42,1
148.00,84.01,1
129.00,84.99,1
64.00,86.83,1
114.00,88.42,1
61.00,89.62,1
82.00,90.19,1
133.00,90.60,1
127.00,91.87,1
112.00,93.91,1
36.00,95.56,1
74.00,95.77,1
55.00,94.73,1
71.00,92.92,1
137.00,91.22,1
43.00,90.13,1
43.00,88.51,1
116.00,86.37,1
50.00,84.58,1
78.00,82.86,1
77.00,81.14,1
88.00,79.80,1
70.00,78.81,1
53.00,77.78,1
43.00,76.22,1
138.00,74.81,1
78.00,74.55,1
137.00,75.47,1
88.00,77.31,1
52.00,79.17,1
97.00,80.35,1
70.00,81.21,1
150.00,82.37,1
90.00,84.35,1
126.00,86.84,1
73.00,89.29,1
83.00,91.13,1
60.00,91.99,1
71.00,91.85,1
74.00,90.99,1
174.00,90.59,1
104.00,91.64,1
67.00,93.12,1
40.00,93.46,1
91.00,92.59,1
61.00,91.21,1
68.00,89.46,1
37.00,87.10,1
46.00,83.98,1
69.00,80.45,1
127.00,77.68,1
37.00,75.98,1
71.00,74.43,1
65.00,72.81,1
42.00,71.17,1
117.00,69.78,1
56.00,69.16,1
75.00,68.92,1
74.00,68.77,1
120.00,69.22,1
160.00,71.21,1
84.00,74.69,1
109.00,78.50,1
80.00,81.95,1
56.00,84.56,1
116.00,86.28,1
52.00,87.54,1
111.00,88.35,1
46.00,88.68,1
53.00,88.12,1
71.00,86.61,1
66.00,84.76,1
42.00,82.57,1
88.00,80.14,1
38.00,77.76,1
108.00,75.62,1
46.00,73.98,1
68.00,72.51,1
87.00,71.21,1
100.00,70.70,1
75.00,70.98,1
177.00,72.36,1
127.00,75.65,1
87.00,79.93,1
46.00,83.40,1
38.00,85.08,1
81.00,85.21,1
155.00,85.43,1
50.00,86.43,1
114.00,87.38,1
127.00,88.56,1
70.00,90.15,1
88.00,91.32,1
71.00,91.80,1
38.00,91.35,1
139.00,90.35,1
119.00,90.20,1
40.00,90.55,1
58.00,89.93,1
173.00,89.20,1
104.00,89.90,1
43.00,90.98,1
42.00,90.70,1
71.00,89.12,1
66.00,87.04,1
46.00,84.63,1
85.00,82.01,1
37.00,79.39,1
146.00,77.29,1
49.00,76.28,1
47.00,75.39,1
131.00,74.48,1
99.00,74.71,1
134.00,76.26,1
133.00,79.06,1
81.00,82.54,1
104.00,85.77,1
94.00,88.54,1
200.00,91.80,1
79.00,95.97,1
94.00,99.71,1
90.00,102.20,1
114.00,103.92,1
81.00,105.09,1
45.00,105.15,1
77.00,103.76,1
39.00,101.22,1
156.00,98.52,1
39.00,96.43,1
67.00,94.14,1
89.00,91.45,1
119.00,89.39,1
38.00,87.89,1
101.00,86.30,1
51.00,84.63,1
124.00,83.27,1
124.00,82.99,1
57.00,83.57,1
126.00,84.26,1
101.00,85.39,1
48.00,86.53,1
99.00,86.99,1
76.00,87.11,1
189.00,87.98,1
117.00,90.45,1
127.00,93.90,1
57.00,96.95,1
141.00,99.23,1
50.00,100.89,1
72.00,101.40,1
85.00,100.74,1
94.00,99.69,1
137.00,98.98,1
93.00,98.98,1
55.00,98.84,1
69.00,97.70,1
93.00,95.97,1
97.00,94.39,1
48.00,92.83,1
79.00,90.83,1
37.00,88.31,1
103.00,85.59,1
87.00,83.42,1
71.00,81.89,1
80.00,80.58,1
63.00,79.35,1
89.00,78.22,1
68.00,77.34,1
101.00,76.80,1
49.00,76.50,1
130.00,76.45,1
125.00,77.48,1
91.00,79.58,1
92.00,81.84,1
107.00,84.02,1
66.00,85.96,1
116.00,87.53,1
103.00,89.15,1
91.00,90.84,1
99.00,92.30,1
94.00,93.52,1
93.00,94.50,1
75.00,95.05,1
53.00,94.76,1
67.00,93.45,1
53.00,91.34,1
53.00,88.58,1
95.00,85.66,1
36.00,82.91,1
73.00,80.06,1
37.00,77.06,1
67.00,73.99,1
78.00,71.27,1
41.00,69.02,1
41.00,66.70,1
141.00,64.91,1
111.00,64.98,1
71.00,66.48,1
79.00,68.17,1
124.00,70.13,1
103.00,72.85,1
78.00,75.89,1
148.00,79.06,1
162.00,83.29,1
94.00,88.44,1
108.00,93.23,1
96.00,97.13,1
83.00,100.04,1
96.00,101.91,1
41.00,102.57,1
68.00,101.69,1
101.00,99.95,1
66.00,98.10,1
80.00,96.04,1
94.00,93.94,1
40.00,91.78,1
157.00,89.84,1
56.00,88.78,1
78.00,87.92,1
56.00,86.56,1
72.00,84.83,1
42.00,82.71,1
79.00,80.29,1
55.00,77.90,1
114.00,76.02,1
175.00,75.86,1
77.00,77.73,1
87.00,80.02,1
64.00,81.72,1
158.00,83.39,1
105.00,85.91,1
66.00,88.57,1
42.00,89.96,1
112.00,90.20,1
64.00,90.13,1
105.00,89.94,1
65.00,89.63,1
61.00,88.88,1
249.00,88.97,1
39.00,91.05,1
59.00,92.81,1
77.00,93.01,1
38.00,92.14,1
45.00,90.07,1
47.00,86.96,1
52.00,83.28,1
80.00,79.63,1
128.00,77.05,1
39.00,75.65,1
62.00,74.30,1
54.00,72.61,1
105.00,71.20,1
42.00,70.30,1
79.00,69.51,1
70.00,68.84,1
106.00,68.75,1
53.00,69.18,1
127.00,70.02,1
42.00,71.24,1
50.00,71.96,1
124.00,72.33,1
56.00,73.14,1
103.00,74.15,1
40.00,74.96,1
81.00,75.27,1
128.00,75.75,1
62.00,76.92,1
52.00,77.77,1
67.00,77.78,1
126.00,77.79,1
45.00,78.24,1
57.00,78.25,1
119.00,77.97,1
40.00,77.94,1
91.00,77.75,1
71.00,77.45,1
40.00,76.92,1
41.00,75.56,1
97.00,73.83,1
82.00,72.70,1
72.00,72.20,1
68.00,71.86,1
166.00,72.31,1
153.00,74.87,1
77.00,78.88,1
89.00,82.59,1
144.00,85.98,1
100.00,89.66,1
68.00,92.89,1
104.00,95.08,1
164.00,97.24,1
38.00,99.55,1
53.00,100.42,1
96.00,99.75,1
37.00,98.26,1
87.00,96.00,1
77.00,93.48,1
47.00,90.86,1
82.00,87.95,1
42.00,84.92,1
50.00,81.60,1
47.00,77.94,1
71.00,74.35,1
68.00,71.29,1
77.00,68.95,1
41.00,67.08,1
82.00,65.42,1
166.00,65.07,1
48.00,66.48,1
88.00,68.26,1
81.00,69.87,1
57.00,71.32,1
108.00,72.57,1
46.00,73.76,1
40.00,74.20,1
64.00,73.65,1
137.00,73.31,1
38.00,73.74,1
96.00,74.18,1
51.00,74.38,1
67.00,74.26,1
206.00,74.95,1
99.00,77.80,1
90.00,81.48,1
90.00,84.63,1
52.00,86.88,1
42.00,87.66,1
42.00,86.82,1
68.00,84.90,1
88.00,82.83,1
40.00,80.86,1
77.00,78.72,1
112.00,77.01,1
58.00,76.14,1
50.00,75.25,1
126.00,74.44,1
75.00,74.48,1
86.00,75.05,1
80.00,75.70,1
112.00,76.66,1
163.00,78.73,1
92.00,82.09,1
115.00,85.75,1
80.00,89.02,1
140.00,91.99,1
66.00,94.73,1
127.00,96.97,1
127.00,99.17,1
50.00,101.13,1
87.00,101.86,1
60.00,101.39,1
98.00,100.19,1
114.00,99.03,1
52.00,98.00,1
104.00,96.64,1
52.00,94.98,1
48.00,92.71,1
73.00,89.73,1
53.00,86.54,1
107.00,83.61,1
56.00,81.30,1
77.00,79.30,1
77.00,77.53,1
80.00,76.20,1
99.00,75.44,1
81.00,75.34,1
69.00,75.50,1
35.00,75.22,1
79.00,74.33,1
55.00,73.24,1
87.00,72.28,1
125.00,72.08,1
106.00,73.21,1
63.00,74.97,1
94.00,76.52,1
99.00,78.07,1
42.00,79.42,1
79.00,79.98,1
113.00,80.36,1
88.00,81.24,1
77.00,82.26,1
57.00,82.77,1
101.00,82.85,1
44.00,82.66,1
46.00,81.74,1
74.00,80.07,1
40.00,78.08,1
51.00,75.67,1
142.00,73.69,1
98.00,73.36,1
91.00,74.23,1
63.00,75.28,1
178.00,76.86,1
113.00,79.91,1
72.00,83.53,1
96.00,86.44,1
163.00,89.32,1
139.00,93.20,1
86.00,97.43,1
130.00,101.07,1
48.00,103.75,1
95.00,105.00,1
120.00,105.43,1
87.00,105.76,1
76.00,105.57,1
114.00,104.84,1
105.00,104.20,1
90.00,103.69,1
87.00,102.95,1
53.00,101.60,1
130.00,99.89,1
37.00,98.18,1
84.00,96.01,1
40.00,93.20,1
89.00,90.07,1
109.00,87.41,1
103.00,85.89,1
90.00,85.24,1
83.00,84.95,1
75.00,84.66,1
64.00,84.10,1
137.00,83.70,1
110.00,84.34,1
121.00,85.99,1
98.00,88.13,1
99.00,90.29,1
94.00,92.16,1
50.00,93.31,1
62.00,93.20,1
60.00,91.97,1
108.00,90.37,1
122.00,89.47,1
127.00,89.79,1
106.00,91.07,1
75.00,92.45,1
61.00,93.06,1
86.00,92.78,1
56.00,91.89,1
138.00,90.94,1
72.00,90.56,1
52.00,90.04,1
57.00,88.59,1
67.00,86.48,1
60.00,84.09,1
86.00,81.75,1
52.00,79.62,1
36.00,77.23,1
70.00,74.46,1
94.00,72.13,1
109.00,71.01,1
165.00,71.75,1
117.00,74.55,1
116.00,78.49,1
99.00,82.59,1
113.00,86.51,1
54.00,89.75,1
118.00,92.06,1
164.00,94.52,1
127.00,98.00,1
99.00,101.68,1
92.00,104.57,1
42.00,105.98,1
58.00,105.47,1
44.00,103.26,1
53.00,99.79,1
68.00,95.65,1
51.00,91.31,1
160.00,87.73,1
68.00,85.75,1
54.00,84.31,1
113.00,82.82,1
61.00,81.77,1
79.00,80.86,1
99.00,80.13,1
54.00,79.66,1
103.00,79.23,1
40.00,78.77,1
103.00,78.17,1
157.00,78.48,1
41.00,79.90,1
178.00,81.78,1
76.00,84.43,1
139.00,87.53,1
199.00,91.56,1
63.00,96.57,1
53.00,100.30,1
122.00,102.23,1
47.00,103.14,1
67.00,102.76,1
123.00,101.58,1
100.00,100.74,1
102.00,100.28,1
82.00,99.81,1
64.00,98.88,1
74.00,97.24,1
60.00,95.04,1
56.00,92.28,1
69.00,89.12,1
35.00,85.66,1
51.00,81.76,1
85.00,77.93,1
56.00,74.73,1
83.00,72.14,1
50.00,70.04,1
161.00,68.98,1
71.00,69.55,1
38.00,70.51,1
77.00,70.76,1
45.00,70.57,1
118.00,70.45,1
122.00,71.35,1
99.00,73.49,1
67.00,75.89,1
67.00,77.69,1
39.00,78.47,1
78.00,78.30,1
50.00,77.61,1
60.00,76.48,1
66.00,75.04,1
111.00,73.97,1
62.00,73.60,1
72.00,73.43,1
67.00,73.13,1
52.00,72.61,1
102.00,72.07,1
42.00,71.75,1
57.00,71.13,1
55.00,70.06,1
47.00,68.69,1
66.00,67.15,1
57.00,65.71,1
82.00,64.61,1
86.00,64.18,1
120.00,64.83,1
137.00,67.03,1
88.00,70.47,1
90.00,74.09,1
57.00,77.08,1
171.00,79.90,1
101.00,83.53,1
48.00,87.02,1
64.00,88.93,1
113.00,89.83,1
138.00,91.09,1
126.00,93.32,1
84.00,95.84,1
72.00,97.62,1
42.00,97.97,1
40.00,96.62,1
56.00,93.87,1
58.00,90.39,1
43.00,86.53,1
49.00,82.33,1
65.00,78.11,1
94.00,74.58,1
48.00,71.93,1
69.00,69.67,1
49.00,67.60,1
85.00,65.87,1
69.00,64.77,1
110.00,64.54,1
86.00,65.34,1
161.00,67.47,1
60.00,70.73,1
36.00,73.49,1
112.00,75.17,1
117.00,77.09,1
119.00,79.84,1
79.00,82.88,1
73.00,85.34,1
79.00,86.91,1
48.00,87.52,1
42.00,86.88,1
84.00,85.30,1
50.00,83.44,1
53.00,81.22,1
72.00,78.73,1
56.00,76.32,1
39.00,73.81,1
54.00,71.01,1
81.00,68.43,1
48.00,66.38,1
45.00,64.46,1
38.00,62.33,1
76.00,60.28,1
42.00,58.64,1
70.00,57.36,1
165.00,57.37,1
101.00,59.63,1
216.00,64.22,1
69.00,70.56,1
102.00,76.82,1
90.00,82.04,1
120.00,86.62,1
63.00,90.48,1
142.00,93.63,1
82.00,96.47,1
49.00,98.37,1
122.00,99.05,1
119.00,99.69,1
112.00,100.80,1
65.00,101.67,1
107.00,101.86,1
135.00,102.06,1
126.00,103.00,1
71.00,104.10,1
67.00,104.25,1
47.00,103.01,1
44.00,100.33,1
47.00,96.49,1
93.00,92.28,1
81.00,88.62,1
109.00,85.93,1
44.00,83.88,1
170.00,82.58,1
69.00,82.62,1
92.00,83.23,1
116.00,84.00,1
65.00,85.01,1
218.00,86.82,1
82.00,90.15,1
116.00,93.82,1
106.00,96.97,1
73.00,99.48,1
46.00,100.56,1
88.00,100.14,1
76.00,98.96,1
97.00,97.59,1
145.00,96.75,1
96.00,96.91,1
101.00,97.46,1
107.00,98.00,1
41.00,98.11,1
97.00,97.31,1
47.00,95.81,1
40.00,93.40,1
174.00,90.98,1
46.00,89.71,1
36.00,88.28,1
127.00,86.30,1
122.00,85.35,1
103.00,85.72,1
80.00,86.54,1
91.00,87.23,1
82.00,87.71,1
176.00,88.75,1
37.00,90.50,1
93.00,91.67,1
118.00,92.35,1
88.00,93.27,1
107.00,94.19,1
89.00,95.01,1
105.00,95.72,1
148.00,96.78,1
84.00,98.41,1
64.00,99.52,1
82.00,99.51,1
46.00,98.48,1
112.00,96.81,1
79.00,95.22,1
60.00,93.59,1
57.00,91.38,1
90.00,88.86,1
60.00,86.46,1
47.00,83.91,1
98.00,81.27,1
68.00,79.16,1
52.00,77.29,1
127.00,75.80,1
44.00,75.05,1
58.00,74.27,1
84.00,73.23,1
116.00,72.86,1
87.00,73.50,1
63.00,74.48,1
89.00,75.25,1
164.00,76.70,1
87.00,79.45,1
105.00,82.58,1
58.00,85.16,1
69.00,86.70,1
96.00,87.41,1
74.00,87.82,1
121.00,88.25,1
52.00,88.70,1
56.00,88.43,1
107.00,87.54,1
70.00,86.78,1
57.00,85.84,1
62.00,84.32,1
56.00,82.33,1
37.00,79.83,1
52.00,76.79,1
40.00,73.42,1
101.00,70.35,1
78.00,68.35,1
98.00,67.53,1
38.00,67.25,1
42.00,66.59,1
92.00,65.66,1
129.00,65.72,1
144.00,67.69,1
138.00,71.57,1
156.00,76.93,1
124.00,83.22,1
68.00,89.16,1
80.00,93.52,1
101.00,96.46,1
81.00,98.49,1
171.00,100.37,1
116.00,102.94,1
75.00,105.44,1
83.00,106.73,1
130.00,107.26,1
74.00,107.55,1
77.00,107.16,1
44.00,105.57,1
40.00,102.53,1
69.00,98.42,1
218.00,95.32,1
153.00,95.30,1
40.00,96.79,1
86.00,97.36,1
88.00,97.06,1
89.00,96.52,1
48.00,95.51,1
185.00,94.64,1
57.00,94.79,1
123.00,95.26,1
219.00,96.77,1
51.00,99.78,1
90.00,102.16,1
309.00,105.05,1
247.00,111.68,1
153.00,120.99,1
124.00,129.66,1
102.00,136.11,1
55.00,139.66,1
116.00,140.46,1
90.00,139.53,1
107.00,137.53,1
94.00,134.75,1
71.00,131.21,1
109.00,127.03,1
95.00,122.82,1
158.00,119.34,1
94.00,116.92,1
83.00,114.77,1
60.00,111.97,1
96.00,108.62,1
65.00,105.10,1
102.00,101.65,1
88.00,98.63,1
45.00,95.73,1
127.00,92.89,1
191.00,91.70,1
133.00,93.07,1
143.00,96.01,1
179.00,100.01,1
89.00,104.63,1
84.00,108.32,1
62.00,110.18,1
258.00,111.81,1
52.00,114.57,1
207.00,117.59,1
69.00,120.42,1
183.00,122.95,1
198.00,126.05,1
202.00,130.68,1
215.00,136.65,1
84.00,142.59,1
113.00,146.48,1
52.00,147.56,1
123.00,146.31,1
99.00,143.81,1
53.00,140.23,1
126.00,135.60,1
85.00,130.83,1
88.00,126.05,1
39.00,120.73,1
127.00,115.11,1
131.00,110.54,1
174.00,108.09,1
90.00,107.36,1
44.00,106.55,1
186.00,105.42,1
70.00,105.10,1
116.00,105.04,1
114.00,104.95,1
152.00,105.53,1
117.00,106.91,1
56.00,108.07,1
41.00,107.59,1
52.00,105.22,1
120.00,102.13,1
129.00,99.89,1
185.00,99.53,1
44.00,100.47,1
130.00,101.20,1
116.00,101.87,1
107.00,102.90,1
80.00,103.66,1
40.00,103.35,1
121.00,102.01,1
68.00,100.51,1
97.00,98.97,1
67.00,97.25,1
95.00,95.43,1
86.00,93.72,1
64.00,92.05,1
128.00,90.57,1
91.00,89.86,1
239.00,90.89,1
64.00,93.90,1
50.00,96.54,1
129.00,97.77,1
120.00,99.01,1
121.00,100.74,1
70.00,102.29,1
166.00,103.62,1
77.00,105.16,1
56.00,105.96,1
77.00,105.25,1
205.00,104.66,1
39.00,105.10,1
144.00,105.50,1
93.00,105.78,1
41.00,105.56,1
116.00,104.30,1
99.00,102.96,1
93.00,101.91,1
73.00,100.70,1
134.00,99.53,1
56.00,98.63,1
84.00,97.41,1
110.00,96.02,1
89.00,95.04,1
36.00,93.83,1
74.00,91.74,1
78.00,89.28,1
195.00,87.98,1
160.00,89.29,1
101.00,92.43,1
128.00,95.82,1
54.00,98.62,1
119.00,100.42,1
142.00,102.05,1
72.00,103.84,1
63.00,104.64,1
101.00,104.25,1
143.00,103.88,1
43.00,103.72,1
42.00,102.39,1
80.00,99.69,1
48.00,96.39,1
66.00,92.69,1
38.00,88.60,1
69.00,84.30,1
111.00,80.61,1
76.00,78.20,1
82.00,76.64,1
58.00,75.38,1
83.00,74.25,1
49.00,73.19,1
41.00,71.80,1
73.00,70.04,1
163.00,69.29,1
168.00,71.15,1
161.00,75.73,1
127.00,81.82,1
140.00,88.35,1
38.00,94.07,1
136.00,98.21,1
57.00,101.14,1
88.00,102.80,1
67.00,103.14,1
50.00,102.24,1
66.00,100.07,1
76.00,97.24,1
60.00,94.17,1
89.00,91.08,1
75.00,88.31,1
38.00,85.57,1
100.00,82.72,1
64.00,80.33,1
81.00,78.41,1
41.00,76.56,1
54.00,74.41,1
87.00,72.27,1
105.00,71.01,1
44.00,70.54,1
51.00,69.86,1
105.00,69.11,1
89.00,69.14,1
115.00,70.18,1
73.00,71.90,1
70.00,73.57,1
57.00,74.64,1
40.00,74.81,1
135.00,74.72,1
112.00,75.67,1
84.00,77.57,1
55.00,79.22,1
86.00,80.17,1
56.00,80.57,1
49.00,80.25,1
62.00,79.14,1
46.00,77.47,1
49.00,75.32,1
224.00,74.23,1
104.00,75.95,1
41.00,78.65,1
112.00,80.57,1
40.00,81.88,1
83.00,82.43,1
74.00,82.44,1
62.00,82.14,1
94.00,81.61,1
109.00,81.47,1
40.00,81.59,1
47.00,80.93,1
185.00,80.39,1
88.00,81.50,1
101.00,83.48,1
38.00,84.93,1
180.00,86.18,1
55.00,88.03,1
42.00,89.27,1
91.00,89.13,1
82.00,88.61,1
45.00,87.77,1
38.00,85.94,1
91.00,83.45,1
71.00,81.21,1
163.00,80.10,1
114.00,80.84,1
49.00,82.37,1
66.00,83.11,1
89.00,83.14,1
53.00,82.87,1
89.00,82.27,1
92.00,81.77,1
74.00,81.55,1
89.00,81.41,1
113.00,81.63,1
77.00,82.34,1
212.00,84.12,1
98.00,87.65,1
150.00,92.05,1
82.00,96.32,1
144.00,100.17,1
164.00,104.20,1
51.00,108.15,1
44.00,110.13,1
42.00,109.45,1
96.00,107.18,1
46.00,104.22,1
104.00,100.93,1
112.00,98.12,1
127.00,96.50,1
89.00,95.86,1
93.00,95.49,1
118.00,95.30,1
45.00,95.10,1
74.00,94.13,1
60.00,92.37,1
47.00,89.98,1
95.00,87.23,1
69.00,84.78,1
154.00,83.32,1
66.00,83.13,1
109.00,83.50,1
115.00,84.32,1
169.00,86.37,1
84.00,89.52,1
43.00,92.10,1
125.00,93.43,1
98.00,94.59,1
160.00,96.32,1
90.00,98.66,1
82.00,100.67,1
89.00,101.69,1
54.00,101.71,1
131.00,101.06,1
39.00,100.15,1
95.00,98.66,1
130.00,97.24,1
91.00,96.63,1
118.00,96.52,1
71.00,96.54,1
126.00,96.56,1
92.00,96.81,1
89.00,97.09,1
46.00,96.71,1
68.00,95.29,1
68.00,93.12,1
90.00,90.82,1
176.00,89.57,1
182.00,90.85,1
37.00,93.60,1
59.00,95.20,1
40.00,94.88,1
173.00,94.07,1
165.00,94.90,1
93.00,97.32,1
88.00,99.57,1
129.00,101.28,1
103.00,102.94,1
226.00,105.44,1
51.00,108.88,1
54.00,111.05,1
132.00,111.43,1
80.00,111.32,1
90.00,110.71,1
54.00,109.18,1
117.00,107.00,1
98.00,105.00,1
159.00,103.90,1
85.00,103.77,1
43.00,103.32,1
109.00,101.87,1
52.00,99.99,1
71.00,97.60,1
117.00,95.13,1
178.00,94.11,1
69.00,94.71,1
233.00,96.59,1
112.00,100.18,1
138.00,104.51,1
92.00,108.32,1
36.00,110.57,1
67.00,110.52,1
42.00,108.59,1
48.00,105.16,1
166.00,101.60,1
54.00,99.12,1
109.00,97.13,1
96.00,95.44,1
65.00,94.03,1
264.00,93.90,1
104.00,96.44,1
44.00,99.45,1
115.00,100.99,1
73.00,101.68,1
93.00,101.77,1
57.00,101.09,1
232.00,100.86,1
68.00,102.23,1
82.00,103.60,1
148.00,104.36,1
145.00,105.82,1
94.00,107.83,1
52.00,108.97,1
178.00,109.34,1
42.00,109.73,1
119.00,109.54,1
51.00,108.52,1
44.00,106.35,1
134.00,103.42,1
76.00,100.98,1
78.00,98.80,1
40.00,96.11,1
42.00,92.55,1
103.00,88.66,1
273.00,87.12,1
111.00,89.36,1
220.00,94.02,1
123.00,100.04,1
39.00,105.48,1
90.00,108.54,1
98.00,109.90,1
72.00,110.24,1
69.00,109.43,1
60.00,107.41,1
114.00,104.81,1
145.00,102.95,1
132.00,102.58,1
56.00,102.76,1
82.00,102.18,1
40.00,100.52,1
36.00,97.54,1
68.00,93.53,1
70.00,89.40,1
101.00,85.85,1
91.00,83.33,1
68.00,81.56,1
72.00,79.98,1
128.00,78.95,1
97.00,79.08,1
161.00,80.57,1
115.00,83.46,1
48.00,86.53,1
69.00,88.32,1
166.00,89.66,1
98.00,91.84,1
93.00,94.22,1
66.00,95.80,1
104.00,96.55,1
135.00,97.31,1
40.00,98.09,1
163.00,98.57,1
44.00,99.06,1
94.00,99.01,1
67.00,98.15,1
108.00,97.04,1
139.00,96.47,1
47.00,96.43,1
38.00,95.46,1
137.00,93.72,1
74.00,92.49,1
103.00,91.71,1
90.00,91.13,1
124.00,91.06,1
78.00,91.43,1
76.00,91.63,1
87.00,91.38,1
101.00,91.06,1
70.00,90.78,1
62.00,90.07,1
65.00,88.68,1
84.00,86.98,1
93.00,85.50,1
215.00,85.59,1
42.00,87.51,1
60.00,89.04,1
96.00,89.39,1
51.00,89.20,1
74.00,88.36,1
127.00,87.49,1
61.00,87.17,1
78.00,86.74,1
84.00,86.03,1
49.00,85.08,1
59.00,83.54,1
68.00,81.55,1
103.00,79.80,1
60.00,78.60,1
38.00,77.24,1
58.00,75.25,1
99.00,73.34,1
83.00,72.26,1
116.00,72.22,1
121.00,73.41,1
73.00,75.45,1
48.00,77.12,1
134.00,78.34,1
92.00,80.05,1
128.00,82.40,1
136.00,85.47,1
162.00,89.63,1
86.00,94.34,1
43.00,97.91,1
165.00,100.17,1
193.00,103.26,1
77.00,107.38,1
56.00,110.29,1
58.00,110.88,1
43.00,109.45,1
117.00,106.90,1
62.00,104.23,1
67.00,101.29,1
296.00,99.80,1
76.00,101.45,1
141.00,104.21,1
127.00,106.88,1
40.00,108.97,1
74.00,109.28,1
102.00,108.29,1
81.00,106.93,1
200.00,106.19,1
232.00,108.02,1
99.00,112.15,1
49.00,115.54,1
116.00,116.88,1
64.00,116.87,1
164.00,116.36,1
40.00,115.70,1
42.00,113.71,1
197.00,111.09,1
145.00,110.25,1
129.00,111.07,1
85.00,112.06,1
67.00,112.13,1
275.00,112.56,1
146.00,115.49,1
269.00,120.83,1
93.00,127.32,1
79.00,132.45,1
66.00,134.59,1
209.00,135.23,1
164.00,136.62,1
43.00,137.95,1
378.00,139.59,1
41.00,143.21,1
38.00,145.34,1
72.00,143.72,1
42.00,139.57,1
36.00,133.40,1
106.00,126.14,1
40.00,118.83,1
112.00,111.81,1
164.00,106.31,1
119.00,103.24,1
89.00,101.56,1
56.00,99.84,1
37.00,97.21,1
138.00,94.19,1
38.00,91.68,1
90.00,89.26,1
189.00,87.83,1
99.00,88.55,1
42.00,89.72,1
58.00,89.62,1
171.00,89.30,1
147.00,90.62,1
92.00,93.24,1
128.00,95.95,1
174.00,99.14,1
89.00,102.97,1
62.00,105.89,1
75.00,106.99,1
36.00,106.33,1
170.00,104.93,1
68.00,104.06,1
119.00,103.47,1
87.00,102.85,1
80.00,102.05,1
42.00,100.46,1
60.00,97.77,1
126.00,94.88,1
279.00,94.44,1
98.00,97.44,1
127.00,101.49,1
196.00,105.74,1
96.00,110.56,1
113.00,114.71,1
181.00,118.22,1
66.00,121.46,1
128.00,123.55,1
65.00,124.24,1
275.00,125.06,1
341.00,129.46,1
64.00,136.99,1
118.00,143.02,1
47.00,145.75,1
93.00,145.50,1
50.00,142.82,1
175.00,139.12,1
94.00,135.79,1
47.00,132.15,1
48.00,126.95,1
90.00,120.74,1
45.00,114.26,1
43.00,107.40,1
62.00,100.23,1
82.00,93.51,1
70.00,87.76,1
64.00,82.86,1
177.00,79.50,1
328.00,80.47,1
38.00,85.78,1
44.00,90.69,1
82.00,93.14,1
80.00,94.30,1
70.00,94.64,1
103.00,94.44,1
110.00,94.35,1
88.00,94.56,1
83.00,94.64,1
58.00,94.16,1
219.00,94.13,1
92.00,95.89,1
84.00,98.09,1
79.00,99.31,1
59.00,99.43,1
62.00,98.37,1
108.00,96.72,1
90.00,95.30,1
92.00,94.22,1
58.00,93.02,1
39.00,91.08,1
118.00,88.69,1
37.00,86.52,1
85.00,84.29,1
68.00,82.09,1
46.00,79.91,1
38.00,77.24,1
67.00,74.21,1
79.00,71.53,1
77.00,69.62,1
114.00,68.75,1
41.00,68.68,1
150.00,69.21,1
124.00,71.20,1
136.00,74.77,1
127.00,79.33,1
69.00,83.97,1
123.00,87.93,1
85.00,91.34,1
125.00,94.36,1
96.00,97.10,1
108.00,99.49,1
48.00,100.98,1
56.00,100.91,1
62.00,99.34,1
50.00,96.76,1
92.00,93.69,1
144.00,91.39,1
39.00,90.09,1
108.00,88.85,1
81.00,87.74,1
36.00,86.53,1
65.00,84.56,1
170.00,83.04,1
42.00,82.84,1
51.00,82.47,1
46.00,81.01,1
80.00,79.05,1
42.00,77.00,1
64.00,74.78,1
53.00,72.46,1
39.00,70.02,1
83.00,67.62,1
165.00,66.63,1
83.00,67.78,1
136.00,70.28,1
106.00,73.69,1
38.00,77.03,1
90.00,79.26,1
69.00,80.71,1
70.00,81.60,1
39.00,81.62,1
67.00,80.71,1
177.00,80.24,1
54.00,81.19,1
46.00,81.95,1
76.00,81.66,1
37.00,80.68,1
82.00,79.18,1
123.00,78.10,1
37.00,77.72,1
134.00,77.60,1
41.00,77.80,1
283.00,79.51,1
70.00,83.81,1
45.00,88.18,1
56.00,90.36,1
44.00,90.68,1
125.00,90.14,1
117.00,90.15,1
127.00,91.19,1
182.00,93.53,1
121.00,97.30,1
100.00,101.28,1
65.00,104.14,1
92.00,105.54,1
85.00,105.88,1
86.00,105.50,1
225.00,105.71,1
158.00,108.10,1
45.00,111.21,1
96.00,112.73,1
112.00,113.03,1
127.00,113.22,1
70.00,113.23,1
63.00,112.22,1
36.00,109.67,1
54.00,105.64,1
125.00,101.32,1
48.00,97.60,1
191.00,94.96,1
222.00,95.21,1
157.00,98.80,1
83.00,103.36,1
136.00,107.20,1
284.00,111.87,1
178.00,119.02,1
41.00,126.16,1
147.00,130.78,1
129.00,133.80,1
170.00,136.42,1
72.00,138.38,1
68.00,138.43,1
96.00,136.38,1
43.00,132.82,1
84.00,127.91,1
72.00,122.28,1
52.00,116.27,1
215.00,111.09,1
193.00,109.07,1
123.00,109.91,1
80.00,111.21,1
68.00,111.43,1
111.00,110.60,1
116.00,109.67,1
112.00,109.09,1
131.00,108.95,1
318.00,110.96,1
103.00,116.03,1
100.00,121.22,1
150.00,124.90,1
84.00,127.56,1
255.00,130.11,1
262.00,134.81,1
241.00,142.36,1
94.00,150.33,1
243.00,156.98,1
66.00,162.17,1
108.00,164.75,1
56.00,164.03,1
118.00,160.84,1
113.00,156.45,1
38.00,151.06,1
242.00,145.54,1
62.00,141.34,1
252.00,138.61,1
316.00,139.25,1
46.00,142.82,1
91.00,144.93,1
92.00,144.38,1
150.00,142.68,1
180.00,141.40,1
216.00,141.77,1
301.00,144.92,1
67.00,149.86,1
173.00,153.69,1
177.00,156.40,1
330.00,160.38,1
103.00,165.89,1
104.00,169.89,1
295.00,172.32,1
148.00,175.43,1
287.00,179.25,1
101.00,183.03,1
89.00,184.60,1
37.00,182.28,1
188.00,177.38,1
134.00,172.31,1
173.00,167.95,1
116.00,164.01,1
166.00,160.32,1
117.00,156.88,1
64.00,152.91,1
86.00,147.54,1
156.00,141.82,1
68.00,136.63,1
107.00,131.46,1
87.00,126.23,1
119.00,121.39,1
162.00,117.72,1
60.00,115.21,1
46.00,112.21,1
208.00,109.19,1
65.00,107.66,1
186.00,107.27,1
77.00,107.68,1
113.00,108.17,1
42.00,107.81,1
153.00,106.87,1
113.00,106.43,1
106.00,106.60,1
214.00,107.64,1
384.00,112.50,1
273.00,122.91,1
42.00,134.79,1
84.00,143.00,1
212.00,147.98,1
154.00,152.34,1
89.00,155.65,1
125.00,156.78,1
51.00,155.68,1
55.00,152.01,1
142.00,146.66,1
275.00,142.83,1
45.00,141.28,1
170.00,139.86,1
66.00,137.87,1
89.00,135.03,1
57.00,130.89,1
48.00,125.47,1
165.00,119.84,1
164.00,116.07,1
264.00,115.68,1
186.00,118.83,1
44.00,122.92,1
202.00,125.89,1
127.00,128.75,1
119.00,131.41,1
55.00,132.55,1
66.00,131.45,1
101.00,128.64,1
127.00,125.51,1
39.00,122.23,1
99.00,118.21,1
180.00,114.69,1
110.00,112.94,1
144.00,112.37,1
306.00,114.07,1
160.00,119.18,1
187.00,125.83,1
78.00,131.78,1
83.00,135.44,1
76.00,136.40,1
41.00,134.89,1
111.00,131.47,1
54.00,127.16,1
51.00,121.91,1
84.00,115.87,1
326.00,111.96,1
107.00,112.28,1
62.00,113.80,1
57.00,113.56,1
122.00,112.08,1
143.00,110.92,1
85.00,110.46,1
43.00,109.39,1
126.00,107.40,1
142.00,105.96,1
344.00,107.60,1
108.00,113.07,1
77.00,118.76,1
218.00,123.12,1
38.00,126.92,1
131.00,129.11,1
78.00,129.62,1
113.00,129.02,1
292.00,129.24,1
147.00,132.12,1
88.00,135.52,1
343.00,139.13,1
116.00,144.65,1
196.00,150.45,1
111.00,154.99,1
71.00,157.33,1
79.00,156.64,1
161.00,154.12,1
84.00,151.11,1
136.00,147.67,1
121.00,144.11,1
78.00,140.41,1
147.00,136.45,1
65.00,132.55,1
75.00,128.10,1
108.00,123.16,1
85.00,118.44,1
90.00,113.98,1
168.00,110.40,1
288.00,109.94,1
258.00,114.28,1
97.00,121.25,1
102.00,127.12,1
78.00,130.48,1
160.00,132.16,1
109.00,133.26,1
134.00,133.92,1
412.00,136.53,1
173.00,143.33,1
198.00,151.66,1
49.00,158.08,1
74.00,160.79,1
132.00,160.26,1
67.00,157.89,1
117.00,154.02,1
153.00,149.73,1
108.00,145.91,1
248.00,143.29,1
285.00,143.94,1
46.00,146.84,1
39.00,147.62,1
122.00,145.34,1
47.00,141.50,1
145.00,136.87,1
340.00,134.43,1
135.00,136.15,1
95.00,138.79,1
153.00,140.15,1
227.00,141.74,1
183.00,144.80,1
58.00,147.72,1
123.00,148.54,1
93.00,147.51,1
117.00,145.36,1
81.00,142.30,1
311.00,140.15,1
51.00,140.12,1
207.00,140.59,1
68.00,140.71,1
104.00,139.84,1
135.00,137.94,1
85.00,135.73,1
86.00,132.78,1
103.00,129.13,1
43.00,124.84,1
97.00,119.80,1
146.00,115.17,1
42.00,111.41,1
96.00,107.56,1
290.00,105.42,1
114.00,106.87,1
156.00,110.01,1
157.00,113.59,1
274.00,118.72,1
130.00,125.62,1
37.00,131.42,1
58.00,133.63,1
38.00,132.44,1
91.00,128.97,1
64.00,124.40,1
147.00,119.83,1
60.00,115.86,1
46.00,111.58,1
161.00,107.23,1
86.00,104.14,1
103.00,101.96,1
66.00,99.89,1
107.00,97.84,1
98.00,96.17,1
70.00,94.80,1
50.00,93.00,1
82.00,90.65,1
116.00,88.58,1
59.00,87.18,1
252.00,87.25,1
59.00,89.56,1
117.00,92.39,1
127.00,94.96,1
200.00,98.48,1
159.00,103.58,1
82.00,109.00,1
153.00,113.45,1
195.00,117.91,1
63.00,122.40,1
38.00,124.73,1
144.00,124.71,1
75.00,123.88,1
125.00,122.62,1
183.00,121.81,1
127.00,122.29,1
60.00,122.72,1
150.00,122.26,1
72.00,121.43,1
168.00,120.61,1
138.00,120.51,1
211.00,121.89,1
224.00,125.38,1
40.00,129.67,1
74.00,131.74,1
196.00,132.13,1
125.00,132.94,1
128.00,133.91,1
240.00,135.35,1
149.00,138.25,1
47.00,140.71,1
98.00,140.72,1
119.00,139.07,1
38.00,136.27,1
68.00,131.80,1
156.00,126.76,1
112.00,122.82,1
116.00,119.87,1
244.00,118.53,1
37.00,118.93,1
106.00,118.79,1
61.00,117.33,1
110.00,115.12,1
79.00,112.60,1
55.00,109.62,1
194.00,106.90,1
117.00,105.95,1
166.00,106.67,1
107.00,108.29,1
39.00,109.40,1
43.00,108.47,1
97.00,105.99,1
106.00,103.44,1
41.00,100.97,1
104.00,98.16,1
122.00,95.85,1
49.00,94.21,1
107.00,92.56,1
67.00,90.96,1
353.00,91.70,1
63.00,96.16,1
56.00,100.80,1
123.00,103.44,1
174.00,105.97,1
40.00,108.61,1
48.00,109.51,1
83.00,108.36,1
139.00,106.81,1
139.00,106.24,1
196.00,107.38,1
48.00,109.49,1
125.00,110.92,1
127.00,111.85,1
134.00,113.10,1
166.00,114.95,1
64.00,116.93,1
85.00,117.70,1
38.00,116.61,1
63.00,113.75,1
197.00,110.80,1
81.00,109.36,1
329.00,110.36,1
92.00,114.42,1
150.00,119.20,1
103.00,122.98,1
87.00,125.44,1
39.00,125.76,1
192.00,124.78,1
119.00,124.41,1
243.00,125.58,1
369.00,130.38,1
106.00,138.76,1
107.00,146.22,1
90.00,150.43,1
242.00,153.01,1
126.00,155.70,1
64.00,157.21,1
56.00,155.68,1
101.00,151.66,1
53.00,146.16,1
166.00,140.22,1
85.00,134.95,1
76.00,129.89,1
46.00,124.07,1
86.00,117.64,1
116.00,111.62,1
96.00,106.79,1
59.00,102.62,1
71.00,98.41,1
94.00,94.39,1
95.00,91.15,1
132.00,89.11,1
238.00,89.61,1
132.00,93.17,1
75.00,97.58,1
89.00,100.75,1
81.00,102.59,1
120.00,103.66,1
60.00,104.18,1
54.00,103.55,1
50.00,101.43,1
102.00,98.56,1
138.00,96.37,1
83.00,95.34,1
94.00,94.70,1
85.00,94.02,1
65.00,93.11,1
56.00,91.57,1
47.00,89.22,1
90.00,86.45,1
44.00,83.73,1
95.00,81.15,1
278.00,80.76,1
140.00,84.35,1
139.00,90.06,1
70.00,95.46,1
41.00,99.05,1
87.00,100.48,1
138.00,101.15,1
158.00,102.62,1
138.00,105.25,1
49.00,107.77,1
73.00,108.67,1
43.00,107.70,1
100.00,105.52,1
107.00,103.27,1
52.00,101.17,1
71.00,98.55,1
108.00,95.79,1
118.00,93.88,1
123.00,93.21,1
47.00,93.01,1
59.00,92.07,1
64.00,90.19,1
79.00,87.97,1
131.00,86.29,1
68.00,85.56,1
95.00,85.17,1
89.00,84.92,1
77.00,84.82,1
58.00,84.43,1
71.00,83.52,1
218.00,83.52,1
45.00,85.34,1
123.00,87.46,1
108.00,89.49,1
285.00,93.23,1
98.00,99.41,1
125.00,105.85,1
39.00,110.44,1
112.00,112.88,1
169.00,114.57,1
64.00,116.32,1
161.00,117.58,1
43.00,118.20,1
69.00,117.37,1
92.00,115.12,1
145.00,112.89,1
39.00,110.94,1
103.00,108.48,1
76.00,105.67,1
96.00,102.94,1
151.00,100.93,1
170.00,100.76,1
49.00,101.78,1
45.00,101.78,1
60.00,100.05,1
91.00,97.55,1
136.00,95.55,1
41.00,94.22,1
85.00,92.59,1
210.00,91.78,1
52.00,92.75,1
83.00,93.71,1
127.00,94.18,1
126.00,95.26,1
80.00,96.73,1
143.00,98.20,1
155.00,100.38,1
183.00,103.99,1
267.00,109.84,1
205.00,118.30,1
177.00,127.93,1
75.00,136.26,1
123.00,141.79,1
144.00,145.12,1
59.00,146.73,1
62.00,145.74,1
113.00,142.56,1
213.00,139.56,1
86.00,137.84,1
94.00,135.93,1
39.00,132.54,1
106.00,127.87,1
38.00,122.47,1
161.00,117.15,1
105.00,113.08,1
149.00,110.57,1
168.00,109.73,1
72.00,110.09,1
190.00,110.88,1
85.00,112.26,1
148.00,113.80,1
87.00,115.07,1
51.00,115.31,1
159.00,114.54,1
44.00,113.58,1
84.00,111.83,1
136.00,109.66,1
60.00,107.83,1
94.00,105.77,1
89.00,103.49,1
135.00,101.71,1
101.00,100.79,1
147.00,100.77,1
59.00,101.18,1
123.00,101.35,1
84.00,101.35,1
121.00,101.40,1
100.00,101.61,1
51.00,101.48,1
73.00,100.27,1
89.00,98.40,1
146.00,97.01,1
229.00,97.78,1
117.00,101.11,1
58.00,104.62,1
50.00,106.16,1
41.00,105.44,1
163.00,103.85,1
93.00,103.01,1
83.00,102.54,1
49.00,101.33,1
52.00,98.97,1
180.00,96.66,1
183.00,96.66,1
46.00,98.37,1
90.00,99.42,1
155.00,100.09,1
155.00,101.89,1
73.00,104.35,1
154.00,106.52,1
124.00,108.83,1
44.00,110.68,1
48.00,110.52,1
88.00,108.62,1
42.00,105.78,1
84.00,102.22,1
40.00,98.19,1
89.00,93.97,1
48.00,89.84,1
149.00,86.50,1
114.00,84.91,1
164.00,85.40,1
73.00,87.22,1
66.00,88.83,1
58.00,89.28,1
79.00,88.81,1
69.00,87.87,1
86.00,86.75,1
80.00,85.68,1
127.00,85.12,1
45.00,85.01,1
47.00,84.30,1
41.00,82.45,1
79.00,80.02,1
53.00,77.61,1
41.00,75.08,1
136.00,72.91,1
127.00,72.51,1
135.00,74.15,1
50.00,76.66,1
212.00,79.73,1
61.00,83.86,1
77.00,87.62,1
46.00,89.75,1
108.00,90.68,1
65.00,91.09,1
87.00,91.07,1
152.00,91.28,1
120.00,92.68,1
78.00,94.56,1
124.00,96.16,1
42.00,97.24,1
80.00,97.23,1
54.00,96.11,1
90.00,94.38,1
61.00,92.37,1
104.00,90.41,1
126.00,89.19,1
68.00,88.83,1
104.00,88.65,1
88.00,88.58,1
44.00,88.28,1
55.00,87.04,1
56.00,84.94,1
40.00,82.23,1
55.00,79.02,1
44.00,75.57,1
46.00,72.00,1
175.00,69.47,1
82.00,69.21,1
52.00,69.97,1
71.00,70.35,1
48.00,70.31,1
100.00,70.16,1
54.00,70.23,1
105.00,70.54,1
65.00,71.18,1
73.00,71.85,1
122.00,72.74,1
91.00,74.39,1
74.00,76.32,1
91.00,77.98,1
54.00,79.23,1
77.00,79.84,1
50.00,79.78,1
78.00,79.20,1
52.00,78.27,1
54.00,76.91,1
112.00,75.58,1
52.00,74.81,1
49.00,73.93,1
71.00,72.65,1
43.00,71.20,1
109.00,69.95,1
57.00,69.31,1
61.00,68.89,1
67.00,68.32,1
74.00,67.85,1
89.00,67.76,1
66.00,68.10,1
102.00,68.77,1
92.00,70.00,1
105.00,71.87,1
72.00,74.00,1
64.00,75.77,1
66.00,76.79,1
87.00,77.37,1
55.00,77.69,1
86.00,77.70,1
62.00,77.53,1
62.00,77.08,1
