378.00,376.32,1
291.00,376.49,1
41.00,372.34,1
300.00,362.38,1
147.00,349.31,1
447.00,336.43,1
273.00,326.39,1
162.00,317.52,1
239.00,307.13,1
383.00,297.54,1
121.00,289.71,1
304.00,281.87,1
328.00,275.33,1
227.00,271.05,1
132.00,266.40,1
127.00,259.17,1
368.00,251.35,1
322.00,246.87,1
208.00,245.42,1
374.00,245.38,1
764.00,251.46,1
179.00,265.03,1
410.00,279.27,1
231.00,291.01,1
72.00,298.13,1
80.00,297.32,1
286.00,291.17,1
269.00,284.47,1
400.00,280.12,1
338.00,279.20,1
417.00,281.61,1
491.00,287.95,1
507.00,299.01,1
108.00,310.87,1
297.00,317.98,1
114.00,319.62,1
122.00,315.62,1
49.00,305.52,1
367.00,292.55,1
133.00,280.60,1
112.00,268.39,1
50.00,253.61,1
463.00,239.57,1
184.00,230.58,1
417.00,226.46,1
482.00,228.27,1
927.00,241.27,1
329.00,265.12,1
252.00,289.68,1
345.00,308.50,1
382.00,323.55,1
246.00,335.47,1
542.00,345.14,1
639.00,357.36,1
164.00,371.29,1
327.00,380.28,1
192.00,382.92,1
71.00,378.59,1
355.00,368.48,1
104.00,355.91,1
451.00,342.94,1
429.00,333.60,1
221.00,328.13,1
236.00,322.28,1
78.00,313.52,1
235.00,301.71,1
423.00,290.79,1
300.00,284.27,1
220.00,280.19,1
69.00,274.50,1
148.00,265.29,1
49.00,252.87,1
223.00,238.93,1
406.00,227.88,1
127.00,221.53,1
166.00,216.21,1
64.00,209.36,1
250.00,201.72,1
114.00,194.84,1
496.00,191.25,1
490.00,195.33,1
491.00,208.35,1
265.00,225.72,1
159.00,241.21,1
328.00,252.52,1
356.00,262.44,1
339.00,272.70,1
659.00,285.48,1
244.00,301.48,1
238.00,315.12,1
51.00,321.47,1
405.00,321.75,1
346.00,321.29,1
82.00,320.07,1
111.00,313.62,1
79.00,301.53,1
150.00,285.87,1
87.00,268.39,1
85.00,249.58,1
138.00,230.32,1
124.00,212.07,1
265.00,196.59,1
194.00,185.35,1
322.00,178.75,1
458.00,178.58,1
314.00,185.45,1
487.00,197.49,1
280.00,213.06,1
610.00,231.58,1
241.00,252.38,1
479.00,272.82,1
586.00,294.08,1
383.00,317.29,1
492.00,339.66,1
317.00,359.35,1
456.00,375.50,1
459.00,389.30,1
260.00,400.42,1
318.00,406.30,1
214.00,406.54,1
80.00,400.03,1
443.00,388.55,1
174.00,376.42,1
124.00,362.29,1
51.00,343.53,1
104.00,320.66,1
234.00,296.78,1
356.00,276.49,1
232.00,261.66,1
135.00,249.65,1
186.00,237.95,1
271.00,227.62,1
351.00,221.21,1
663.00,222.52,1
432.00,233.64,1
451.00,250.83,1
301.00,269.12,1
316.00,285.44,1
370.00,299.17,1
170.00,309.84,1
465.00,317.41,1
54.00,322.17,1
416.00,323.29,1
375.00,323.88,1
88.00,323.97,1
167.00,319.23,1
194.00,310.18,1
242.00,299.60,1
157.00,288.54,1
148.00,276.41,1
261.00,263.96,1
48.00,251.69,1
59.00,237.46,1
58.00,220.62,1
41.00,202.28,1
157.00,184.10,1
45.00,167.50,1
235.00,153.33,1
287.00,144.13,1
177.00,140.55,1
339.00,141.32,1
369.00,147.33,1
284.00,158.27,1
371.00,172.20,1
424.00,189.08,1
520.00,210.02,1
372.00,234.16,1
220.00,257.06,1
254.00,274.77,1
236.00,287.13,1
268.00,295.22,1
198.00,299.63,1
234.00,300.52,1
40.00,297.08,1
159.00,288.57,1
184.00,277.06,1
278.00,265.82,1
224.00,256.46,1
125.00,247.91,1
64.00,237.65,1
59.00,224.57,1
59.00,209.20,1
39.00,192.36,1
84.00,175.04,1
232.00,159.72,1
334.00,150.05,1
183.00,146.66,1
239.00,146.97,1
281.00,150.14,1
236.00,156.13,1
238.00,163.72,1
243.00,171.99,1
412.00,181.98,1
352.00,195.28,1
632.00,213.35,1
289.00,235.78,1
298.00,257.48,1
299.00,275.24,1
288.00,289.41,1
394.00,301.10,1
158.00,310.23,1
296.00,315.20,1
47.00,315.14,1
138.00,309.04,1
238.00,298.77,1
232.00,288.05,1
255.00,278.30,1
72.00,268.41,1
146.00,256.54,1
50.00,242.45,1
71.00,226.33,1
79.00,208.84,1
330.00,193.27,1
203.00,182.81,1
433.00,178.49,1
243.00,180.22,1
283.00,185.51,1
350.00,192.98,1
272.00,202.71,1
42.00,211.14,1
431.00,217.07,1
379.00,225.04,1
278.00,235.79,1
343.00,246.74,1
663.00,260.36,1
300.00,278.48,1
230.00,295.39,1
202.00,306.41,1
325.00,312.58,1
64.00,314.52,1
238.00,311.33,1
183.00,304.62,1
198.00,296.05,1
316.00,287.15,1
235.00,279.69,1
155.00,272.54,1
110.00,263.52,1
113.00,252.01,1
104.00,238.49,1
56.00,223.46,1
130.00,207.49,1
212.00,192.84,1
366.00,182.94,1
176.00,178.66,1
251.00,177.51,1
401.00,179.72,1
301.00,186.62,1
272.00,196.24,1
426.00,207.57,1
307.00,221.18,1
412.00,236.22,1
835.00,256.17,1
450.00,283.78,1
204.00,311.41,1
347.00,332.10,1
217.00,346.02,1
284.00,353.99,1
295.00,357.25,1
164.00,356.46,1
462.00,353.05,1
190.00,349.35,1
219.00,343.78,1
138.00,334.52,1
41.00,320.82,1
356.00,304.54,1
71.00,288.91,1
170.00,272.98,1
51.00,255.66,1
108.00,237.21,1
292.00,219.96,1
133.00,206.39,1
95.00,194.66,1
37.00,182.26,1
207.00,169.91,1
249.00,160.70,1
417.00,157.65,1
349.00,161.92,1
409.00,172.38,1
211.00,186.06,1
479.00,201.17,1
405.00,219.00,1
343.00,238.84,1
362.00,258.06,1
327.00,275.65,1
355.00,291.24,1
355.00,304.96,1
418.00,317.57,1
239.00,328.48,1
241.00,335.32,1
266.00,337.54,1
281.00,336.75,1
283.00,334.21,1
192.00,329.79,1
264.00,323.20,1
81.00,314.11,1
261.00,302.45,1
80.00,289.23,1
96.00,273.85,1
237.00,257.30,1
121.00,241.93,1
199.00,227.85,1
285.00,216.27,1
588.00,211.55,1
613.00,218.08,1
610.00,235.80,1
269.00,258.87,1
583.00,282.17,1
467.00,306.29,1
512.00,331.33,1
479.00,355.68,1
680.00,380.22,1
235.00,403.47,1
406.00,420.64,1
759.00,434.72,1
376.00,450.11,1
324.00,462.09,1
376.00,467.50,1
286.00,467.32,1
197.00,461.22,1
154.00,448.25,1
209.00,429.41,1
123.00,406.66,1
129.00,380.77,1
351.00,354.53,1
257.00,331.86,1
320.00,313.47,1
122.00,297.55,1
398.00,283.57,1
143.00,272.33,1
204.00,262.14,1
266.00,252.48,1
248.00,244.94,1
397.00,240.71,1
470.00,242.01,1
441.00,249.80,1
347.00,261.53,1
507.00,275.39,1
304.00,290.62,1
206.00,303.49,1
243.00,311.18,1
456.00,316.20,1
300.00,321.59,1
366.00,326.80,1
490.00,332.54,1
225.00,338.91,1
552.00,344.87,1
228.00,350.86,1
163.00,353.45,1
114.00,349.18,1
300.00,340.07,1
330.00,330.50,1
78.00,320.86,1
94.00,307.73,1
298.00,292.16,1
306.00,278.90,1
167.00,268.51,1
238.00,258.98,1
405.00,251.84,1
502.00,250.93,1
780.00,260.12,1
126.00,276.62,1
333.00,291.29,1
317.00,301.98,1
433.00,311.69,1
454.00,322.28,1
383.00,333.93,1
473.00,345.75,1
314.00,356.89,1
419.00,366.11,1
224.00,372.40,1
288.00,374.42,1
452.00,373.89,1
472.00,374.87,1
143.00,375.95,1
178.00,372.06,1
102.00,361.74,1
94.00,345.78,1
48.00,325.01,1
268.00,302.26,1
95.00,280.61,1
127.00,259.69,1
233.00,240.03,1
190.00,223.61,1
50.00,209.22,1
137.00,194.88,1
120.00,181.21,1
324.00,170.64,1
343.00,166.14,1
218.00,167.42,1
529.00,173.71,1
534.00,187.70,1
287.00,207.68,1
229.00,227.06,1
388.00,243.65,1
334.00,259.26,1
236.00,273.23,1
251.00,283.54,1
297.00,290.54,1
559.00,297.85,1
233.00,307.24,1
390.00,315.91,1
216.00,322.21,1
145.00,324.33,1
175.00,320.79,1
114.00,312.49,1
126.00,300.23,1
57.00,284.41,1
58.00,265.40,1
223.00,245.45,1
270.00,228.58,1
360.00,217.51,1
107.00,210.95,1
404.00,207.11,1
127.00,205.98,1
414.00,207.18,1
301.00,211.66,1
383.00,219.66,1
532.00,231.66,1
349.00,247.96,1
636.00,267.58,1
102.00,287.87,1
432.00,304.29,1
382.00,317.85,1
396.00,330.80,1
459.00,343.19,1
357.00,355.08,1
249.00,364.13,1
381.00,369.17,1
358.00,372.11,1
211.00,372.82,1
95.00,368.31,1
54.00,356.48,1
53.00,337.89,1
351.00,316.76,1
89.00,297.21,1
120.00,277.91,1
105.00,257.58,1
707.00,242.20,1
240.00,237.09,1
297.00,237.64,1
120.00,238.09,1
351.00,237.90,1
218.00,238.48,1
327.00,240.26,1
375.00,243.98,1
128.00,248.70,1
722.00,255.28,1
407.00,268.15,1
180.00,283.22,1
254.00,293.75,1
562.00,302.35,1
450.00,314.03,1
247.00,326.66,1
474.00,337.17,1
270.00,346.12,1
358.00,352.82,1
219.00,356.15,1
337.00,356.25,1
262.00,354.08,1
44.00,348.17,1
74.00,335.63,1
119.00,317.57,1
53.00,296.26,1
99.00,272.96,1
194.00,249.88,1
160.00,229.43,1
205.00,212.25,1
535.00,201.32,1
133.00,198.02,1
476.00,199.55,1
314.00,205.65,1
611.00,217.65,1
428.00,235.90,1
394.00,257.41,1
185.00,276.82,1
520.00,293.02,1
438.00,309.39,1
419.00,326.60,1
325.00,342.13,1
404.00,354.78,1
411.00,365.44,1
383.00,374.75,1
320.00,381.80,1
289.00,385.38,1
202.00,384.48,1
280.00,379.12,1
421.00,372.31,1
144.00,365.29,1
286.00,356.10,1
90.00,344.01,1
44.00,327.66,1
90.00,306.56,1
144.00,283.35,1
130.00,260.54,1
63.00,238.46,1
262.00,218.07,1
268.00,202.45,1
289.00,192.89,1
457.00,189.98,1
378.00,194.65,1
507.00,205.98,1
456.00,223.08,1
477.00,244.40,1
387.00,267.40,1
573.00,291.11,1
526.00,316.56,1
450.00,342.59,1
392.00,366.07,1
498.00,386.13,1
380.00,403.22,1
433.00,416.86,1
252.00,425.81,1
355.00,429.19,1
266.00,427.72,1
292.00,422.17,1
325.00,413.73,1
213.00,403.14,1
42.00,388.32,1
334.00,369.45,1
127.00,349.76,1
76.00,328.72,1
117.00,305.10,1
165.00,281.02,1
198.00,258.74,1
360.00,240.86,1
103.00,227.75,1
113.00,215.87,1
227.00,204.29,1
163.00,194.77,1
404.00,189.01,1
443.00,190.10,1
569.00,199.93,1
417.00,217.35,1
399.00,238.28,1
382.00,259.50,1
439.00,280.27,1
422.00,300.76,1
376.00,320.10,1
281.00,336.25,1
372.00,348.20,1
310.00,356.82,1
293.00,362.18,1
326.00,364.41,1
274.00,364.09,1
56.00,359.46,1
70.00,347.88,1
175.00,330.66,1
127.00,311.13,1
111.00,290.49,1
65.00,268.65,1
284.00,247.48,1
167.00,229.82,1
197.00,215.53,1
182.00,203.69,1
277.00,194.89,1
229.00,189.72,1
422.00,189.05,1
395.00,194.50,1
409.00,205.62,1
218.00,219.08,1
501.00,233.24,1
358.00,249.36,1
644.00,268.79,1
480.00,292.37,1
506.00,318.06,1
304.00,341.93,1
162.00,359.24,1
274.00,367.93,1
269.00,370.46,1
152.00,368.03,1
228.00,360.63,1
142.00,349.25,1
61.00,333.71,1
140.00,314.16,1
54.00,292.18,1
68.00,268.37,1
41.00,243.31,1
120.00,218.44,1
172.00,196.05,1
190.00,177.96,1
393.00,166.17,1
335.00,162.53,1
207.00,164.91,1
343.00,170.31,1
365.00,179.21,1
268.00,191.15,1
338.00,204.16,1
351.00,218.01,1
362.00,232.94,1
383.00,248.66,1
282.00,264.05,1
373.00,277.92,1
214.00,289.54,1
439.00,299.04,1
328.00,308.11,1
275.00,316.14,1
89.00,319.79,1
100.00,316.49,1
353.00,308.83,1
96.00,300.26,1
135.00,289.44,1
66.00,275.16,1
53.00,257.86,1
105.00,238.48,1
67.00,218.62,1
118.00,199.25,1
57.00,180.93,1
142.00,164.11,1
133.00,149.83,1
318.00,140.02,1
416.00,137.75,1
344.00,143.77,1
435.00,156.41,1
399.00,174.19,1
289.00,194.52,1
497.00,215.75,1
433.00,238.96,1
389.00,263.18,1
507.00,287.11,1
441.00,311.01,1
564.00,335.02,1
240.00,357.15,1
400.00,374.07,1
273.00,385.38,1
244.00,391.11,1
274.00,391.01,1
199.00,386.20,1
332.00,378.09,1
82.00,367.21,1
116.00,351.89,1
48.00,331.65,1
40.00,307.42,1
49.00,280.25,1
154.00,252.78,1
70.00,227.06,1
168.00,203.84,1
217.00,184.61,1
81.00,169.54,1
324.00,158.29,1
304.00,153.08,1
362.00,154.77,1
253.00,161.49,1
386.00,171.60,1
480.00,186.15,1
540.00,206.67,1
466.00,232.25,1
546.00,260.71,1
484.00,290.66,1
268.00,318.52,1
301.00,340.04,1
401.00,355.66,1
230.00,366.79,1
212.00,372.02,1
240.00,371.07,1
170.00,365.22,1
175.00,354.97,1
323.00,342.37,1
89.00,329.01,1
219.00,313.90,1
116.00,297.36,1
226.00,280.55,1
41.00,263.54,1
104.00,245.31,1
121.00,226.37,1
326.00,210.04,1
65.00,197.63,1
138.00,186.57,1
358.00,177.77,1
355.00,175.24,1
369.00,179.36,1
365.00,188.71,1
504.00,202.83,1
472.00,222.10,1
138.00,242.58,1
605.00,261.31,1
441.00,281.69,1
383.00,303.35,1
155.00,321.04,1
270.00,331.86,1
48.00,335.30,1
351.00,332.72,1
340.00,328.78,1
267.00,325.65,1
310.00,322.28,1
215.00,318.17,1
261.00,312.80,1
78.00,305.04,1
47.00,292.93,1
124.00,276.51,1
66.00,257.86,1
112.00,238.21,1
121.00,218.82,1
171.00,201.19,1
156.00,186.26,1
192.00,174.33,1
240.00,165.97,1
234.00,161.60,1
388.00,161.99,1
403.00,168.63,1
350.00,180.82,1
445.00,196.96,1
434.00,216.59,1
474.00,239.18,1
444.00,263.54,1
414.00,287.99,1
426.00,311.08,1
251.00,330.87,1
350.00,345.52,1
254.00,355.16,1
170.00,359.27,1
275.00,357.67,1
224.00,352.40,1
415.00,346.16,1
218.00,340.48,1
63.00,332.47,1
39.00,318.60,1
53.00,299.19,1
84.00,276.34,1
94.00,252.47,1
60.00,228.74,1
187.00,206.46,1
164.00,187.65,1
238.00,173.37,1
261.00,164.21,1
188.00,159.66,1
343.00,159.03,1
444.00,164.21,1
395.00,176.19,1
378.00,192.95,1
463.00,212.60,1
481.00,235.30,1
359.00,259.54,1
434.00,282.88,1
444.00,305.07,1
413.00,326.22,1
316.00,344.61,1
341.00,358.65,1
278.00,368.00,1
227.00,372.18,1
223.00,370.97,1
178.00,364.78,1
240.00,354.68,1
112.00,341.65,1
242.00,326.25,1
117.00,309.61,1
39.00,290.98,1
127.00,269.86,1
50.00,247.68,1
122.00,225.50,1
131.00,204.69,1
343.00,188.14,1
128.00,177.14,1
120.00,168.88,1
357.00,162.99,1
207.00,161.78,1
467.00,165.74,1
308.00,175.26,1
546.00,190.26,1
368.00,210.03,1
508.00,232.87,1
259.00,256.15,1
384.00,277.02,1
354.00,295.14,1
369.00,311.23,1
302.00,324.70,1
311.00,334.79,1
217.00,340.78,1
193.00,341.80,1
85.00,336.97,1
120.00,326.02,1
102.00,310.41,1
49.00,291.40,1
255.00,271.08,1
90.00,252.02,1
44.00,233.16,1
164.00,213.92,1
189.00,196.85,1
270.00,184.09,1
370.00,177.43,1
226.00,176.78,1
302.00,179.73,1
424.00,186.39,1
276.00,197.14,1
248.00,208.90,1
423.00,220.82,1
401.00,234.96,1
420.00,251.54,1
370.00,269.12,1
300.00,285.65,1
360.00,299.76,1
298.00,311.47,1
358.00,320.93,1
145.00,327.05,1
180.00,327.69,1
135.00,322.61,1
250.00,313.79,1
110.00,302.87,1
90.00,289.15,1
82.00,272.19,1
44.00,252.76,1
265.00,233.21,1
83.00,216.08,1
164.00,200.83,1
147.00,187.22,1
200.00,176.12,1
262.00,168.58,1
363.00,166.29,1
494.00,171.30,1
417.00,184.13,1
247.00,200.80,1
513.00,218.62,1
492.00,239.55,1
395.00,263.17,1
420.00,286.49,1
366.00,307.96,1
389.00,326.83,1
310.00,342.39,1
334.00,354.00,1
332.00,361.96,1
315.00,366.88,1
248.00,368.51,1
314.00,366.84,1
245.00,362.68,1
83.00,354.82,1
56.00,340.95,1
41.00,321.01,1
52.00,296.76,1
211.00,271.49,1
272.00,249.47,1
118.00,231.72,1
56.00,215.21,1
73.00,198.07,1
230.00,182.07,1
224.00,170.14,1
229.00,162.93,1
329.00,160.45,1
249.00,162.68,1
54.00,166.26,1
499.00,170.56,1
256.00,178.99,1
289.00,190.22,1
602.00,204.36,1
315.00,223.40,1
242.00,242.66,1
284.00,258.23,1
306.00,270.73,1
43.00,279.03,1
236.00,281.34,1
48.00,278.47,1
143.00,271.01,1
78.00,259.75,1
165.00,246.42,1
42.00,231.81,1
43.00,215.46,1
53.00,197.41,1
55.00,178.83,1
89.00,160.86,1
92.00,144.58,1
250.00,131.76,1
283.00,124.94,1
241.00,124.41,1
121.00,127.26,1
233.00,131.13,1
252.00,136.69,1
178.00,143.98,1
436.00,153.40,1
326.00,166.89,1
478.00,184.64,1
555.00,207.23,1
246.00,232.76,1
328.00,255.82,1
140.00,273.48,1
553.00,287.45,1
316.00,301.47,1
228.00,313.83,1
258.00,321.37,1
143.00,323.83,1
72.00,319.99,1
101.00,309.66,1
57.00,294.31,1
90.00,275.31,1
88.00,254.48,1
238.00,234.39,1
39.00,216.36,1
48.00,198.50,1
61.00,180.01,1
185.00,162.93,1
282.00,150.49,1
288.00,144.66,1
324.00,145.25,1
362.00,151.68,1
292.00,162.58,1
592.00,178.19,1
368.00,199.42,1
415.00,223.43,1
415.00,247.64,1
284.00,270.50,1
283.00,289.38,1
348.00,304.06,1
232.00,315.16,1
214.00,321.63,1
234.00,323.31,1
179.00,320.97,1
121.00,314.48,1
109.00,303.52,1
200.00,289.61,1
82.00,274.28,1
43.00,256.91,1
86.00,237.26,1
108.00,217.14,1
230.00,199.07,1
60.00,183.95,1
263.00,171.46,1
412.00,164.58,1
370.00,165.98,1
250.00,173.26,1
353.00,183.22,1
385.00,195.79,1
163.00,209.54,1
263.00,221.11,1
423.00,231.78,1
286.00,243.82,1
209.00,254.86,1
275.00,262.90,1
156.00,267.88,1
373.00,270.75,1
223.00,273.28,1
149.00,274.15,1
54.00,270.53,1
168.00,262.39,1
267.00,252.96,1
100.00,244.05,1
51.00,233.46,1
66.00,219.91,1
53.00,204.22,1
97.00,187.75,1
61.00,171.57,1
259.00,157.55,1
85.00,147.20,1
39.00,138.34,1
184.00,129.88,1
232.00,124.44,1
333.00,124.33,1
290.00,130.08,1
408.00,141.07,1
361.00,156.97,1
427.00,176.78,1
475.00,200.01,1
296.00,224.84,1
196.00,246.72,1
268.00,263.10,1
339.00,275.70,1
208.00,285.69,1
319.00,292.70,1
144.00,296.55,1
195.00,296.29,1
218.00,292.47,1
58.00,285.62,1
114.00,274.70,1
38.00,259.99,1
145.00,242.96,1
54.00,225.16,1
44.00,206.62,1
113.00,187.78,1
142.00,170.67,1
59.00,155.79,1
195.00,143.09,1
112.00,133.35,1
460.00,128.78,1
182.00,131.10,1
212.00,137.15,1
430.00,145.75,1
78.00,156.94,1
229.00,166.99,1
427.00,177.07,1
512.00,192.02,1
364.00,212.03,1
416.00,233.95,1
383.00,255.94,1
284.00,276.31,1
249.00,292.58,1
168.00,303.11,1
203.00,307.60,1
197.00,307.25,1
372.00,304.81,1
119.00,301.63,1
60.00,294.76,1
44.00,282.04,1
155.00,265.51,1
115.00,248.05,1
50.00,230.16,1
121.00,211.71,1
45.00,193.45,1
158.00,176.23,1
201.00,161.96,1
308.00,152.96,1
260.00,150.04,1
130.00,150.80,1
265.00,152.88,1
202.00,156.53,1
263.00,161.85,1
322.00,169.21,1
320.00,179.37,1
232.00,191.07,1
382.00,203.29,1
169.00,215.47,1
381.00,226.71,1
264.00,237.63,1
239.00,247.57,1
180.00,254.52,1
72.00,256.90,1
129.00,253.96,1
96.00,246.81,1
51.00,236.25,1
51.00,222.49,1
155.00,207.22,1
53.00,192.16,1
91.00,177.27,1
200.00,163.69,1
40.00,152.36,1
195.00,142.64,1
236.00,136.06,1
372.00,135.19,1
390.00,141.42,1
217.00,152.82,1
312.00,165.85,1
364.00,180.20,1
418.00,197.25,1
348.00,216.50,1
584.00,237.98,1
269.00,261.19,1
223.00,281.31,1
210.00,294.87,1
164.00,302.07,1
308.00,304.57,1
219.00,304.62,1
216.00,302.52,1
261.00,298.47,1
100.00,292.44,1
58.00,282.46,1
131.00,268.43,1
53.00,251.98,1
42.00,233.41,1
127.00,213.76,1
147.00,195.43,1
119.00,179.50,1
116.00,165.60,1
264.00,154.65,1
125.00,147.60,1
243.00,143.63,1
269.00,143.16,1
352.00,147.50,1
326.00,156.63,1
403.00,170.01,1
303.00,186.41,1
452.00,204.78,1
649.00,227.27,1
109.00,252.23,1
352.00,272.91,1
251.00,288.41,1
579.00,302.50,1
288.00,317.22,1
317.00,330.08,1
284.00,338.90,1
570.00,346.43,1
217.00,354.27,1
223.00,358.65,1
37.00,355.91,1
46.00,344.91,1
44.00,326.52,1
127.00,303.96,1
120.00,280.20,1
50.00,256.31,1
79.00,232.11,1
76.00,208.41,1
223.00,187.26,1
482.00,173.27,1
382.00,169.81,1
173.00,173.42,1
288.00,178.81,1
321.00,185.84,1
154.00,194.02,1
378.00,202.15,1
212.00,210.91,1
395.00,220.51,1
322.00,231.49,1
234.00,242.70,1
224.00,251.58,1
241.00,257.61,1
336.00,262.30,1
362.00,267.72,1
297.00,274.23,1
91.00,278.77,1
372.00,280.03,1
171.00,280.04,1
39.00,276.96,1
87.00,268.22,1
125.00,255.47,1
65.00,240.61,1
56.00,223.92,1
390.00,208.52,1
151.00,198.11,1
194.00,190.98,1
47.00,184.09,1
238.00,177.10,1
151.00,171.50,1
319.00,168.70,1
171.00,168.98,1
306.00,171.62,1
223.00,176.26,1
408.00,183.55,1
306.00,194.13,1
369.00,207.24,1
259.00,221.11,1
345.00,234.54,1
318.00,247.47,1
297.00,259.67,1
94.00,268.67,1
330.00,273.38,1
282.00,276.49,1
334.00,279.85,1
111.00,281.91,1
48.00,279.16,1
126.00,270.55,1
157.00,258.81,1
57.00,245.45,1
74.00,229.99,1
52.00,212.73,1
155.00,195.33,1
37.00,178.94,1
234.00,164.40,1
263.00,154.25,1
309.00,150.31,1
455.00,153.33,1
301.00,163.21,1
406.00,177.40,1
312.00,194.10,1
354.00,211.80,1
379.00,229.83,1
487.00,249.16,1
438.00,270.43,1
347.00,291.85,1
378.00,310.95,1
649.00,329.69,1
242.00,348.95,1
121.00,362.43,1
57.00,365.16,1
112.00,357.83,1
39.00,343.14,1
100.00,323.00,1
159.00,300.26,1
161.00,277.85,1
41.00,255.95,1
102.00,233.67,1
106.00,211.91,1
174.00,192.41,1
133.00,176.08,1
79.00,162.14,1
205.00,150.28,1
301.00,142.85,1
148.00,140.35,1
415.00,142.17,1
458.00,150.76,1
423.00,166.83,1
132.00,185.45,1
292.00,201.56,1
272.00,215.31,1
410.00,228.97,1
513.00,245.05,1
394.00,264.26,1
438.00,284.48,1
55.00,301.39,1
234.00,310.77,1
37.00,312.31,1
240.00,307.68,1
273.00,300.47,1
387.00,294.75,1
131.00,290.40,1
49.00,283.21,1
83.00,270.98,1
45.00,254.85,1
174.00,236.99,1
36.00,219.14,1
55.00,200.83,1
307.00,184.01,1
178.00,172.14,1
176.00,164.35,1
117.00,158.34,1
267.00,154.15,1
194.00,152.86,1
398.00,155.50,1
210.00,162.25,1
175.00,170.26,1
260.00,177.50,1
202.00,184.55,1
285.00,191.66,1
298.00,199.57,1
354.00,209.20,1
255.00,220.08,1
435.00,231.82,1
207.00,244.11,1
171.00,253.80,1
170.00,258.72,1
80.00,258.79,1
202.00,254.62,1
104.00,247.92,1
185.00,239.54,1
57.00,229.66,1
126.00,218.07,1
122.00,205.60,1
72.00,192.97,1
202.00,180.85,1
48.00,169.99,1
213.00,160.34,1
244.00,153.66,1
276.00,151.61,1
171.00,153.04,1
314.00,156.81,1
365.00,164.08,1
257.00,174.90,1
295.00,187.06,1
322.00,199.79,1
414.00,214.04,1
361.00,230.31,1
290.00,246.89,1
320.00,261.75,1
337.00,274.86,1
223.00,285.79,1
264.00,293.31,1
154.00,296.84,1
167.00,295.75,1
109.00,290.10,1
70.00,279.94,1
78.00,265.65,1
104.00,248.69,1
55.00,230.38,1
152.00,211.89,1
88.00,194.52,1
160.00,178.93,1
162.00,165.87,1
100.00,155.29,1
123.00,146.12,1
183.00,138.70,1
179.00,133.99,1
160.00,131.77,1
360.00,132.83,1
363.00,139.49,1
315.00,151.53,1
468.00,167.73,1
338.00,187.64,1
398.00,209.28,1
294.00,230.62,1
212.00,249.11,1
451.00,264.59,1
189.00,278.37,1
332.00,289.22,1
216.00,296.74,1
416.00,302.39,1
246.00,307.39,1
200.00,310.18,1
148.00,308.60,1
102.00,302.02,1
143.00,291.14,1
61.00,276.99,1
89.00,259.99,1
111.00,241.34,1
50.00,222.15,1
56.00,202.41,1
199.00,183.68,1
158.00,168.44,1
91.00,156.31,1
218.00,146.54,1
231.00,140.54,1
348.00,139.84,1
500.00,146.47,1
342.00,160.65,1
270.00,178.13,1
323.00,195.49,1
360.00,212.78,1
320.00,230.15,1
504.00,248.19,1
336.00,267.47,1
359.00,285.98,1
335.00,302.07,1
354.00,315.74,1
120.00,325.32,1
163.00,328.06,1
200.00,324.56,1
63.00,316.37,1
169.00,303.71,1
36.00,287.70,1
137.00,269.09,1
77.00,249.25,1
79.00,228.96,1
41.00,208.23,1
100.00,187.72,1
117.00,168.89,1
215.00,153.55,1
298.00,143.81,1
204.00,140.03,1
263.00,140.59,1
321.00,145.05,1
339.00,153.91,1
357.00,166.75,1
238.00,181.72,1
343.00,196.81,1
408.00,212.76,1
370.00,230.52,1
354.00,248.82,1
342.00,266.25,1
273.00,281.53,1
276.00,293.46,1
227.00,301.51,1
185.00,305.24,1
174.00,304.33,1
180.00,299.49,1
42.00,290.72,1
221.00,278.42,1
221.00,265.68,1
105.00,253.55,1
65.00,240.05,1
214.00,225.55,1
102.00,211.99,1
163.00,199.47,1
94.00,187.66,1
124.00,176.42,1
177.00,166.32,1
393.00,160.42,1
363.00,161.56,1
346.00,169.20,1
399.00,181.47,1
330.00,196.94,1
463.00,214.79,1
315.00,234.26,1
442.00,254.02,1
357.00,273.47,1
349.00,291.66,1
309.00,307.10,1
285.00,319.02,1
169.00,326.20,1
347.00,328.90,1
221.00,329.01,1
125.00,325.78,1
156.00,317.65,1
50.00,305.00,1
204.00,289.06,1
49.00,271.58,1
106.00,252.65,1
66.00,232.64,1
50.00,212.13,1
127.00,191.92,1
150.00,173.97,1
120.00,159.10,1
433.00,149.38,1
262.00,147.33,1
305.00,151.32,1
384.00,159.77,1
375.00,172.99,1
293.00,189.14,1
360.00,206.08,1
340.00,223.34,1
142.00,238.84,1
281.00,250.19,1
475.00,260.30,1
384.00,272.75,1
373.00,286.52,1
291.00,299.26,1
374.00,310.02,1
243.00,318.55,1
158.00,322.89,1
193.00,321.74,1
176.00,316.16,1
140.00,307.10,1
106.00,294.71,1
106.00,279.37,1
36.00,261.38,1
57.00,240.99,1
82.00,219.45,1
188.00,199.20,1
127.00,182.06,1
174.00,168.13,1
294.00,158.36,1
332.00,154.74,1
264.00,157.02,1
310.00,163.27,1
338.00,172.70,1
327.00,185.07,1
367.00,199.59,1
426.00,216.36,1
259.00,234.19,1
317.00,250.43,1
294.00,264.29,1
338.00,276.36,1
233.00,286.34,1
247.00,293.13,1
135.00,295.70,1
180.00,293.59,1
260.00,288.51,1
163.00,282.25,1
168.00,274.34,1
136.00,264.50,1
50.00,252.34,1
38.00,236.96,1
41.00,218.82,1
46.00,199.17,1
62.00,179.27,1
106.00,160.48,1
153.00,144.43,1
212.00,132.62,1
419.00,127.57,1
303.00,130.70,1
336.00,140.04,1
350.00,153.52,1
437.00,170.93,1
370.00,191.72,1
378.00,214.14,1
361.00,236.41,1
403.00,257.96,1
272.00,277.72,1
294.00,293.81,1
230.00,305.34,1
302.00,312.68,1
219.00,316.61,1
164.00,316.60,1
272.00,312.84,1
127.00,306.55,1
138.00,297.09,1
39.00,283.65,1
52.00,266.29,1
42.00,245.81,1
175.00,224.62,1
124.00,205.35,1
166.00,188.79,1
232.00,175.67,1
204.00,166.82,1
184.00,161.39,1
358.00,159.66,1
270.00,162.72,1
390.00,170.32,1
272.00,181.41,1
300.00,194.05,1
412.00,207.85,1
366.00,223.75,1
311.00,240.48,1
408.00,256.79,1
175.00,271.46,1
337.00,282.69,1
234.00,290.82,1
248.00,296.07,1
240.00,298.31,1
207.00,297.84,1
271.00,295.27,1
192.00,291.35,1
91.00,284.87,1
77.00,274.22,1
68.00,259.70,1
78.00,242.42,1
102.00,223.97,1
138.00,206.01,1
71.00,189.26,1
192.00,174.17,1
228.00,162.59,1
325.00,156.44,1
196.00,155.53,1
326.00,158.31,1
482.00,166.22,1
370.00,180.53,1
400.00,198.89,1
353.00,218.89,1
375.00,239.15,1
224.00,257.60,1
423.00,273.40,1
334.00,288.00,1
409.00,301.97,1
242.00,314.12,1
256.00,322.45,1
158.00,325.63,1
153.00,323.26,1
98.00,315.40,1
129.00,302.93,1
91.00,287.09,1
119.00,269.11,1
71.00,249.82,1
36.00,229.34,1
76.00,208.02,1
135.00,187.59,1
98.00,169.53,1
100.00,153.77,1
308.00,141.73,1
221.00,135.64,1
266.00,134.96,1
301.00,138.69,1
308.00,146.70,1
375.00,158.66,1
465.00,175.04,1
404.00,195.93,1
369.00,218.93,1
338.00,241.42,1
418.00,262.65,1
212.00,281.56,1
317.00,296.19,1
187.00,306.00,1
179.00,310.56,1
175.00,309.74,1
238.00,305.15,1
254.00,299.05,1
162.00,292.02,1
220.00,283.61,1
37.00,273.13,1
42.00,258.92,1
105.00,241.41,1
78.00,222.85,1
141.00,204.70,1
113.00,188.04,1
250.00,174.28,1
268.00,165.36,1
280.00,161.95,1
309.00,163.43,1
288.00,168.94,1
430.00,178.44,1
290.00,191.61,1
565.00,208.30,1
282.00,228.19,1
526.00,249.46,1
344.00,271.26,1
405.00,292.25,1
302.00,310.57,1
330.00,325.28,1
220.00,335.47,1
270.00,340.68,1
132.00,340.68,1
460.00,337.64,1
264.00,335.04,1
129.00,331.22,1
87.00,322.37,1
80.00,308.12,1
105.00,290.00,1
83.00,269.66,1
82.00,248.21,1
163.00,227.09,1
159.00,208.21,1
164.00,192.31,1
123.00,178.91,1
213.00,167.96,1
260.00,160.80,1
283.00,158.47,1
326.00,160.99,1
272.00,167.65,1
415.00,177.76,1
383.00,191.86,1
312.00,208.59,1
270.00,224.96,1
358.00,239.97,1
257.00,253.73,1
413.00,266.41,1
251.00,278.27,1
391.00,288.87,1
290.00,298.32,1
233.00,305.58,1
232.00,309.16,1
87.00,308.10,1
38.00,300.78,1
44.00,287.01,1
64.00,268.69,1
54.00,247.69,1
104.00,225.84,1
113.00,204.87,1
91.00,185.63,1
160.00,168.64,1
68.00,154.11,1
220.00,142.24,1
190.00,134.30,1
258.00,130.91,1
357.00,132.84,1
157.00,139.28,1
274.00,147.38,1
251.00,156.57,1
287.00,167.18,1
288.00,178.94,1
293.00,191.52,1
259.00,204.13,1
398.00,216.95,1
288.00,230.64,1
166.00,242.84,1
201.00,250.84,1
190.00,254.88,1
144.00,255.53,1
230.00,253.43,1
105.00,249.31,1
80.00,242.22,1
90.00,231.68,1
44.00,218.55,1
144.00,204.02,1
113.00,189.91,1
65.00,176.49,1
126.00,163.51,1
143.00,152.04,1
204.00,143.40,1
197.00,138.28,1
250.00,136.83,1
242.00,138.97,1
328.00,144.76,1
320.00,154.44,1
348.00,167.54,1
371.00,183.49,1
146.00,199.76,1
420.00,214.47,1
364.00,229.70,1
184.00,244.69,1
265.00,256.24,1
289.00,264.82,1
225.00,271.40,1
247.00,275.58,1
293.00,278.00,1
109.00,278.43,1
46.00,274.17,1
41.00,263.91,1
130.00,249.54,1
132.00,233.94,1
54.00,218.04,1
109.00,201.64,1
71.00,185.34,1
40.00,169.23,1
176.00,154.08,1
155.00,142.00,1
86.00,132.87,1
218.00,126.05,1
262.00,123.21,1
298.00,125.64,1
361.00,133.41,1
156.00,144.66,1
170.00,155.41,1
328.00,165.25,1
301.00,176.59,1
340.00,189.92,1
402.00,205.24,1
319.00,222.20,1
192.00,237.94,1
195.00,249.42,1
270.00,256.95,1
195.00,261.84,1
155.00,263.64,1
39.00,260.77,1
87.00,252.51,1
106.00,240.49,1
59.00,226.33,1
76.00,210.57,1
38.00,193.67,1
54.00,176.15,1
107.00,159.11,1
149.00,144.35,1
136.00,132.83,1
119.00,124.14,1
164.00,117.91,1
206.00,114.68,1
228.00,115.06,1
360.00,120.01,1
311.00,130.20,1
307.00,144.26,1
220.00,159.66,1
277.00,174.56,1
383.00,189.68,1
296.00,206.02,1
348.00,222.57,1
308.00,238.53,1
218.00,252.54,1
296.00,263.44,1
121.00,270.67,1
200.00,273.31,1
207.00,272.25,1
42.00,267.83,1
128.00,259.11,1
53.00,246.85,1
148.00,232.44,1
60.00,217.19,1
72.00,201.21,1
73.00,184.67,1
80.00,168.46,1
174.00,153.93,1
230.00,143.23,1
181.00,137.13,1
199.00,134.51,1
225.00,134.72,1
234.00,137.75,1
236.00,143.19,1
288.00,150.78,1
214.00,160.11,1
293.00,170.25,1
296.00,181.38,1
222.00,193.01,1
380.00,204.72,1
389.00,218.17,1
275.00,233.04,1
409.00,247.78,1
219.00,261.64,1
205.00,272.20,1
49.00,276.78,1
101.00,274.45,1
203.00,267.38,1
120.00,258.34,1
212.00,248.36,1
57.00,237.50,1
115.00,225.02,1
208.00,212.17,1
149.00,201.02,1
109.00,190.98,1
67.00,180.60,1
308.00,171.29,1
232.00,166.14,1
400.00,166.49,1
238.00,171.77,1
226.00,179.18,1
316.00,187.23,1
313.00,196.84,1
319.00,208.09,1
207.00,219.34,1
451.00,230.42,1
284.00,242.77,1
250.00,254.62,1
229.00,263.57,1
295.00,269.94,1
183.00,274.12,1
256.00,275.79,1
123.00,274.69,1
82.00,269.58,1
112.00,260.03,1
57.00,247.13,1
95.00,231.77,1
51.00,214.87,1
79.00,197.19,1
69.00,179.56,1
156.00,163.29,1
67.00,149.23,1
122.00,137.02,1
291.00,128.22,1
240.00,125.10,1
178.00,126.41,1
329.00,130.85,1
279.00,139.10,1
368.00,151.12,1
236.00,165.58,1
496.00,182.18,1
319.00,201.53,1
378.00,222.10,1
285.00,241.63,1
276.00,258.59,1
275.00,272.12,1
318.00,282.85,1
84.00,289.85,1
191.00,291.16,1
49.00,286.81,1
126.00,277.37,1
276.00,265.82,1
76.00,254.47,1
124.00,242.00,1
116.00,228.16,1
111.00,213.94,1
51.00,199.30,1
57.00,183.77,1
174.00,168.70,1
45.00,155.39,1
151.00,143.57,1
180.00,134.20,1
236.00,128.80,1
258.00,128.02,1
296.00,131.87,1
146.00,138.68,1
337.00,146.91,1
337.00,157.90,1
350.00,172.30,1
263.00,188.31,1
268.00,203.73,1
384.00,218.49,1
329.00,233.79,1
316.00,248.91,1
65.00,260.65,1
141.00,265.79,1
201.00,265.39,1
227.00,262.68,1
162.00,258.68,1
124.00,252.63,1
139.00,244.21,1
105.00,233.90,1
67.00,221.75,1
39.00,207.44,1
196.00,192.54,1
111.00,179.33,1
135.00,167.93,1
60.00,157.37,1
302.00,148.74,1
245.00,144.81,1
278.00,145.91,1
294.00,150.94,1
244.00,159.01,1
418.00,169.83,1
352.00,184.32,1
307.00,201.08,1
410.00,218.55,1
236.00,235.86,1
430.00,252.07,1
136.00,266.24,1
308.00,276.55,1
251.00,283.54,1
271.00,288.38,1
271.00,291.34,1
320.00,293.32,1
166.00,294.01,1
54.00,290.64,1
138.00,281.86,1
58.00,269.04,1
44.00,252.80,1
91.00,234.07,1
79.00,214.61,1
60.00,195.28,1
376.00,178.89,1
90.00,167.95,1
81.00,159.35,1
234.00,151.57,1
195.00,146.79,1
277.00,145.77,1
227.00,148.27,1
220.00,153.15,1
290.00,159.72,1
378.00,169.20,1
399.00,182.79,1
284.00,199.16,1
301.00,215.50,1
316.00,230.73,1
435.00,245.97,1
302.00,261.70,1
449.00,277.33,1
334.00,292.71,1
282.00,306.29,1
233.00,315.78,1
152.00,319.98,1
39.00,317.34,1
92.00,307.56,1
127.00,292.81,1
40.00,275.07,1
51.00,254.59,1
88.00,232.47,1
100.00,210.69,1
92.00,190.30,1
184.00,172.38,1
207.00,158.57,1
196.00,149.43,1
46.00,142.89,1
268.00,137.79,1
276.00,136.47,1
331.00,140.54,1
295.00,149.14,1
229.00,160.23,1
256.00,171.69,1
306.00,183.38,1
274.00,195.64,1
238.00,207.50,1
286.00,218.22,1
324.00,228.53,1
246.00,238.56,1
251.00,247.11,1
227.00,253.47,1
191.00,257.32,1
143.00,257.92,1
86.00,254.42,1
68.00,246.48,1
54.00,234.56,1
65.00,219.64,1
37.00,202.85,1
76.00,185.15,1
99.00,167.91,1
195.00,153.14,1
238.00,142.90,1
189.00,137.56,1
208.00,135.78,1
189.00,136.57,1
243.00,139.51,1
344.00,145.59,1
347.00,156.08,1
450.00,171.21,1
332.00,190.16,1
401.00,210.84,1
256.00,231.11,1
299.00,248.89,1
178.00,262.67,1
265.00,272.04,1
202.00,277.68,1
198.00,279.88,1
194.00,278.83,1
91.00,274.39,1
91.00,265.77,1
124.00,253.71,1
53.00,239.42,1
79.00,223.15,1
43.00,205.50,1
52.00,187.11,1
70.00,168.75,1
138.00,151.94,1
241.00,138.99,1
298.00,132.11,1
229.00,131.33,1
322.00,135.27,1
300.00,143.52,1
316.00,155.28,1
284.00,169.18,1
310.00,183.99,1
432.00,200.22,1
296.00,218.14,1
392.00,236.25,1
258.00,253.27,1
364.00,268.35,1
211.00,280.82,1
282.00,289.85,1
201.00,295.21,1
282.00,297.52,1
198.00,297.40,1
117.00,294.08,1
171.00,286.85,1
127.00,276.73,1
40.00,263.72,1
93.00,247.56,1
54.00,229.37,1
51.00,210.03,1
49.00,190.03,1
70.00,170.33,1
99.00,152.11,1
134.00,136.56,1
272.00,125.52,1
264.00,120.79,1
270.00,122.06,1
271.00,127.97,1
285.00,137.33,1
301.00,149.37,1
298.00,163.46,1
152.00,177.44,1
448.00,190.89,1
291.00,205.94,1
348.00,221.99,1
141.00,236.17,1
289.00,246.69,1
182.00,253.98,1
271.00,258.75,1
122.00,260.80,1
159.00,259.30,1
127.00,254.24,1
111.00,246.30,1
149.00,236.23,1
46.00,224.54,1
55.00,210.71,1
108.00,195.43,1
59.00,180.07,1
141.00,165.48,1
293.00,154.19,1
214.00,148.28,1
242.00,146.85,1
397.00,149.93,1
316.00,158.54,1
222.00,170.20,1
260.00,181.86,1
289.00,193.24,1
463.00,206.26,1
529.00,223.79,1
524.00,246.72,1
258.00,271.19,1
374.00,292.51,1
108.00,308.22,1
102.00,315.63,1
254.00,315.49,1
379.00,313.11,1
73.00,309.91,1
150.00,302.82,1
102.00,291.38,1
167.00,277.27,1
111.00,261.91,1
58.00,245.27,1
145.00,227.58,1
176.00,210.94,1
91.00,196.19,1
57.00,181.89,1
116.00,167.68,1
371.00,156.80,1
134.00,151.55,1
222.00,149.66,1
406.00,151.40,1
409.00,159.60,1
352.00,173.53,1
382.00,190.72,1
301.00,209.15,1
285.00,226.74,1
404.00,243.16,1
262.00,258.81,1
338.00,272.60,1
325.00,284.51,1
405.00,295.67,1
217.00,305.55,1
423.00,313.37,1
122.00,318.73,1
52.00,318.24,1
96.00,309.85,1
51.00,295.72,1
147.00,278.08,1
167.00,259.74,1
77.00,241.79,1
115.00,223.79,1
69.00,205.80,1
99.00,188.21,1
197.00,172.46,1
198.00,160.51,1
142.00,152.22,1
44.00,145.23,1
66.00,137.57,1
217.00,130.44,1
115.00,125.81,1
419.00,125.33,1
274.00,130.97,1
332.00,141.78,1
417.00,156.51,1
439.00,175.77,1
170.00,196.79,1
374.00,215.77,1
580.00,235.45,1
103.00,256.14,1
379.00,273.02,1
224.00,285.78,1
71.00,293.39,1
116.00,293.51,1
164.00,287.71,1
224.00,279.34,1
71.00,269.34,1
41.00,256.16,1
75.00,239.57,1
144.00,221.82,1
304.00,206.51,1
305.00,196.80,1
115.00,191.40,1
127.00,186.43,1
276.00,181.83,1
184.00,179.47,1
244.00,179.10,1
470.00,182.31,1
177.00,190.00,1
317.00,199.04,1
359.00,208.99,1
336.00,220.95,1
98.00,232.06,1
338.00,240.01,1
214.00,246.29,1
468.00,253.11,1
380.00,262.62,1
356.00,274.28,1
199.00,284.74,1
196.00,291.08,1
215.00,292.91,1
438.00,293.42,1
324.00,295.84,1
110.00,297.78,1
279.00,296.20,1
272.00,292.98,1
72.00,288.21,1
90.00,279.21,1
59.00,265.63,1
382.00,251.40,1
279.00,241.39,1
264.00,235.82,1
350.00,233.35,1
246.00,233.77,1
276.00,235.59,1
647.00,241.20,1
449.00,254.15,1
522.00,272.66,1
458.00,293.90,1
470.00,316.07,1
292.00,336.43,1
330.00,352.23,1
322.00,363.13,1
266.00,369.67,1
405.00,372.84,1
258.00,373.96,1
472.00,373.95,1
365.00,374.53,1
278.00,374.82,1
75.00,370.83,1
54.00,359.48,1
278.00,342.72,1
143.00,324.84,1
98.00,305.96,1
78.00,284.93,1
83.00,262.31,1
240.00,240.42,1
109.00,221.40,1
173.00,204.84,1
232.00,191.17,1
256.00,181.83,1
418.00,178.32,1
390.00,182.15,1
502.00,193.13,1
342.00,209.39,1
266.00,226.89,1
328.00,242.63,1
333.00,256.93,1
455.00,271.33,1
342.00,286.38,1
408.00,301.15,1
364.00,315.02,1
129.00,325.58,1
234.00,329.87,1
140.00,328.29,1
159.00,321.81,1
53.00,310.51,1
59.00,294.32,1
140.00,274.80,1
89.00,254.44,1
80.00,233.83,1
194.00,214.08,1
102.00,196.70,1
127.00,181.33,1
83.00,167.29,1
163.00,154.85,1
215.00,145.43,1
369.00,141.38,1
243.00,143.57,1
303.00,150.02,1
372.00,160.10,1
328.00,173.80,1
467.00,190.87,1
388.00,211.19,1
319.00,232.58,1
231.00,251.53,1
361.00,267.05,1
282.00,280.23,1
374.00,291.71,1
454.00,303.07,1
255.00,314.38,1
277.00,322.82,1
319.00,327.91,1
132.00,329.57,1
221.00,326.62,1
232.00,320.19,1
262.00,312.56,1
209.00,304.42,1
45.00,294.15,1
261.00,281.19,1
89.00,267.47,1
140.00,253.00,1
99.00,237.47,1
199.00,222.26,1
141.00,208.62,1
250.00,197.41,1
316.00,190.30,1
200.00,187.54,1
120.00,186.15,1
403.00,185.92,1
276.00,189.57,1
405.00,197.31,1
204.00,207.35,1
374.00,217.93,1
254.00,228.73,1
341.00,239.49,1
344.00,250.31,1
362.00,261.75,1
169.00,272.01,1
320.00,279.25,1
179.00,283.69,1
235.00,285.22,1
207.00,284.03,1
101.00,279.89,1
44.00,271.21,1
135.00,258.36,1
131.00,243.70,1
49.00,228.18,1
144.00,211.91,1
137.00,196.44,1
46.00,182.03,1
157.00,168.26,1
192.00,156.80,1
297.00,149.84,1
123.00,147.11,1
287.00,147.03,1
204.00,149.58,1
266.00,154.51,1
299.00,161.69,1
308.00,171.55,1
327.00,183.62,1
219.00,196.50,1
776.00,212.50,1
354.00,235.27,1
317.00,259.69,1
333.00,280.57,1
398.00,298.57,1
318.00,314.35,1
212.00,326.24,1
200.00,332.26,1
113.00,331.87,1
273.00,326.42,1
55.00,317.42,1
64.00,303.74,1
46.00,285.14,1
58.00,263.39,1
48.00,239.89,1
107.00,216.23,1
69.00,193.84,1
66.00,173.00,1
119.00,154.07,1
183.00,138.63,1
222.00,128.14,1
166.00,122.52,1
278.00,121.06,1
190.00,123.45,1
80.00,127.28,1
315.00,131.48,1
343.00,139.05,1
392.00,151.76,1
377.00,168.93,1
407.00,189.25,1
267.00,210.47,1
419.00,230.89,1
338.00,250.69,1
670.00,272.02,1
37.00,293.40,1
239.00,307.97,1
281.00,315.46,1
245.00,319.37,1
278.00,320.45,1
197.00,318.94,1
114.00,313.75,1
224.00,304.81,1
156.00,293.87,1
94.00,281.07,1
77.00,265.49,1
75.00,247.56,1
158.00,228.92,1
284.00,212.77,1
230.00,201.35,1
488.00,196.27,1
342.00,198.73,1
407.00,207.10,1
275.00,218.47,1
416.00,231.25,1
194.00,244.06,1
360.00,255.35,1
296.00,265.49,1
393.00,275.52,1
495.00,287.14,1
378.00,301.03,1
392.00,315.24,1
166.00,326.59,1
190.00,331.98,1
184.00,331.08,1
272.00,326.33,1
298.00,320.40,1
216.00,314.25,1
98.00,306.03,1
72.00,293.59,1
151.00,277.67,1
43.00,259.85,1
60.00,240.11,1
121.00,219.54,1
156.00,200.43,1
181.00,184.37,1
380.00,173.52,1
146.00,168.50,1
273.00,166.90,1
268.00,168.10,1
352.00,173.03,1
301.00,181.62,1
507.00,194.33,1
384.00,211.63,1
386.00,231.54,1
410.00,252.02,1
516.00,273.49,1
354.00,295.64,1
624.00,317.98,1
329.00,340.43,1
220.00,358.64,1
54.00,367.42,1
261.00,366.76,1
251.00,360.94,1
151.00,352.12,1
226.00,340.18,1
231.00,326.76,1
70.00,312.04,1
91.00,294.25,1
104.00,273.92,1
77.00,252.49,1
67.00,230.51,1
251.00,209.99,1
272.00,194.41,1
249.00,184.85,1
126.00,178.88,1
380.00,175.70,1
418.00,178.34,1
306.00,187.09,1
382.00,199.27,1
349.00,213.68,1
418.00,229.97,1
228.00,246.42,1
352.00,260.90,1
453.00,274.75,1
509.00,290.83,1
373.00,308.65,1
335.00,325.14,1
230.00,337.44,1
275.00,344.47,1
185.00,346.36,1
184.00,343.17,1
164.00,335.30,1
44.00,322.77,1
354.00,307.60,1
122.00,293.12,1
40.00,277.69,1
58.00,258.87,1
63.00,237.86,1
63.00,216.09,1
181.00,195.45,1
219.00,178.64,1
180.00,166.58,1
223.00,158.57,1
359.00,155.38,1
321.00,158.24,1
276.00,165.70,1
288.00,175.49,1
313.00,186.73,1
359.00,199.65,1
448.00,215.15,1
376.00,233.26,1
371.00,252.27,1
174.00,269.05,1
435.00,282.45,1
141.00,293.09,1
326.00,300.08,1
207.00,303.74,1
216.00,304.36,1
243.00,302.04,1
168.00,297.45,1
165.00,290.26,1
39.00,279.63,1
37.00,264.57,1
50.00,245.70,1
38.00,224.67,1
121.00,203.30,1
155.00,183.93,1
140.00,167.85,1
208.00,155.40,1
208.00,147.15,1
225.00,143.05,1
234.00,142.59,1
193.00,144.91,1
282.00,149.33,1
354.00,156.97,1
220.00,167.62,1
387.00,179.92,1
360.00,194.53,1
66.00,208.91,1
349.00,219.88,1
318.00,229.89,1
293.00,240.47,1
255.00,250.14,1
236.00,257.80,1
184.00,262.65,1
329.00,265.33,1
72.00,266.15,1
70.00,262.43,1
116.00,253.58,1
136.00,242.07,1
55.00,228.99,1
88.00,214.24,1
64.00,198.35,1
109.00,182.39,1
227.00,168.44,1
200.00,158.60,1
351.00,153.98,1
265.00,155.02,1
173.00,159.45,1
372.00,165.68,1
326.00,175.24,1
352.00,188.13,1
331.00,202.96,1
428.00,219.41,1
272.00,236.73,1
238.00,252.07,1
200.00,263.24,1
359.00,271.27,1
71.00,276.58,1
206.00,277.29,1
236.00,274.61,1
202.00,270.74,1
336.00,266.91,1
84.00,263.10,1
188.00,257.21,1
128.00,249.07,1
68.00,238.88,1
94.00,226.21,1
90.00,211.95,1
51.00,196.78,1
128.00,181.38,1
127.00,167.26,1
278.00,156.47,1
271.00,151.03,1
170.00,150.13,1
196.00,151.17,1
188.00,153.16,1
326.00,157.03,1
316.00,164.39,1
322.00,175.14,1
386.00,188.64,1
388.00,204.94,1
392.00,223.41,1
370.00,242.78,1
314.00,261.45,1
273.00,277.49,1
296.00,290.07,1
236.00,299.12,1
288.00,304.83,1
172.00,307.21,1
118.00,305.06,1
210.00,298.40,1
200.00,289.60,1
166.00,279.74,1
274.00,269.64,1
116.00,259.91,1
167.00,249.49,1
68.00,237.55,1
90.00,223.90,1
117.00,209.14,1
342.00,196.52,1
216.00,188.84,1
260.00,185.30,1
251.00,184.65,1
367.00,187.42,1
187.00,193.02,1
134.00,198.13,1
375.00,202.33,1
349.00,209.01,1
380.00,219.23,1
313.00,231.48,1
332.00,244.23,1
319.00,256.55,1
355.00,268.39,1
323.00,279.68,1
262.00,289.46,1
266.00,296.51,1
223.00,300.48,1
135.00,300.50,1
118.00,295.65,1
105.00,286.08,1
50.00,272.41,1
155.00,255.97,1
110.00,238.89,1
92.00,221.84,1
91.00,204.75,1
368.00,190.30,1
198.00,181.51,1
215.00,176.93,1
337.00,175.58,1
144.00,177.29,1
261.00,180.05,1
232.00,183.62,1
276.00,188.55,1
360.00,195.55,1
376.00,205.77,1
322.00,218.57,1
433.00,233.10,1
386.00,249.47,1
336.00,266.40,1
336.00,281.98,1
374.00,295.92,1
264.00,307.88,1
108.00,315.15,1
165.00,315.50,1
70.00,309.55,1
109.00,298.17,1
178.00,283.44,1
70.00,267.28,1
99.00,249.61,1
99.00,230.97,1
48.00,211.99,1
92.00,192.94,1
50.00,174.43,1
116.00,157.12,1
110.00,142.01,1
228.00,130.51,1
204.00,123.87,1
330.00,122.74,1
307.00,127.55,1
271.00,137.11,1
339.00,149.68,1
246.00,164.14,1
409.00,180.01,1
339.00,197.69,1
188.00,215.14,1
356.00,230.14,1
326.00,244.06,1
387.00,258.12,1
263.00,271.54,1
167.00,281.67,1
246.00,287.00,1
205.00,288.65,1
237.00,287.69,1
112.00,283.97,1
54.00,276.02,1
50.00,262.97,1
70.00,246.26,1
58.00,227.48,1
57.00,207.71,1
70.00,187.84,1
137.00,169.29,1
51.00,152.86,1
299.00,139.79,1
140.00,131.75,1
239.00,128.08,1
331.00,128.95,1
380.00,135.94,1
322.00,148.44,1
312.00,164.12,1
478.00,182.42,1
286.00,203.14,1
444.00,224.50,1
382.00,246.17,1
422.00,267.98,1
221.00,287.65,1
358.00,303.16,1
254.00,314.78,1
281.00,322.68,1
49.00,325.17,1
262.00,321.59,1
145.00,314.18,1
100.00,303.57,1
155.00,289.53,1
98.00,273.51,1
79.00,255.83,1
67.00,236.55,1
54.00,216.30,1
97.00,196.02,1
94.00,176.94,1
197.00,160.57,1
300.00,149.35,1
263.00,144.65,1
339.00,145.97,1
272.00,152.14,1
396.00,162.40,1
397.00,177.00,1
352.00,195.02,1
243.00,213.38,1
413.00,230.64,1
311.00,247.52,1
383.00,263.88,1
328.00,279.21,1
324.00,292.90,1
211.00,303.43,1
370.00,310.62,1
195.00,315.27,1
160.00,316.00,1
273.00,312.63,1
161.00,306.88,1
188.00,298.83,1
67.00,287.82,1
50.00,273.02,1
144.00,255.22,1
52.00,236.50,1
86.00,217.22,1
258.00,199.34,1
207.00,185.87,1
103.00,175.89,1
275.00,168.21,1
217.00,163.99,1
257.00,163.35,1
343.00,166.37,1
371.00,174.00,1
339.00,185.83,1
413.00,200.72,1
256.00,217.21,1
373.00,233.27,1
449.00,249.78,1
337.00,267.36,1
399.00,284.46,1
289.00,299.83,1
271.00,311.89,1
244.00,319.65,1
186.00,322.77,1
187.00,321.15,1
152.00,315.18,1
230.00,306.21,1
186.00,295.89,1
144.00,284.40,1
41.00,270.49,1
59.00,253.35,1
42.00,233.63,1
55.00,212.51,1
73.00,191.31,1
173.00,171.97,1
280.00,157.41,1
225.00,149.04,1
412.00,147.24,1
311.00,152.27,1
387.00,162.81,1
341.00,177.20,1
327.00,193.84,1
339.00,211.10,1
375.00,228.66,1
540.00,247.94,1
394.00,269.73,1
312.00,290.92,1
340.00,308.62,1
259.00,322.23,1
163.00,330.32,1
309.00,332.92,1
154.00,331.62,1
173.00,326.11,1
184.00,316.79,1
93.00,304.47,1
219.00,289.85,1
143.00,274.73,1
62.00,258.83,1
73.00,240.93,1
63.00,221.63,1
140.00,202.44,1
231.00,185.91,1
272.00,174.45,1
332.00,169.19,1
278.00,169.59,1
272.00,173.96,1
192.00,179.91,1
329.00,186.63,1
433.00,196.22,1
379.00,210.05,1
424.00,226.92,1
370.00,245.47,1
361.00,264.05,1
482.00,282.43,1
268.00,300.24,1
288.00,314.63,1
268.00,324.37,1
341.00,330.69,1
246.00,334.46,1
333.00,335.92,1
166.00,334.80,1
157.00,329.72,1
199.00,320.50,1
257.00,309.60,1
142.00,298.17,1
76.00,284.74,1
118.00,268.49,1
100.00,250.65,1
79.00,232.07,1
161.00,213.71,1
230.00,197.91,1
268.00,186.71,1
70.00,178.96,1
254.00,172.64,1
261.00,169.05,1
313.00,169.81,1
307.00,174.64,1
435.00,183.77,1
422.00,197.87,1
342.00,215.44,1
351.00,233.72,1
332.00,251.27,1
290.00,267.09,1
164.00,279.18,1
288.00,286.61,1
218.00,290.72,1
206.00,291.91,1
176.00,289.78,1
239.00,285.21,1
233.00,279.62,1
141.00,273.11,1
182.00,264.89,1
77.00,254.65,1
54.00,241.66,1
47.00,225.75,1
65.00,207.95,1
104.00,189.86,1
122.00,173.11,1
193.00,159.12,1
205.00,149.16,1
264.00,143.83,1
278.00,143.38,1
278.00,147.41,1
275.00,154.79,1
311.00,164.72,1
388.00,177.52,1
318.00,193.00,1
360.00,209.80,1
378.00,227.35,1
449.00,246.10,1
314.00,265.37,1
354.00,283.07,1
142.00,296.75,1
398.00,305.92,1
163.00,311.87,1
366.00,315.05,1
175.00,315.89,1
93.00,312.72,1
267.00,305.13,1
44.00,294.78,1
42.00,280.40,1
104.00,262.04,1
65.00,242.03,1
188.00,222.30,1
232.00,205.53,1
142.00,192.55,1
133.00,181.69,1
123.00,171.82,1
244.00,163.80,1
267.00,159.55,1
259.00,159.63,1
339.00,163.72,1
362.00,172.20,1
315.00,184.35,1
408.00,199.17,1
350.00,216.10,1
647.00,236.32,1
387.00,260.61,1
434.00,285.77,1
251.00,307.90,1
279.00,324.59,1
340.00,336.01,1
186.00,343.05,1
158.00,344.28,1
239.00,340.00,1
200.00,332.36,1
38.00,321.20,1
126.00,305.41,1
56.00,286.13,1
105.00,264.84,1
132.00,243.16,1
111.00,222.58,1
161.00,203.84,1
79.00,187.09,1
89.00,171.56,1
102.00,157.05,1
294.00,145.69,1
307.00,140.46,1
310.00,142.03,1
483.00,150.22,1
295.00,164.45,1
404.00,182.03,1
348.00,201.34,1
430.00,222.02,1
339.00,243.18,1
383.00,263.58,1
351.00,282.41,1
204.00,298.03,1
279.00,308.59,1
285.00,315.08,1
155.00,317.90,1
147.00,315.60,1
165.00,308.53,1
222.00,298.73,1
72.00,287.02,1
56.00,272.08,1
153.00,254.48,1
167.00,237.08,1
124.00,221.05,1
140.00,206.14,1
350.00,194.24,1
208.00,187.46,1
393.00,185.72,1
168.00,187.88,1
314.00,191.92,1
259.00,197.35,1
756.00,208.04,1
161.00,225.21,1
162.00,241.05,1
319.00,251.76,1
395.00,261.45,1
304.00,271.87,1
376.00,282.18,1
80.00,290.08,1
484.00,294.92,1
347.00,300.38,1
276.00,306.62,1
170.00,310.04,1
332.00,310.19,1
122.00,307.96,1
99.00,301.65,1
203.00,291.16,1
100.00,278.54,1
138.00,264.20,1
63.00,248.17,1
532.00,234.37,1
148.00,226.70,1
137.00,221.35,1
246.00,215.47,1
160.00,210.40,1
142.00,205.44,1
316.00,201.17,1
413.00,201.10,1
326.00,206.50,1
459.00,216.42,1
334.00,229.86,1
224.00,243.64,1
377.00,255.63,1
255.00,266.48,1
420.00,276.73,1
484.00,288.40,1
543.00,303.74,1
300.00,320.79,1
260.00,334.74,1
176.00,342.50,1
80.00,342.78,1
210.00,336.23,1
172.00,325.67,1
231.00,313.37,1
36.00,299.22,1
144.00,282.24,1
83.00,263.40,1
116.00,243.84,1
57.00,224.00,1
167.00,204.80,1
149.00,187.89,1
162.00,174.01,1
167.00,162.99,1
242.00,155.32,1
230.00,151.68,1
249.00,151.79,1
276.00,155.19,1
347.00,162.18,1
344.00,172.96,1
531.00,188.32,1
370.00,208.40,1
628.00,232.47,1
372.00,259.63,1
424.00,286.50,1
192.00,309.13,1
356.00,325.74,1
229.00,336.96,1
207.00,342.75,1
138.00,342.21,1
402.00,337.79,1
149.00,332.26,1
90.00,323.57,1
77.00,309.62,1
53.00,291.23,1
42.00,269.38,1
108.00,245.90,1
277.00,224.33,1
161.00,207.36,1
127.00,193.61,1
240.00,182.18,1
275.00,174.79,1
209.00,171.67,1
219.00,171.19,1
353.00,173.49,1
480.00,181.18,1
410.00,195.33,1
356.00,213.42,1
299.00,231.87,1
366.00,249.14,1
111.00,263.46,1
463.00,274.31,1
352.00,284.99,1
272.00,295.59,1
154.00,302.53,1
171.00,303.89,1
232.00,300.87,1
197.00,295.49,1
253.00,288.87,1
168.00,281.48,1
202.00,273.10,1
111.00,263.31,1
55.00,251.14,1
43.00,235.76,1
80.00,218.11,1
155.00,200.44,1
182.00,185.11,1
186.00,173.17,1
258.00,165.09,1
210.00,161.02,1
364.00,161.20,1
369.00,166.84,1
430.00,178.36,1
380.00,194.52,1
339.00,213.01,1
348.00,231.64,1
646.00,252.02,1
333.00,275.44,1
393.00,298.20,1
279.00,317.19,1
321.00,331.64,1
279.00,341.58,1
263.00,347.26,1
131.00,347.80,1
89.00,341.83,1
144.00,329.64,1
144.00,313.77,1
142.00,296.06,1
64.00,276.89,1
129.00,256.40,1
46.00,235.40,1
39.00,213.83,1
110.00,192.25,1
220.00,173.46,1
216.00,159.78,1
240.00,151.53,1
180.00,147.48,1
358.00,147.46,1
340.00,152.74,1
370.00,163.38,1
320.00,177.59,1
339.00,193.67,1
373.00,210.83,1
343.00,228.72,1
378.00,246.64,1
461.00,265.05,1
312.00,283.62,1
351.00,300.23,1
110.00,312.17,1
278.00,317.90,1
124.00,318.26,1
112.00,313.24,1
209.00,303.67,1
122.00,291.71,1
170.00,278.12,1
126.00,263.41,1
127.00,248.06,1
43.00,231.70,1
77.00,213.99,1
153.00,196.33,1
117.00,180.56,1
127.00,166.85,1
225.00,155.83,1
282.00,149.42,1
160.00,147.42,1
277.00,148.30,1
337.00,152.75,1
297.00,161.36,1
212.00,172.04,1
390.00,183.65,1
408.00,197.99,1
238.00,214.27,1
448.00,230.59,1
293.00,247.16,1
424.00,263.63,1
302.00,279.38,1
290.00,293.00,1
108.00,301.86,1
295.00,305.27,1
365.00,306.55,1
188.00,307.41,1
160.00,305.33,1
134.00,298.93,1
128.00,288.74,1
76.00,275.28,1
50.00,258.68,1
80.00,239.61,1
52.00,219.36,1
138.00,199.38,1
323.00,182.99,1
290.00,173.33,1
266.00,169.88,1
275.00,170.69,1
350.00,175.29,1
237.00,183.04,1
271.00,191.92,1
273.00,201.04,1
354.00,210.99,1
426.00,223.22,1
297.00,237.55,1
365.00,252.05,1
672.00,268.76,1
354.00,289.58,1
521.00,311.59,1
304.00,332.08,1
291.00,348.39,1
325.00,359.23,1
451.00,367.07,1
173.00,372.48,1
258.00,372.90,1
322.00,369.29,1
50.00,362.22,1
180.00,349.84,1
37.00,332.58,1
50.00,310.95,1
96.00,286.17,1
235.00,261.77,1
148.00,240.48,1
327.00,223.44,1
101.00,210.61,1
339.00,201.06,1
110.00,194.52,1
324.00,190.44,1
176.00,188.75,1
267.00,189.04,1
275.00,191.15,1
490.00,197.24,1
473.00,209.62,1
570.00,228.63,1
342.00,251.66,1
453.00,274.93,1
266.00,296.05,1
229.00,312.35,1
48.00,320.69,1
237.00,321.08,1
192.00,316.67,1
121.00,308.98,1
188.00,298.08,1
60.00,284.57,1
208.00,269.19,1
102.00,253.34,1
120.00,237.34,1
77.00,220.80,1
55.00,203.67,1
164.00,186.83,1
50.00,171.42,1
130.00,157.31,1
226.00,145.82,1
375.00,140.22,1
233.00,141.38,1
414.00,147.94,1
327.00,159.57,1
305.00,174.45,1
339.00,190.55,1
316.00,207.24,1
333.00,223.87,1
303.00,239.72,1
423.00,255.14,1
328.00,270.62,1
484.00,286.36,1
289.00,301.99,1
320.00,315.30,1
234.00,324.60,1
276.00,329.72,1
202.00,330.90,1
94.00,327.25,1
233.00,318.77,1
61.00,306.86,1
143.00,291.77,1
57.00,273.98,1
59.00,253.95,1
55.00,232.24,1
70.00,210.06,1
233.00,189.78,1
243.00,174.52,1
207.00,164.80,1
166.00,158.76,1
360.00,156.35,1
259.00,158.79,1
416.00,166.06,1
318.00,177.70,1
348.00,192.28,1
410.00,208.75,1
382.00,227.17,1
419.00,246.86,1
337.00,266.51,1
331.00,284.40,1
302.00,299.35,1
247.00,310.56,1
316.00,318.00,1
344.00,323.26,1
242.00,326.85,1
236.00,327.56,1
251.00,325.25,1
247.00,320.86,1
127.00,314.13,1
74.00,303.37,1
78.00,288.01,1
56.00,269.13,1
36.00,247.72,1
54.00,224.80,1
356.00,204.07,1
155.00,189.19,1
196.00,178.78,1
307.00,172.04,1
329.00,170.68,1
412.00,175.39,1
320.00,185.46,1
370.00,198.77,1
429.00,214.62,1
323.00,232.44,1
418.00,250.63,1
339.00,268.56,1
372.00,285.45,1
332.00,300.55,1
426.00,314.16,1
349.00,326.79,1
297.00,337.34,1
167.00,343.37,1
127.00,342.90,1
194.00,336.24,1
222.00,326.18,1
143.00,314.21,1
47.00,299.29,1
73.00,280.60,1
82.00,259.43,1
195.00,238.35,1
121.00,219.35,1
76.00,201.90,1
149.00,185.44,1
94.00,170.67,1
165.00,157.96,1
255.00,148.69,1
283.00,144.68,1
366.00,146.65,1
350.00,154.63,1
247.00,166.42,1
386.00,180.06,1
329.00,195.64,1
358.00,212.60,1
324.00,229.78,1
442.00,247.23,1
453.00,266.05,1
404.00,286.05,1
420.00,305.71,1
306.00,323.35,1
169.00,335.99,1
295.00,342.19,1
300.00,344.36,1
239.00,343.99,1
163.00,340.11,1
209.00,332.24,1
44.00,320.44,1
89.00,304.04,1
59.00,283.78,1
38.00,261.06,1
164.00,237.66,1
129.00,216.10,1
119.00,197.03,1
43.00,179.41,1
333.00,164.54,1
316.00,156.26,1
282.00,155.19,1
333.00,159.23,1
414.00,168.31,1
389.00,182.48,1
431.00,200.69,1
672.00,223.88,1
436.00,252.40,1
278.00,280.76,1
389.00,304.44,1
413.00,324.51,1
284.00,341.42,1
164.00,352.45,1
268.00,356.42,1
50.00,353.86,1
275.00,345.48,1
116.00,333.56,1
122.00,318.67,1
73.00,300.37,1
99.00,279.48,1
109.00,257.50,1
102.00,235.75,1
83.00,214.67,1
159.00,195.08,1
200.00,178.71,1
153.00,166.24,1
282.00,157.80,1
277.00,154.40,1
254.00,155.75,1
302.00,160.67,1
258.00,168.34,1
383.00,178.54,1
357.00,191.85,1
310.00,207.28,1
133.00,221.33,1
352.00,232.36,1
279.00,242.29,1
312.00,251.92,1
60.00,258.87,1
224.00,260.98,1
135.00,259.30,1
183.00,255.06,1
102.00,248.37,1
89.00,239.03,1
202.00,228.01,1
195.00,217.79,1
128.00,208.77,1
65.00,199.28,1
114.00,188.54,1
80.00,177.21,1
110.00,165.90,1
216.00,156.09,1
152.00,149.23,1
246.00,145.40,1
192.00,144.58,1
216.00,146.18,1
261.00,149.89,1
302.00,156.35,1
309.00,165.79,1
308.00,177.68,1
368.00,191.54,1
284.00,206.70,1
400.00,222.42,1
306.00,238.50,1
382.00,254.38,1
209.00,268.61,1
344.00,279.99,1
199.00,288.44,1
247.00,293.51,1
125.00,294.45,1
112.00,290.42,1
206.00,282.31,1
132.00,272.25,1
99.00,260.32,1
71.00,245.94,1
49.00,229.27,1
74.00,211.03,1
76.00,192.45,1
44.00,174.22,1
115.00,156.91,1
112.00,141.76,1
266.00,130.57,1
235.00,124.99,1
404.00,125.99,1
287.00,133.66,1
338.00,145.90,1
257.00,160.49,1
226.00,175.22,1
209.00,188.21,1
383.00,200.35,1
332.00,213.75,1
278.00,227.80,1
321.00,240.95,1
327.00,253.27,1
346.00,265.19,1
401.00,277.21,1
295.00,289.10,1
206.00,298.45,1
172.00,302.95,1
206.00,302.59,1
100.00,297.92,1
45.00,288.22,1
169.00,274.28,1
81.00,258.39,1
72.00,241.11,1
72.00,222.43,1
43.00,203.02,1
74.00,183.45,1
185.00,165.62,1
186.00,151.79,1
237.00,142.87,1
308.00,139.37,1
356.00,142.15,1
307.00,150.51,1
334.00,162.64,1
276.00,176.81,1
357.00,192.02,1
301.00,207.93,1
222.00,222.91,1
283.00,235.43,1
350.00,246.56,1
301.00,257.48,1
328.00,267.84,1
263.00,276.94,1
215.00,283.52,1
156.00,286.15,1
207.00,284.76,1
125.00,279.97,1
122.00,271.87,1
194.00,261.35,1
71.00,249.49,1
197.00,236.63,1
37.00,223.17,1
39.00,208.10,1
105.00,191.55,1
85.00,175.40,1
181.00,161.09,1
187.00,150.14,1
191.00,143.03,1
176.00,139.06,1
336.00,138.75,1
363.00,143.93,1
300.00,154.35,1
335.00,167.94,1
212.00,182.49,1
376.00,196.89,1
374.00,212.36,1
430.00,230.00,1
298.00,248.47,1
295.00,265.21,1
173.00,277.90,1
223.00,285.47,1
280.00,289.24,1
273.00,291.25,1
300.00,292.45,1
113.00,291.83,1
138.00,287.13,1
87.00,277.96,1
52.00,264.74,1
72.00,248.01,1
130.00,229.76,1
224.00,212.89,1
167.00,199.22,1
228.00,188.74,1
284.00,182.06,1
231.00,179.49,1
328.00,180.46,1
339.00,185.34,1
356.00,194.17,1
191.00,204.70,1
276.00,214.32,1
320.00,223.33,1
370.00,233.41,1
444.00,245.83,1
485.00,261.54,1
383.00,279.75,1
318.00,297.31,1
210.00,310.98,1
197.00,318.76,1
96.00,319.89,1
170.00,314.83,1
211.00,305.93,1
78.00,294.59,1
164.00,280.59,1
44.00,264.35,1
40.00,245.68,1
50.00,224.78,1
67.00,203.16,1
50.00,181.92,1
58.00,161.61,1
200.00,143.85,1
207.00,131.10,1
100.00,123.00,1
249.00,118.20,1
288.00,117.94,1
193.00,122.34,1
338.00,130.02,1
362.00,141.76,1
360.00,157.83,1
518.00,178.08,1
304.00,201.60,1
378.00,225.29,1
271.00,246.84,1
374.00,265.75,1
244.00,281.77,1
276.00,294.04,1
205.00,301.92,1
235.00,305.54,1
223.00,305.58,1
226.00,302.99,1
189.00,298.14,1
55.00,290.00,1
52.00,277.08,1
52.00,259.84,1
121.00,240.34,1
70.00,220.58,1
259.00,202.56,1
150.00,188.29,1
226.00,177.72,1
247.00,170.83,1
449.00,169.70,1
366.00,175.66,1
360.00,187.14,1
318.00,201.26,1
488.00,217.60,1
280.00,235.83,1
580.00,255.35,1
282.00,276.00,1
376.00,295.14,1
352.00,311.38,1
390.00,325.58,1
224.00,336.79,1
312.00,343.69,1
162.00,345.94,1
141.00,342.54,1
204.00,334.02,1
350.00,323.94,1
155.00,314.30,1
54.00,302.44,1
134.00,286.72,1
56.00,268.46,1
71.00,248.33,1
117.00,227.41,1
72.00,207.11,1
110.00,187.89,1
91.00,170.24,1
108.00,154.51,1
115.00,140.93,1
312.00,131.36,1
195.00,127.49,1
413.00,129.53,1
355.00,138.26,1
332.00,152.34,1
346.00,169.30,1
386.00,188.26,1
340.00,208.52,1
303.00,228.33,1
395.00,246.92,1
322.00,264.59,1
501.00,282.02,1
262.00,299.05,1
264.00,312.75,1
238.00,321.31,1
214.00,325.09,1
194.00,324.26,1
114.00,318.81,1
163.00,308.92,1
49.00,295.15,1
119.00,278.07,1
138.00,259.37,1
61.00,240.32,1
171.00,221.45,1
131.00,204.21,1
84.00,188.63,1
231.00,174.93,1
304.00,165.80,1
378.00,163.46,1
319.00,167.67,1
634.00,178.95,1
428.00,198.29,1
449.00,222.45,1
308.00,246.96,1
393.00,269.48,1
450.00,290.44,1
459.00,311.28,1
261.00,330.30,1
285.00,344.27,1
252.00,352.43,1
236.00,355.41,1
159.00,353.22,1
140.00,345.53,1
250.00,333.97,1
68.00,319.98,1
117.00,302.91,1
55.00,282.82,1
149.00,261.32,1
95.00,240.06,1
53.00,219.18,1
94.00,198.52,1
148.00,179.46,1
168.00,163.67,1
233.00,152.19,1
283.00,146.01,1
251.00,145.17,1
300.00,148.68,1
367.00,156.46,1
359.00,168.68,1
472.00,185.28,1
338.00,205.37,1
408.00,226.71,1
368.00,248.05,1
377.00,268.65,1
227.00,286.56,1
412.00,300.98,1
207.00,312.39,1
360.00,320.55,1
215.00,325.58,1
228.00,327.04,1
295.00,325.28,1
104.00,320.81,1
232.00,312.90,1
138.00,302.40,1
206.00,290.33,1
51.00,276.50,1
37.00,259.62,1
41.00,239.56,1
38.00,217.71,1
131.00,195.91,1
255.00,177.46,1
265.00,165.03,1
263.00,158.77,1
221.00,157.14,1
292.00,158.99,1
383.00,164.94,1
351.00,175.75,1
447.00,190.81,1
425.00,209.76,1
273.00,230.25,1
433.00,249.83,1
420.00,269.32,1
280.00,288.09,1
143.00,302.12,1
270.00,309.72,1
242.00,312.87,1
351.00,314.05,1
143.00,313.53,1
103.00,308.90,1
212.00,299.74,1
153.00,288.50,1
92.00,275.42,1
63.00,259.67,1
96.00,241.67,1
127.00,223.14,1
54.00,205.00,1
72.00,186.98,1
174.00,170.19,1
106.00,156.14,1
194.00,145.11,1
203.00,137.70,1
231.00,134.37,1
240.00,134.87,1
386.00,139.86,1
325.00,150.06,1
452.00,165.16,1
391.00,184.68,1
388.00,206.86,1
390.00,229.76,1
411.00,252.62,1
274.00,273.91,1
358.00,291.92,1
299.00,306.60,1
352.00,318.43,1
224.00,327.03,1
109.00,330.23,1
199.00,327.09,1
80.00,318.77,1
161.00,306.22,1
47.00,290.20,1
155.00,271.81,1
75.00,252.42,1
74.00,232.46,1
55.00,211.89,1
78.00,191.43,1
82.00,171.99,1
88.00,154.25,1
227.00,139.66,1
223.00,130.31,1
228.00,126.39,1
268.00,127.05,1
275.00,131.92,1
353.00,140.94,1
417.00,154.75,1
393.00,173.16,1
325.00,194.10,1
368.00,215.26,1
277.00,235.29,1
414.00,253.77,1
227.00,270.44,1
293.00,283.77,1
225.00,293.09,1
210.00,298.33,1
210.00,299.48,1
185.00,297.18,1
195.00,292.02,1
57.00,283.68,1
172.00,271.95,1
41.00,257.69,1
112.00,241.37,1
49.00,223.59,1
40.00,204.74,1
58.00,185.21,1
45.00,165.88,1
178.00,148.40,1
195.00,135.12,1
212.00,127.05,1
201.00,123.51,1
292.00,124.20,1
266.00,129.28,1
307.00,138.26,1
326.00,150.48,1
314.00,165.30,1
379.00,182.20,1
345.00,200.73,1
392.00,220.28,1
350.00,240.13,1
460.00,260.10,1
164.00,278.55,1
259.00,291.99,1
268.00,300.39,1
266.00,305.60,1
208.00,307.76,1
65.00,305.42,1
189.00,297.86,1
133.00,287.06,1
50.00,273.48,1
69.00,256.58,1
82.00,237.50,1
128.00,218.08,1
64.00,199.43,1
180.00,182.28,1
207.00,168.45,1
294.00,159.72,1
238.00,156.33,1
269.00,157.24,1
288.00,161.53,1
332.00,169.20,1
354.00,180.28,1
348.00,194.23,1
439.00,210.70,1
330.00,229.18,1
362.00,247.72,1
236.00,264.28,1
366.00,278.05,1
256.00,289.43,1
354.00,298.68,1
184.00,305.33,1
130.00,307.28,1
39.00,302.60,1
88.00,291.45,1
144.00,276.25,1
64.00,259.21,1
109.00,240.85,1
71.00,221.79,1
38.00,202.39,1
119.00,183.14,1
84.00,165.44,1
74.00,149.50,1
183.00,135.87,1
268.00,126.88,1
288.00,124.18,1
364.00,127.95,1
273.00,137.33,1
263.00,149.60,1
320.00,163.26,1
350.00,178.60,1
428.00,196.34,1
335.00,216.17,1
478.00,237.11,1
311.00,258.40,1
382.00,278.32,1
176.00,294.60,1
351.00,306.22,1
238.00,314.17,1
178.00,318.09,1
197.00,317.13,1
139.00,311.76,1
215.00,303.03,1
165.00,292.45,1
122.00,280.23,1
102.00,265.88,1
56.00,249.36,1
66.00,230.89,1
46.00,211.15,1
144.00,191.64,1
183.00,174.75,1
164.00,161.73,1
231.00,152.65,1
305.00,148.43,1
306.00,149.76,1
375.00,156.49,1
246.00,167.16,1
326.00,179.61,1
554.00,195.11,1
364.00,215.44,1
354.00,237.25,1
390.00,258.05,1
384.00,277.87,1
352.00,296.23,1
378.00,312.50,1
268.00,325.90,1
324.00,335.52,1
233.00,341.25,1
207.00,342.54,1
204.00,339.24,1
114.00,331.56,1
236.00,320.28,1
83.00,306.67,1
160.00,290.73,1
36.00,272.65,1
117.00,252.78,1
81.00,232.24,1
127.00,212.29,1
90.00,193.63,1
160.00,176.91,1
205.00,163.44,1
299.00,154.99,1
270.00,152.29,1
287.00,154.60,1
295.00,160.66,1
446.00,170.91,1
423.00,186.49,1
362.00,205.83,1
320.00,225.86,1
383.00,245.07,1
364.00,263.58,1
455.00,281.88,1
282.00,299.32,1
323.00,313.77,1
209.00,323.77,1
277.00,329.10,1
195.00,330.13,1
196.00,327.13,1
164.00,320.26,1
116.00,309.62,1
105.00,295.43,1
42.00,277.89,1
52.00,257.28,1
97.00,235.14,1
65.00,213.11,1
84.00,191.85,1
172.00,172.71,1
149.00,157.21,1
264.00,146.28,1
127.00,139.79,1
250.00,136.59,1
379.00,137.95,1
374.00,145.86,1
348.00,159.36,1
316.00,175.84,1
303.00,193.13,1
310.00,210.07,1
386.00,226.83,1
369.00,244.06,1
343.00,261.24,1
370.00,277.43,1
277.00,291.81,1
268.00,302.93,1
162.00,309.39,1
187.00,310.53,1
216.00,307.33,1
117.00,300.79,1
157.00,290.89,1
56.00,277.77,1
50.00,261.17,1
74.00,241.86,1
75.00,221.45,1
56.00,200.92,1
108.00,181.09,1
98.00,163.10,1
132.00,147.64,1
99.00,134.83,1
216.00,125.15,1
181.00,119.52,1
407.00,119.44,1
347.00,126.50,1
367.00,139.77,1
347.00,157.07,1
356.00,176.73,1
319.00,197.23,1
478.00,218.48,1
354.00,240.95,1
464.00,263.72,1
357.00,285.83,1
386.00,306.12,1
326.00,323.44,1
231.00,336.39,1
242.00,343.65,1
179.00,345.19,1
188.00,341.48,1
140.00,333.12,1
85.00,320.28,1
55.00,302.91,1
56.00,281.77,1
72.00,258.37,1
41.00,233.96,1
90.00,209.69,1
49.00,186.52,1
196.00,165.92,1
217.00,150.23,1
257.00,140.67,1
269.00,137.10,1
229.00,138.32,1
354.00,143.61,1
374.00,153.77,1
478.00,169.44,1
317.00,189.43,1
416.00,210.98,1
348.00,232.79,1
581.00,255.68,1
329.00,279.80,1
428.00,302.68,1
201.00,321.52,1
226.00,333.95,1
110.00,338.63,1
139.00,335.79,1
202.00,327.38,1
87.00,315.32,1
138.00,299.98,1
68.00,281.93,1
126.00,262.21,1
54.00,241.61,1
39.00,220.19,1
150.00,198.95,1
116.00,179.98,1
212.00,164.54,1
201.00,153.51,1
258.00,147.27,1
398.00,146.91,1
377.00,153.65,1
382.00,166.46,1
396.00,183.46,1
400.00,203.33,1
348.00,224.50,1
422.00,245.71,1
376.00,266.68,1
426.00,287.07,1
192.00,304.81,1
292.00,317.29,1
217.00,324.44,1
269.00,327.36,1
234.00,326.93,1
97.00,322.66,1
141.00,313.45,1
95.00,300.00,1
77.00,283.15,1
96.00,263.83,1
124.00,243.65,1
97.00,223.90,1
160.00,205.43,1
166.00,189.41,1
197.00,176.68,1
272.00,168.06,1
272.00,164.35,1
254.00,164.96,1
302.00,168.96,1
286.00,175.89,1
351.00,185.50,1
366.00,197.90,1
622.00,214.84,1
386.00,237.13,1
311.00,260.36,1
288.00,280.12,1
453.00,296.96,1
228.00,311.68,1
304.00,322.60,1
156.00,328.40,1
164.00,328.40,1
236.00,323.47,1
103.00,315.07,1
139.00,303.04,1
78.00,287.60,1
47.00,269.14,1
46.00,248.00,1
71.00,225.44,1
189.00,203.95,1
108.00,185.48,1
180.00,170.16,1
270.00,159.01,1
353.00,154.20,1
256.00,155.77,1
331.00,161.74,1
406.00,171.88,1
259.00,185.54,1
462.00,201.26,1
345.00,219.21,1
418.00,238.65,1
242.00,257.30,1
341.00,273.23,1
313.00,286.52,1
315.00,297.73,1
136.00,305.32,1
293.00,308.24,1
219.00,308.01,1
147.00,304.90,1
242.00,298.65,1
43.00,289.60,1
176.00,277.29,1
53.00,262.40,1
47.00,245.13,1
43.00,225.51,1
80.00,204.82,1
117.00,184.99,1
143.00,167.58,1
412.00,155.57,1
191.00,150.91,1
365.00,151.92,1
356.00,158.24,1
352.00,169.70,1
376.00,184.68,1
339.00,201.88,1
402.00,220.36,1
269.00,238.80,1
392.00,255.93,1
338.00,271.99,1
499.00,288.16,1
304.00,304.48,1
263.00,318.14,1
303.00,327.35,1
216.00,332.49,1
248.00,333.52,1
115.00,330.04,1
126.00,321.47,1
89.00,308.13,1
94.00,291.10,1
71.00,271.38,1
50.00,249.78,1
60.00,227.04,1
43.00,204.02,1
124.00,182.00,1
173.00,163.08,1
164.00,148.60,1
294.00,139.26,1
221.00,135.62,1
301.00,137.00,1
405.00,143.67,1
380.00,156.27,1
330.00,173.03,1
354.00,191.65,1
343.00,210.86,1
420.00,230.57,1
412.00,251.15,1
477.00,272.70,1
369.00,294.37,1
389.00,314.37,1
242.00,330.65,1
271.00,341.56,1
136.00,346.16,1
250.00,344.71,1
154.00,338.68,1
96.00,328.31,1
108.00,313.26,1
39.00,294.37,1
52.00,272.21,1
57.00,248.02,1
44.00,223.15,1
114.00,199.03,1
112.00,177.29,1
160.00,159.04,1
212.00,145.22,1
268.00,136.99,1
247.00,134.43,1
260.00,136.49,1
321.00,142.54,1
334.00,152.64,1
381.00,166.62,1
366.00,183.85,1
416.00,203.50,1
345.00,224.51,1
390.00,245.42,1
293.00,264.91,1
404.00,282.37,1
272.00,297.64,1
228.00,309.13,1
112.00,314.61,1
216.00,313.83,1
90.00,308.08,1
76.00,297.38,1
144.00,282.57,1
84.00,265.67,1
83.00,247.33,1
38.00,227.61,1
63.00,206.92,1
111.00,186.63,1
72.00,167.99,1
73.00,150.98,1
120.00,135.86,1
318.00,125.10,1
222.00,120.83,1
307.00,122.43,1
279.00,128.78,1
311.00,139.08,1
296.00,152.25,1
378.00,167.85,1
343.00,185.67,1
332.00,204.66,1
389.00,223.88,1
300.00,242.72,1
362.00,260.18,1
277.00,275.60,1
468.00,289.65,1
262.00,302.94,1
305.00,313.74,1
195.00,320.39,1
37.00,320.94,1
197.00,314.52,1
73.00,303.43,1
112.00,288.74,1
64.00,271.04,1
80.00,251.28,1
48.00,230.19,1
65.00,208.54,1
68.00,187.19,1
73.00,167.04,1
194.00,149.58,1
193.00,136.78,1
300.00,129.82,1
297.00,129.27,1
303.00,134.50,1
345.00,144.43,1
253.00,157.51,1
328.00,171.99,1
204.00,186.54,1
383.00,200.67,1
338.00,215.60,1
345.00,231.40,1
271.00,246.50,1
290.00,259.54,1
256.00,270.03,1
256.00,277.79,1
139.00,281.98,1
173.00,281.68,1
163.00,277.47,1
92.00,269.97,1
98.00,259.04,1
53.00,244.98,1
141.00,229.05,1
47.00,212.54,1
42.00,195.23,1
109.00,177.57,1
119.00,161.41,1
143.00,147.86,1
198.00,137.68,1
246.00,131.90,1
260.00,131.01,1
272.00,134.65,1
309.00,142.22,1
308.00,153.22,1
345.00,167.05,1
265.00,182.51,1
387.00,198.66,1
300.00,215.50,1
338.00,232.12,1
241.00,247.14,1
279.00,259.46,1
167.00,268.25,1
234.00,273.07,1
226.00,274.78,1
166.00,274.05,1
122.00,270.02,1
40.00,261.67,1
108.00,249.27,1
54.00,234.18,1
110.00,217.70,1
71.00,200.77,1
48.00,183.76,1
110.00,167.03,1
110.00,151.91,1
166.00,139.51,1
202.00,130.80,1
226.00,126.42,1
272.00,126.62,1
300.00,131.43,1
346.00,140.77,1
305.00,153.93,1
305.00,169.23,1
256.00,184.93,1
451.00,201.25,1
386.00,219.82,1
459.00,240.53,1
305.00,261.62,1
212.00,279.58,1
103.00,290.87,1
142.00,294.43,1
222.00,292.35,1
156.00,287.26,1
78.00,278.99,1
58.00,266.54,1
109.00,250.74,1
42.00,233.05,1
71.00,214.08,1
67.00,194.66,1
44.00,175.51,1
90.00,157.18,1
102.00,140.76,1
192.00,127.65,1
297.00,119.95,1
227.00,118.49,1
174.00,121.15,1
375.00,127.04,1
244.00,136.93,1
218.00,148.83,1
268.00,160.78,1
235.00,172.70,1
294.00,184.59,1
313.00,196.94,1
368.00,210.44,1
287.00,224.80,1
367.00,239.13,1
629.00,255.72,1
395.00,276.61,1
212.00,296.82,1
508.00,313.33,1
348.00,328.54,1
232.00,341.09,1
270.00,348.27,1
177.00,349.99,1
112.00,345.85,1
40.00,334.82,1
81.00,317.63,1
45.00,296.14,1
166.00,272.82,1
109.00,250.08,1
124.00,228.72,1
58.00,208.36,1
232.00,189.89,1
65.00,174.43,1
256.00,162.03,1
533.00,156.51,1
392.00,161.42,1
303.00,173.31,1
417.00,188.40,1
70.00,203.64,1
343.00,215.92,1
272.00,226.62,1
345.00,237.42,1
248.00,247.79,1
302.00,256.93,1
158.00,263.74,1
216.00,267.10,1
137.00,266.76,1
145.00,262.94,1
167.00,256.22,1
71.00,247.14,1
96.00,235.44,1
94.00,221.73,1
66.00,206.89,1
194.00,192.23,1
45.00,178.87,1
140.00,166.30,1
286.00,156.30,1
246.00,151.44,1
427.00,152.65,1
296.00,160.10,1
238.00,170.90,1
302.00,182.35,1
304.00,194.49,1
273.00,207.04,1
259.00,218.92,1
85.00,227.94,1
418.00,234.25,1
284.00,241.27,1
251.00,248.87,1
284.00,255.26,1
300.00,260.93,1
184.00,265.43,1
118.00,266.59,1
50.00,262.50,1
508.00,256.69,1
269.00,254.81,1
136.00,254.72,1
79.00,251.34,1
53.00,243.35,1
92.00,231.51,1
42.00,217.13,1
107.00,201.35,1
112.00,185.74,1
48.00,170.85,1
226.00,157.46,1
218.00,148.04,1
326.00,144.22,1
249.00,145.80,1
307.00,151.55,1
314.00,160.60,1
351.00,172.85,1
382.00,188.03,1
307.00,205.14,1
378.00,222.72,1
400.00,240.78,1
454.00,260.01,1
194.00,278.43,1
225.00,292.05,1
226.00,299.92,1
171.00,302.99,1
226.00,301.80,1
215.00,297.83,1
200.00,292.06,1
160.00,284.37,1
136.00,274.53,1
77.00,262.17,1
174.00,247.89,1
50.00,232.75,1
110.00,216.73,1
80.00,200.24,1
89.00,184.07,1
242.00,169.83,1
162.00,159.48,1
80.00,151.68,1
190.00,144.97,1
190.00,140.44,1
284.00,139.47,1
61.00,140.88,1
307.00,143.19,1
308.00,148.39,1
333.00,157.83,1
244.00,169.85,1
284.00,182.51,1
262.00,194.99,1
490.00,208.76,1
124.00,223.62,1
231.00,235.52,1
136.00,242.74,1
351.00,247.26,1
198.00,251.08,1
150.00,253.10,1
77.00,250.98,1
78.00,244.18,1
195.00,234.45,1
130.00,224.25,1
64.00,213.34,1
94.00,200.89,1
79.00,187.53,1
130.00,174.33,1
238.00,163.32,1
193.00,156.14,1
199.00,152.30,1
278.00,151.53,1
252.00,154.25,1
322.00,160.31,1
264.00,169.23,1
352.00,180.34,1
272.00,193.05,1
354.00,206.67,1
370.00,221.41,1
196.00,235.94,1
383.00,248.65,1
254.00,260.14,1
363.00,270.63,1
181.00,279.25,1
53.00,283.02,1
103.00,279.73,1
80.00,270.72,1
152.00,258.33,1
56.00,243.98,1
45.00,227.55,1
49.00,209.10,1
53.00,189.73,1
91.00,170.78,1
108.00,153.56,1
200.00,139.59,1
57.00,129.05,1
84.00,120.07,1
404.00,114.48,1
181.00,115.42,1
203.00,120.30,1
371.00,127.95,1
216.00,139.21,1
294.00,152.23,1
416.00,167.17,1
282.00,184.71,1
291.00,202.44,1
310.00,218.92,1
329.00,234.48,1
149.00,247.77,1
162.00,256.21,1
257.00,260.18,1
158.00,261.47,1
117.00,259.50,1
124.00,253.70,1
190.00,245.45,1
168.00,236.63,1
98.00,227.27,1
46.00,216.02,1
58.00,202.40,1
76.00,187.32,1
167.00,172.78,1
77.00,160.04,1
140.00,148.88,1
183.00,139.95,1
214.00,134.52,1
335.00,133.80,1
433.00,139.69,1
269.00,151.78,1
253.00,166.08,1
308.00,180.42,1
331.00,195.31,1
178.00,209.64,1
277.00,221.57,1
312.00,231.93,1
392.00,242.84,1
148.00,253.37,1
325.00,261.37,1
110.00,266.26,1
209.00,267.40,1
160.00,265.13,1
78.00,259.61,1
136.00,250.58,1
48.00,238.70,1
182.00,225.23,1
46.00,211.32,1
158.00,197.32,1
139.00,184.30,1
61.00,172.41,1
40.00,160.16,1
108.00,147.61,1
91.00,136.05,1
208.00,126.90,1
157.00,121.23,1
289.00,119.61,1
337.00,123.28,1
348.00,132.85,1
219.00,146.13,1
197.00,159.53,1
202.00,171.18,1
410.00,182.73,1
352.00,196.88,1
403.00,213.67,1
244.00,230.96,1
239.00,245.81,1
255.00,257.04,1
122.00,264.28,1
156.00,266.45,1
146.00,263.99,1
201.00,258.78,1
157.00,252.07,1
66.00,243.38,1
82.00,231.76,1
49.00,217.60,1
69.00,201.65,1
137.00,185.55,1
108.00,170.91,1
120.00,158.04,1
135.00,147.03,1
136.00,138.15,1
129.00,131.27,1
195.00,126.56,1
319.00,125.71,1
275.00,130.10,1
207.00,138.10,1
303.00,147.83,1
239.00,159.04,1
432.00,172.32,1
265.00,188.01,1
297.00,204.14,1
273.00,219.00,1
217.00,231.81,1
184.00,241.23,1
223.00,247.09,1
43.00,248.89,1
133.00,245.65,1
235.00,239.54,1
50.00,232.35,1
73.00,222.57,1
99.00,210.25,1
119.00,197.12,1
49.00,183.83,1
42.00,169.78,1
106.00,155.47,1
139.00,142.70,1
149.00,132.69,1
271.00,126.54,1
214.00,125.21,1
264.00,128.01,1
288.00,134.40,1
295.00,144.19,1
250.00,156.24,1
348.00,169.70,1
330.00,184.93,1
324.00,201.38,1
270.00,217.56,1
445.00,233.48,1
346.00,250.34,1
402.00,267.59,1
252.00,283.45,1
236.00,295.53,1
182.00,302.44,1
213.00,304.43,1
156.00,302.13,1
36.00,295.00,1
36.00,282.01,1
86.00,264.34,1
71.00,244.48,1
102.00,224.00,1
38.00,203.64,1
80.00,183.56,1
116.00,164.81,1
118.00,148.68,1
155.00,135.71,1
282.00,127.24,1
227.00,124.43,1
302.00,126.82,1
265.00,133.47,1
355.00,143.89,1
431.00,158.63,1
226.00,176.57,1
338.00,194.46,1
265.00,211.28,1
257.00,226.39,1
224.00,238.67,1
204.00,247.64,1
250.00,253.52,1
294.00,257.86,1
246.00,261.60,1
220.00,264.10,1
187.00,264.47,1
62.00,261.45,1
128.00,254.12,1
132.00,243.84,1
144.00,232.41,1
58.00,219.97,1
76.00,205.99,1
89.00,191.02,1
80.00,176.11,1
100.00,161.85,1
90.00,148.71,1
160.00,137.44,1
211.00,129.45,1
251.00,126.01,1
289.00,127.49,1
228.00,133.16,1
355.00,142.13,1
257.00,154.16,1
284.00,167.72,1
280.00,181.60,1
402.00,196.48,1
270.00,212.47,1
288.00,227.77,1
283.00,241.20,1
198.00,252.12,1
215.00,259.47,1
236.00,263.63,1
225.00,265.60,1
81.00,264.65,1
61.00,258.87,1
111.00,248.54,1
168.00,236.17,1
40.00,222.97,1
90.00,208.33,1
36.00,192.42,1
126.00,176.34,1
38.00,160.98,1
80.00,146.31,1
132.00,133.05,1
136.00,122.55,1
49.00,114.26,1
201.00,107.79,1
244.00,105.07,1
271.00,107.44,1
279.00,114.56,1
323.00,125.69,1
275.00,139.92,1
299.00,155.80,1
242.00,171.94,1
356.00,187.93,1
171.00,203.20,1
441.00,217.50,1
262.00,232.06,1
242.00,245.43,1
198.00,255.28,1
405.00,262.94,1
234.00,270.35,1
128.00,275.31,1
127.00,275.11,1
97.00,269.82,1
134.00,260.60,1
45.00,248.33,1
41.00,232.98,1
103.00,215.46,1
149.00,198.31,1
269.00,184.25,1
215.00,174.97,1
215.00,169.69,1
364.00,168.40,1
278.00,171.94,1
228.00,178.46,1
306.00,186.13,1
392.00,195.96,1
260.00,208.11,1
335.00,220.75,1
364.00,233.74,1
387.00,247.85,1
293.00,262.24,1
351.00,275.45,1
362.00,287.60,1
244.00,298.23,1
175.00,304.91,1
202.00,306.50,1
149.00,303.54,1
123.00,296.38,1
177.00,285.86,1
90.00,273.05,1
148.00,258.42,1
66.00,242.52,1
101.00,225.50,1
50.00,207.74,1
119.00,190.04,1
127.00,173.71,1
106.00,159.51,1
228.00,148.15,1
151.00,140.56,1
242.00,136.56,1
208.00,136.01,1
176.00,138.02,1
412.00,143.05,1
176.00,151.90,1
321.00,162.60,1
294.00,174.59,1
457.00,189.26,1
295.00,206.66,1
262.00,223.90,1
199.00,238.00,1
208.00,248.00,1
57.00,252.93,1
179.00,252.36,1
302.00,249.51,1
131.00,246.64,1
226.00,242.83,1
39.00,237.02,1
102.00,228.14,1
78.00,216.46,1
70.00,203.13,1
162.00,189.40,1
118.00,176.94,1
135.00,166.03,1
130.00,156.52,1
164.00,148.74,1
230.00,143.60,1
136.00,141.21,1
227.00,140.74,1
271.00,142.82,1
262.00,148.21,1
185.00,155.51,1
416.00,164.59,1
91.00,175.21,1
303.00,184.93,1
186.00,193.51,1
277.00,201.49,1
235.00,208.97,1
368.00,216.94,1
62.00,224.37,1
90.00,227.35,1
174.00,225.51,1
36.00,220.58,1
155.00,212.87,1
96.00,203.63,1
127.00,193.79,1
36.00,183.10,1
52.00,170.96,1
128.00,158.30,1
90.00,146.75,1
114.00,136.60,1
117.00,127.97,1
153.00,121.33,1
258.00,117.91,1
254.00,119.12,1
202.00,124.14,1
293.00,131.75,1
310.00,142.32,1
157.00,154.50,1
393.00,167.08,1
310.00,181.52,1
246.00,196.94,1
206.00,210.47,1
221.00,221.06,1
204.00,228.82,1
178.00,233.78,1
152.00,235.70,1
72.00,233.89,1
192.00,228.77,1
42.00,221.40,1
86.00,211.45,1
54.00,199.07,1
40.00,184.99,1
59.00,169.78,1
65.00,154.43,1
43.00,139.57,1
64.00,125.44,1
210.00,113.70,1
166.00,106.38,1
245.00,103.80,1
354.00,106.77,1
284.00,115.81,1
335.00,129.24,1
270.00,145.31,1
403.00,163.35,1
304.00,183.12,1
430.00,204.05,1
326.00,225.59,1
291.00,245.88,1
122.00,261.64,1
188.00,270.89,1
153.00,274.27,1
40.00,272.07,1
102.00,264.11,1
42.00,251.67,1
113.00,236.26,1
96.00,219.72,1
38.00,202.70,1
195.00,186.04,1
120.00,171.76,1
148.00,160.05,1
159.00,150.63,1
228.00,144.23,1
237.00,141.66,1
138.00,141.97,1
216.00,143.53,1
187.00,146.24,1
312.00,150.94,1
298.00,158.71,1
302.00,169.35,1
250.00,181.40,1
321.00,193.82,1
187.00,205.78,1
477.00,217.75,1
226.00,230.97,1
230.00,242.97,1
127.00,250.79,1
153.00,253.65,1
97.00,251.81,1
94.00,245.72,1
123.00,236.36,1
83.00,224.88,1
119.00,212.08,1
121.00,199.00,1
71.00,186.03,1
124.00,173.20,1
65.00,160.90,1
150.00,149.56,1
70.00,139.60,1
102.00,130.65,1
222.00,123.64,1
228.00,120.64,1
224.00,121.86,1
127.00,125.46,1
289.00,130.40,1
236.00,137.65,1
263.00,147.14,1
247.00,157.85,1
310.00,169.61,1
262.00,182.32,1
484.00,196.86,1
106.00,212.50,1
228.00,225.00,1
175.00,233.12,1
128.00,237.35,1
185.00,237.78,1
127.00,235.38,1
97.00,230.19,1
73.00,221.87,1
43.00,210.54,1
52.00,196.65,1
175.00,182.24,1
141.00,169.76,1
66.00,158.98,1
214.00,149.56,1
195.00,143.14,1
226.00,140.39,1
198.00,140.68,1
270.00,143.65,1
304.00,149.80,1
165.00,158.19,1
285.00,166.94,1
208.00,175.87,1
298.00,185.13,1
281.00,195.03,1
375.00,206.34,1
219.00,218.49,1
158.00,228.53,1
216.00,234.78,1
139.00,237.75,1
168.00,237.59,1
74.00,234.15,1
221.00,228.20,1
52.00,220.81,1
43.00,210.91,1
131.00,198.55,1
53.00,185.56,1
103.00,172.34,1
55.00,159.18,1
159.00,146.99,1
94.00,136.73,1
187.00,128.84,1
255.00,124.54,1
252.00,125.04,1
430.00,131.16,1
274.00,142.93,1
217.00,157.04,1
279.00,170.74,1
370.00,185.00,1
80.00,198.80,1
221.00,208.94,1
294.00,216.48,1
315.00,224.34,1
289.00,232.91,1
201.00,240.77,1
152.00,245.76,1
79.00,246.23,1
136.00,242.09,1
199.00,235.44,1
107.00,227.89,1
89.00,218.73,1
53.00,207.27,1
81.00,193.96,1
61.00,179.66,1
74.00,165.14,1
208.00,152.08,1
172.00,142.65,1
167.00,136.70,1
194.00,133.47,1
376.00,134.37,1
211.00,140.22,1
228.00,148.52,1
264.00,157.65,1
254.00,167.74,1
291.00,178.66,1
354.00,190.91,1
213.00,203.93,1
308.00,216.07,1
274.00,227.27,1
210.00,237.09,1
131.00,243.51,1
111.00,245.07,1
86.00,241.76,1
112.00,234.45,1
199.00,225.29,1
46.00,215.46,1
127.00,204.31,1
91.00,192.27,1
52.00,179.73,1
89.00,166.56,1
268.00,155.17,1
182.00,148.09,1
198.00,144.69,1
340.00,144.98,1
273.00,149.97,1
207.00,157.86,1
241.00,166.32,1
255.00,175.07,1
239.00,184.12,1
223.00,192.83,1
325.00,201.43,1
208.00,210.24,1
250.00,218.18,1
198.00,224.48,1
229.00,229.06,1
125.00,231.41,1
93.00,230.24,1
153.00,225.51,1
92.00,218.51,1
148.00,209.94,1
41.00,200.00,1
70.00,188.29,1
72.00,175.24,1
157.00,162.56,1
218.00,152.55,1
175.00,146.25,1
167.00,142.74,1
141.00,140.73,1
281.00,140.61,1
242.00,143.75,1
272.00,149.92,1
238.00,158.14,1
256.00,167.48,1
246.00,177.27,1
250.00,187.11,1
258.00,196.71,1
222.00,205.67,1
224.00,213.33,1
134.00,218.73,1
295.00,222.12,1
121.00,224.33,1
192.00,224.63,1
137.00,222.69,1
102.00,218.53,1
95.00,211.74,1
173.00,203.39,1
100.00,194.79,1
45.00,185.27,1
88.00,174.17,1
74.00,162.41,1
74.00,150.66,1
148.00,139.80,1
135.00,131.10,1
129.00,124.69,1
226.00,120.80,1
291.00,121.10,1
230.00,125.90,1
204.00,133.31,1
170.00,141.22,1
284.00,149.40,1
255.00,158.90,1
251.00,169.55,1
304.00,180.82,1
228.00,192.42,1
245.00,203.19,1
264.00,212.77,1
185.00,220.93,1
125.00,226.06,1
165.00,227.43,1
36.00,224.98,1
107.00,218.44,1
115.00,209.23,1
46.00,198.47,1
50.00,185.81,1
73.00,171.83,1
116.00,158.07,1
136.00,146.03,1
152.00,136.53,1
98.00,129.25,1
101.00,123.16,1
196.00,118.57,1
196.00,116.85,1
213.00,118.33,1
228.00,122.60,1
186.00,128.86,1
236.00,136.30,1
268.00,145.13,1
238.00,155.43,1
294.00,166.74,1
300.00,179.12,1
174.00,191.46,1
206.00,201.55,1
157.00,208.71,1
121.00,212.53,1
84.00,212.34,1
103.00,208.36,1
151.00,202.05,1
51.00,194.31,1
115.00,185.03,1
168.00,175.55,1
37.00,166.56,1
131.00,157.29,1
84.00,148.19,1
228.00,140.74,1
282.00,137.23,1
182.00,138.16,1
237.00,141.63,1
220.00,146.83,1
298.00,154.04,1
191.00,162.76,1
309.00,172.20,1
284.00,182.76,1
313.00,194.60,1
256.00,206.82,1
251.00,218.17,1
256.00,227.96,1
189.00,235.72,1
133.00,240.14,1
121.00,240.29,1
116.00,236.47,1
84.00,229.33,1
127.00,219.67,1
41.00,208.13,1
42.00,194.53,1
127.00,179.86,1
54.00,165.66,1
124.00,152.35,1
108.00,140.60,1
135.00,130.95,1
182.00,123.94,1
162.00,119.98,1
302.00,119.70,1
142.00,123.06,1
232.00,128.31,1
234.00,135.04,1
292.00,143.95,1
260.00,154.90,1
225.00,166.71,1
312.00,178.63,1
350.00,191.72,1
250.00,205.79,1
250.00,218.78,1
231.00,229.52,1
185.00,237.49,1
169.00,242.03,1
115.00,242.70,1
76.00,239.01,1
63.00,230.95,1
40.00,219.16,1
37.00,204.35,1
53.00,187.72,1
124.00,171.08,1
82.00,155.93,1
235.00,143.59,1
238.00,136.02,1
239.00,133.70,1
235.00,135.41,1
310.00,140.66,1
299.00,149.62,1
144.00,160.20,1
320.00,170.46,1
310.00,181.71,1
386.00,195.25,1
184.00,209.57,1
286.00,222.12,1
74.00,231.16,1
225.00,235.77,1
267.00,238.01,1
120.00,239.10,1
136.00,237.28,1
43.00,231.61,1
147.00,222.65,1
102.00,212.04,1
107.00,200.75,1
41.00,188.46,1
43.00,174.76,1
175.00,161.05,1
68.00,149.11,1
179.00,139.17,1
183.00,132.04,1
322.00,129.41,1
151.00,131.19,1
356.00,136.38,1
343.00,145.84,1
310.00,159.41,1
263.00,174.65,1
250.00,189.45,1
335.00,203.54,1
171.00,216.55,1
303.00,227.37,1
201.00,236.14,1
265.00,243.01,1
143.00,247.40,1
152.00,248.31,1
134.00,245.57,1
37.00,239.10,1
163.00,229.28,1
42.00,217.53,1
109.00,204.30,1
173.00,191.07,1
65.00,178.99,1
59.00,166.85,1
88.00,154.33,1
176.00,143.12,1
185.00,135.04,1
217.00,130.75,1
209.00,129.98,1
263.00,132.50,1
337.00,138.99,1
251.00,149.10,1
265.00,160.99,1
250.00,173.24,1
319.00,185.78,1
191.00,198.08,1
266.00,208.87,1
195.00,217.76,1
296.00,225.17,1
175.00,231.32,1
214.00,235.45,1
127.00,236.82,1
154.00,235.20,1
206.00,231.46,1
94.00,226.41,1
104.00,219.21,1
61.00,209.50,1
136.00,198.14,1
152.00,186.95,1
110.00,176.82,1
58.00,166.81,1
91.00,156.30,1
127.00,146.17,1
168.00,137.89,1
242.00,132.88,1
205.00,131.77,1
233.00,133.97,1
229.00,138.67,1
270.00,145.66,1
396.00,155.83,1
138.00,168.35,1
334.00,180.64,1
278.00,192.99,1
254.00,205.46,1
199.00,216.30,1
240.00,224.74,1
220.00,231.15,1
197.00,235.61,1
228.00,238.16,1
276.00,239.90,1
210.00,241.48,1
125.00,241.47,1
183.00,238.80,1
53.00,233.38,1
56.00,224.40,1
46.00,211.91,1
180.00,198.11,1
68.00,184.96,1
136.00,172.59,1
95.00,161.08,1
198.00,151.34,1
108.00,143.87,1
154.00,138.14,1
211.00,134.39,1
315.00,134.52,1
219.00,138.97,1
313.00,146.60,1
234.00,156.47,1
402.00,168.62,1
256.00,182.95,1
335.00,198.13,1
264.00,212.94,1
357.00,227.24,1
196.00,240.31,1
280.00,250.80,1
254.00,258.82,1
101.00,263.73,1
154.00,263.70,1
46.00,258.74,1
179.00,249.89,1
88.00,238.98,1
83.00,226.38,1
47.00,211.84,1
51.00,195.68,1
142.00,179.33,1
77.00,164.38,1
197.00,151.67,1
250.00,142.95,1
305.00,139.91,1
215.00,141.85,1
366.00,147.75,1
291.00,157.65,1
383.00,170.96,1
333.00,186.92,1
294.00,204.02,1
333.00,220.64,1
266.00,236.11,1
326.00,249.90,1
127.00,260.76,1
272.00,267.41,1
177.00,270.62,1
312.00,271.87,1
254.00,272.55,1
152.00,272.09,1
188.00,268.89,1
131.00,262.97,1
152.00,254.76,1
78.00,244.31,1
166.00,232.19,1
44.00,219.04,1
42.00,204.26,1
54.00,187.75,1
62.00,170.78,1
134.00,154.80,1
106.00,141.15,1
56.00,129.44,1
213.00,119.82,1
286.00,114.93,1
273.00,116.12,1
278.00,122.35,1
349.00,132.79,1
343.00,147.27,1
291.00,164.39,1
314.00,182.22,1
256.00,199.46,1
315.00,215.40,1
282.00,230.05,1
303.00,243.36,1
318.00,255.39,1
182.00,265.36,1
193.00,271.38,1
183.00,273.18,1
254.00,272.24,1
181.00,269.74,1
124.00,265.02,1
175.00,257.66,1
49.00,247.88,1
95.00,235.24,1
146.00,221.00,1
70.00,206.67,1
112.00,192.19,1
110.00,178.19,1
237.00,166.36,1
231.00,158.65,1
325.00,156.03,1
238.00,158.09,1
256.00,163.20,1
321.00,170.54,1
350.00,180.76,1
396.00,194.28,1
367.00,210.60,1
394.00,228.69,1
310.00,246.98,1
371.00,264.17,1
331.00,279.93,1
338.00,293.98,1
221.00,305.09,1
240.00,311.84,1
268.00,314.66,1
176.00,314.28,1
170.00,310.09,1
171.00,302.36,1
155.00,291.97,1
108.00,279.27,1
106.00,264.35,1
44.00,247.25,1
155.00,228.94,1
84.00,211.04,1
140.00,194.29,1
108.00,179.04,1
160.00,165.79,1
275.00,156.07,1
212.00,151.13,1
255.00,150.31,1
297.00,153.11,1
334.00,159.95,1
354.00,170.82,1
308.00,184.58,1
317.00,199.58,1
436.00,215.78,1
313.00,233.39,1
349.00,250.73,1
345.00,266.83,1
259.00,280.97,1
354.00,292.49,1
335.00,302.34,1
290.00,310.69,1
216.00,316.09,1
147.00,316.91,1
121.00,312.25,1
237.00,303.46,1
102.00,292.52,1
96.00,278.95,1
94.00,262.63,1
88.00,244.61,1
67.00,225.60,1
38.00,205.82,1
91.00,185.90,1
150.00,167.68,1
212.00,153.28,1
176.00,143.48,1
223.00,137.78,1
294.00,136.46,1
387.00,140.84,1
251.00,150.39,1
470.00,163.96,1
179.00,180.15,1
353.00,196.27,1
319.00,211.97,1
349.00,227.97,1
266.00,243.20,1
336.00,256.78,1
271.00,268.61,1
326.00,278.68,1
236.00,286.69,1
233.00,291.84,1
177.00,293.37,1
167.00,291.09,1
160.00,285.24,1
108.00,276.30,1
68.00,264.07,1
107.00,248.88,1
48.00,231.84,1
91.00,213.62,1
85.00,195.29,1
62.00,177.56,1
125.00,160.98,1
94.00,146.42,1
156.00,134.40,1
223.00,126.01,1
266.00,122.65,1
242.00,124.36,1
356.00,130.72,1
230.00,141.01,1
304.00,153.49,1
310.00,167.37,1
330.00,182.78,1
257.00,198.62,1
372.00,214.16,1
259.00,229.31,1
250.00,242.66,1
71.00,251.65,1
188.00,254.91,1
172.00,254.02,1
174.00,250.80,1
220.00,246.18,1
210.00,241.34,1
110.00,235.87,1
46.00,227.83,1
41.00,216.17,1
47.00,201.59,1
39.00,185.30,1
111.00,168.74,1
68.00,153.29,1
105.00,139.39,1
140.00,127.68,1
204.00,119.41,1
311.00,116.28,1
289.00,119.30,1
264.00,127.16,1
309.00,138.23,1
368.00,152.45,1
292.00,169.27,1
313.00,186.92,1
261.00,203.91,1
299.00,219.47,1
273.00,233.38,1
420.00,246.70,1
305.00,260.38,1
242.00,272.69,1
125.00,280.59,1
284.00,283.69,1
208.00,284.13,1
274.00,283.12,1
185.00,280.76,1
116.00,275.94,1
116.00,267.59,1
81.00,255.88,1
65.00,241.39,1
89.00,224.89,1
105.00,207.78,1
66.00,190.92,1
65.00,174.28,1
91.00,158.24,1
170.00,144.28,1
175.00,133.91,1
237.00,127.88,1
249.00,126.49,1
283.00,129.68,1
264.00,136.74,1
347.00,147.12,1
265.00,160.31,1
329.00,175.00,1
293.00,190.40,1
388.00,206.64,1
276.00,223.26,1
408.00,239.64,1
287.00,255.59,1
324.00,270.05,1
181.00,281.33,1
124.00,287.21,1
164.00,287.06,1
108.00,282.12,1
167.00,273.53,1
114.00,262.56,1
98.00,249.63,1
45.00,234.46,1
63.00,217.25,1
84.00,199.07,1
87.00,181.29,1
62.00,164.44,1
143.00,149.11,1
219.00,137.22,1
264.00,130.60,1
272.00,129.74,1
223.00,133.31,1
138.00,138.69,1
339.00,145.12,1
337.00,154.78,1
323.00,168.00,1
359.00,183.59,1
363.00,201.03,1
280.00,218.91,1
350.00,235.78,1
362.00,251.91,1
241.00,266.71,1
166.00,277.50,1
172.00,282.61,1
179.00,282.88,1
108.00,279.00,1
127.00,271.12,1
102.00,259.98,1
114.00,246.57,1
49.00,231.36,1
96.00,214.63,1
60.00,197.31,1
65.00,179.95,1
106.00,163.25,1
56.00,147.92,1
58.00,133.65,1
195.00,121.43,1
195.00,113.46,1
208.00,110.21,1
287.00,111.48,1
257.00,117.38,1
281.00,126.94,1
247.00,138.78,1
282.00,151.96,1
308.00,166.23,1
301.00,181.51,1
408.00,198.04,1
341.00,216.16,1
326.00,234.50,1
184.00,250.41,1
280.00,262.26,1
182.00,270.26,1
192.00,274.33,1
162.00,274.37,1
143.00,270.73,1
127.00,263.79,1
44.00,253.42,1
39.00,239.17,1
98.00,222.27,1
41.00,204.34,1
88.00,186.15,1
76.00,168.60,1
87.00,152.39,1
59.00,137.60,1
200.00,125.15,1
168.00,116.76,1
269.00,113.18,1
311.00,115.24,1
331.00,123.10,1
392.00,136.30,1
277.00,153.35,1
296.00,171.53,1
134.00,187.96,1
316.00,201.49,1
272.00,213.69,1
326.00,225.71,1
261.00,237.19,1
283.00,247.42,1
222.00,255.68,1
252.00,261.61,1
213.00,265.20,1
227.00,266.62,1
196.00,266.01,1
77.00,262.50,1
45.00,254.41,1
71.00,241.78,1
43.00,226.06,1
39.00,208.28,1
77.00,189.52,1
126.00,171.59,1
174.00,156.45,1
284.00,146.02,1
236.00,141.33,1
220.00,141.23,1
224.00,143.94,1
271.00,148.98,1
310.00,156.83,1
263.00,167.13,1
367.00,179.35,1
319.00,193.57,1
364.00,209.28,1
278.00,225.24,1
322.00,240.18,1
266.00,253.41,1
299.00,264.61,1
206.00,273.23,1
238.00,278.60,1
212.00,280.88,1
244.00,280.82,1
132.00,278.36,1
171.00,272.88,1
74.00,264.17,1
127.00,252.54,1
112.00,239.01,1
44.00,224.11,1
60.00,207.46,1
82.00,189.99,1
60.00,172.78,1
69.00,156.21,1
202.00,141.75,1
172.00,131.41,1
155.00,125.03,1
188.00,121.58,1
237.00,121.29,1
204.00,124.19,1
315.00,130.21,1
294.00,139.78,1
287.00,152.25,1
271.00,166.15,1
306.00,180.58,1
221.00,194.71,1
341.00,208.00,1
331.00,221.47,1
297.00,235.13,1
249.00,247.44,1
180.00,256.66,1
219.00,262.03,1
184.00,264.10,1
220.00,263.63,1
136.00,260.83,1
132.00,255.26,1
69.00,246.45,1
148.00,235.00,1
63.00,222.04,1
46.00,207.52,1
49.00,191.26,1
117.00,174.73,1
106.00,159.61,1
138.00,146.70,1
198.00,136.83,1
164.00,130.60,1
251.00,127.97,1
252.00,129.41,1
274.00,134.74,1
381.00,144.14,1
301.00,157.64,1
373.00,173.89,1
258.00,191.25,1
354.00,208.43,1
227.00,224.44,1
354.00,238.80,1
186.00,251.08,1
326.00,260.79,1
116.00,267.44,1
161.00,269.59,1
173.00,267.31,1
129.00,262.02,1
140.00,254.04,1
148.00,244.14,1
181.00,233.64,1
102.00,223.00,1
60.00,211.21,1
53.00,197.54,1
54.00,182.46,1
113.00,167.23,1
47.00,152.81,1
145.00,139.71,1
138.00,129.06,1
268.00,122.43,1
258.00,121.07,1
290.00,124.94,1
315.00,133.37,1
168.00,144.35,1
263.00,155.48,1
277.00,166.82,1
360.00,179.66,1
352.00,194.60,1
334.00,211.06,1
280.00,227.32,1
310.00,242.12,1
280.00,255.11,1
288.00,266.12,1
154.00,274.02,1
181.00,277.37,1
114.00,275.94,1
132.00,270.16,1
221.00,261.79,1
53.00,251.96,1
128.00,239.94,1
70.00,226.02,1
74.00,210.79,1
39.00,194.38,1
57.00,177.16,1
140.00,160.65,1
166.00,146.95,1
234.00,137.54,1
202.00,132.77,1
254.00,132.13,1
268.00,135.35,1
98.00,140.69,1
225.00,145.79,1
347.00,152.22,1
335.00,162.48,1
360.00,176.33,1
387.00,192.95,1
314.00,211.24,1
297.00,229.01,1
275.00,244.72,1
246.00,257.60,1
218.00,267.01,1
259.00,273.13,1
77.00,275.46,1
129.00,272.62,1
175.00,265.66,1
62.00,256.03,1
135.00,243.87,1
135.00,230.39,1
72.00,216.47,1
37.00,201.32,1
57.00,184.81,1
61.00,167.90,1
102.00,151.82,1
156.00,138.06,1
123.00,127.49,1
64.00,119.09,1
243.00,112.85,1
243.00,110.97,1
277.00,114.22,1
280.00,121.79,1
323.00,133.16,1
312.00,147.60,1
299.00,164.00,1
304.00,181.08,1
332.00,198.32,1
342.00,215.68,1
325.00,232.83,1
242.00,248.37,1
304.00,261.17,1
210.00,271.01,1
252.00,277.58,1
143.00,280.46,1
156.00,279.08,1
262.00,274.66,1
99.00,268.67,1
157.00,260.33,1
37.00,249.10,1
58.00,234.71,1
52.00,217.68,1
119.00,199.86,1
109.00,182.99,1
237.00,168.86,1
179.00,158.84,1
257.00,153.09,1
265.00,151.57,1
224.00,153.77,1
242.00,158.29,1
289.00,164.73,1
275.00,173.24,1
245.00,182.95,1
329.00,193.33,1
260.00,204.43,1
233.00,215.05,1
287.00,224.38,1
321.00,233.37,1
269.00,242.39,1
249.00,250.39,1
226.00,256.39,1
209.00,260.01,1
168.00,260.83,1
131.00,258.44,1
138.00,252.80,1
152.00,244.77,1
38.00,234.53,1
56.00,221.38,1
60.00,205.80,1
67.00,189.12,1
72.00,172.39,1
86.00,156.42,1
165.00,142.50,1
194.00,132.25,1
123.00,125.70,1
222.00,122.06,1
180.00,121.44,1
278.00,124.06,1
270.00,130.24,1
283.00,139.78,1
259.00,151.50,1
356.00,164.95,1
220.00,179.58,1
332.00,194.09,1
158.00,207.32,1
224.00,217.72,1
178.00,224.91,1
240.00,229.72,1
187.00,232.74,1
161.00,233.75,1
117.00,231.95,1
72.00,226.74,1
157.00,218.70,1
71.00,209.16,1
54.00,197.91,1
47.00,184.61,1
107.00,170.52,1
126.00,157.37,1
128.00,146.20,1
172.00,137.46,1
186.00,131.71,1
249.00,129.59,1
212.00,131.08,1
215.00,135.21,1
238.00,141.16,1
285.00,149.11,1
382.00,160.08,1
244.00,173.82,1
398.00,189.07,1
320.00,205.65,1
398.00,223.29,1
167.00,239.94,1
291.00,253.10,1
127.00,261.97,1
303.00,267.07,1
198.00,269.80,1
212.00,270.49,1
143.00,268.40,1
162.00,263.36,1
76.00,255.29,1
109.00,244.21,1
80.00,230.74,1
126.00,216.12,1
94.00,201.38,1
50.00,186.51,1
124.00,171.66,1
136.00,158.29,1
155.00,147.45,1
130.00,139.11,1
216.00,133.38,1
246.00,131.30,1
277.00,133.55,1
352.00,140.41,1
317.00,151.74,1
253.00,165.63,1
297.00,179.96,1
322.00,194.57,1
276.00,209.30,1
296.00,223.25,1
307.00,236.18,1
230.00,247.62,1
276.00,256.74,1
234.00,263.58,1
145.00,267.40,1
172.00,267.17,1
101.00,263.07,1
147.00,255.56,1
44.00,244.96,1
89.00,231.49,1
55.00,215.85,1
70.00,199.00,1
52.00,181.68,1
74.00,164.55,1
159.00,149.04,1
127.00,136.63,1
186.00,127.63,1
149.00,121.91,1
271.00,119.78,1
213.00,121.70,1
200.00,126.52,1
273.00,133.36,1
272.00,142.57,1
328.00,154.30,1
332.00,168.62,1
314.00,184.71,1
248.00,200.81,1
323.00,215.77,1
221.00,229.23,1
247.00,240.24,1
188.00,248.15,1
127.00,252.09,1
160.00,251.75,1
146.00,248.07,1
186.00,242.33,1
46.00,234.63,1
106.00,224.19,1
50.00,211.37,1
81.00,196.95,1
59.00,181.72,1
73.00,166.39,1
127.00,151.97,1
69.00,139.27,1
181.00,128.69,1
139.00,121.10,1
218.00,116.97,1
300.00,117.19,1
322.00,122.92,1
326.00,133.80,1
241.00,147.71,1
340.00,162.87,1
291.00,179.06,1
323.00,195.76,1
275.00,211.99,1
264.00,226.72,1
278.00,239.35,1
329.00,250.53,1
211.00,260.23,1
230.00,267.09,1
188.00,270.58,1
196.00,270.92,1
150.00,268.20,1
82.00,262.00,1
64.00,251.74,1
33.00,237.55,1
70.00,220.59,1
56.00,202.32,1
43.00,183.55,1
122.00,165.41,1
215.00,150.31,1
194.00,140.00,1
206.00,134.27,1
218.00,132.30,1
239.00,133.71,1
232.00,138.03,1
248.00,144.63,1
170.00,152.29,1
319.00,160.58,1
361.00,171.21,1
354.00,185.12,1
224.00,200.27,1
257.00,213.91,1
332.00,226.06,1
364.00,238.42,1
317.00,251.34,1
360.00,264.06,1
176.00,275.03,1
244.00,282.18,1
152.00,285.00,1
133.00,283.34,1
168.00,277.54,1
36.00,268.03,1
51.00,254.33,1
50.00,237.01,1
72.00,217.78,1
66.00,198.09,1
79.00,178.90,1
128.00,161.29,1
134.00,146.46,1
180.00,135.10,1
193.00,127.69,1
272.00,124.77,1
295.00,126.94,1
262.00,133.69,1
313.00,143.77,1
298.00,156.46,1
381.00,171.56,1
323.00,188.84,1
378.00,207.34,1
306.00,226.00,1
319.00,243.55,1
206.00,258.34,1
235.00,269.01,1
219.00,275.61,1
292.00,279.48,1
166.00,281.20,1
90.00,279.13,1
184.00,272.69,1
103.00,263.45,1
104.00,251.77,1
70.00,237.69,1
81.00,221.79,1
123.00,205.31,1
50.00,189.09,1
95.00,173.14,1
299.00,159.74,1
222.00,151.83,1
160.00,148.30,1
267.00,147.39,1
352.00,150.46,1
215.00,157.69,1
299.00,166.89,1
251.00,177.18,1
261.00,187.94,1
386.00,199.47,1
329.00,212.89,1
333.00,227.48,1
305.00,241.79,1
257.00,254.59,1
285.00,265.02,1
256.00,273.12,1
350.00,279.72,1
229.00,285.28,1
124.00,287.74,1
185.00,285.56,1
68.00,279.10,1
39.00,267.87,1
60.00,252.14,1
74.00,233.73,1
57.00,214.14,1
162.00,195.06,1
154.00,178.54,1
126.00,165.01,1
134.00,153.74,1
189.00,144.90,1
239.00,139.59,1
234.00,138.40,1
264.00,140.92,1
217.00,146.29,1
253.00,153.42,1
330.00,162.49,1
284.00,173.91,1
317.00,186.93,1
292.00,200.64,1
244.00,213.89,1
230.00,225.24,1
325.00,234.92,1
248.00,243.83,1
236.00,251.28,1
164.00,255.90,1
119.00,256.62,1
182.00,253.50,1
58.00,247.20,1
94.00,237.47,1
63.00,224.78,1
53.00,209.95,1
205.00,194.83,1
62.00,181.24,1
79.00,168.29,1
144.00,155.89,1
139.00,145.50,1
127.00,137.33,1
231.00,131.77,1
206.00,129.76,1
251.00,131.33,1
335.00,136.77,1
307.00,146.56,1
325.00,159.69,1
334.00,175.09,1
419.00,192.74,1
318.00,212.10,1
405.00,231.84,1
201.00,250.17,1
311.00,265.08,1
259.00,276.60,1
266.00,285.27,1
230.00,290.86,1
239.00,293.47,1
157.00,292.90,1
210.00,289.11,1
159.00,282.77,1
119.00,273.95,1
99.00,262.27,1
39.00,247.62,1
94.00,230.51,1
49.00,212.17,1
44.00,193.10,1
103.00,174.19,1
107.00,157.01,1
178.00,142.87,1
230.00,133.12,1
245.00,128.66,1
227.00,128.93,1
284.00,133.00,1
337.00,141.07,1
295.00,152.98,1
369.00,167.74,1
340.00,184.80,1
340.00,203.19,1
367.00,221.93,1
331.00,240.46,1
302.00,257.61,1
266.00,272.05,1
219.00,282.72,1
211.00,289.01,1
96.00,290.30,1
85.00,285.75,1
125.00,276.00,1
56.00,262.64,1
70.00,246.34,1
38.00,227.63,1
100.00,207.92,1
101.00,188.88,1
97.00,171.45,1
128.00,156.03,1
184.00,143.60,1
237.00,135.49,1
302.00,132.76,1
280.00,135.55,1
294.00,142.72,1
309.00,153.24,1
479.00,167.69,1
292.00,185.98,1
356.00,205.44,1
351.00,224.63,1
406.00,243.88,1
311.00,262.61,1
334.00,279.43,1
282.00,293.39,1
346.00,304.59,1
205.00,312.74,1
258.00,316.99,1
237.00,317.67,1
230.00,315.65,1
101.00,310.27,1
98.00,300.34,1
45.00,285.73,1
40.00,267.12,1
49.00,245.51,1
42.00,222.45,1
54.00,199.14,1
46.00,176.43,1
141.00,155.71,1
175.00,138.97,1
202.00,127.35,1
244.00,121.17,1
255.00,120.24,1
306.00,124.30,1
262.00,132.69,1
353.00,144.42,1
338.00,159.32,1
322.00,176.58,1
438.00,195.60,1
338.00,216.25,1
402.00,237.34,1
314.00,257.58,1
343.00,275.80,1
268.00,291.00,1
361.00,303.16,1
226.00,312.42,1
215.00,317.61,1
225.00,318.29,1
161.00,315.07,1
213.00,308.48,1
92.00,298.91,1
128.00,286.12,1
54.00,270.25,1
60.00,251.66,1
60.00,231.04,1
149.00,210.48,1
136.00,191.98,1
118.00,176.03,1
153.00,162.42,1
180.00,151.70,1
250.00,144.85,1
277.00,142.85,1
294.00,145.66,1
345.00,152.99,1
257.00,163.76,1
307.00,176.17,1
