105.00,112.45,1
38.00,111.29,1
91.00,108.96,1
40.00,105.71,1
168.00,102.55,1
96.00,100.66,1
64.00,99.41,1
63.00,97.54,1
58.00,94.96,1
99.00,92.15,1
50.00,89.50,1
167.00,87.55,1
105.00,87.23,1
190.00,88.82,1
93.00,91.88,1
36.00,94.57,1
123.00,95.86,1
52.00,96.44,1
149.00,96.79,1
84.00,97.44,1
129.00,98.41,1
70.00,99.30,1
71.00,99.49,1
149.00,99.33,1
49.00,99.38,1
45.00,98.54,1
43.00,96.14,1
127.00,93.27,1
78.00,91.11,1
162.00,90.14,1
54.00,90.19,1
136.00,90.61,1
70.00,91.21,1
52.00,91.36,1
247.00,91.94,1
70.00,94.44,1
93.00,97.18,1
147.00,99.39,1
140.00,102.13,1
319.00,107.02,1
145.00,114.91,1
280.00,124.47,1
81.00,134.11,1
468.00,144.54,1
102.00,156.95,1
290.00,169.15,1
114.00,179.41,1
190.00,187.11,1
236.00,192.81,1
311.00,198.81,1
191.00,205.48,1
56.00,209.95,1
424.00,212.40,1
73.00,215.33,1
508.00,219.34,1
43.00,224.51,1
44.00,226.23,1
99.00,221.95,1
198.00,214.97,1
197.00,208.27,1
303.00,203.68,1
77.00,200.74,1
138.00,196.78,1
120.00,191.17,1
50.00,184.12,1
282.00,176.82,1
116.00,171.48,1
192.00,167.59,1
230.00,165.14,1
281.00,165.54,1
177.00,168.39,1
108.00,171.13,1
96.00,171.57,1
80.00,169.38,1
122.00,165.24,1
215.00,161.09,1
72.00,157.77,1
241.00,154.99,1
127.00,153.39,1
119.00,152.18,1
402.00,152.57,1
84.00,156.16,1
81.00,159.11,1
468.00,161.99,1
272.00,169.53,1
114.00,179.01,1
57.00,184.90,1
64.00,185.66,1
196.00,183.19,1
132.00,180.12,1
73.00,176.23,1
343.00,172.58,1
124.00,171.39,1
60.00,170.20,1
256.00,167.81,1
58.00,165.65,1
161.00,162.94,1
76.00,159.25,1
377.00,156.90,1
51.00,157.20,1
53.00,156.63,1
158.00,153.58,1
139.00,150.38,1
213.00,148.36,1
68.00,147.14,1
234.00,146.18,1
92.00,145.81,1
99.00,144.97,1
181.00,143.43,1
79.00,141.98,1
48.00,139.36,1
57.00,134.66,1
178.00,129.45,1
38.00,124.95,1
61.00,119.99,1
99.00,114.38,1
112.00,109.41,1
154.00,105.97,1
92.00,104.07,1
116.00,102.95,1
116.00,102.33,1
192.00,102.95,1
63.00,104.68,1
207.00,106.88,1
196.00,110.59,1
65.00,115.25,1
86.00,118.37,1
51.00,119.20,1
134.00,118.54,1
142.00,117.93,1
84.00,117.72,1
65.00,116.77,1
58.00,114.42,1
223.00,112.18,1
128.00,112.00,1
46.00,112.50,1
49.00,111.35,1
69.00,108.57,1
105.00,105.27,1
132.00,102.69,1
54.00,100.83,1
33.00,98.34,1
271.00,96.43,1
142.00,97.71,1
124.00,101.05,1
47.00,103.86,1
44.00,104.71,1
111.00,103.91,1
104.00,102.93,1
159.00,102.74,1
77.00,103.34,1
111.00,103.88,1
101.00,104.16,1
82.00,104.20,1
200.00,104.63,1
126.00,106.53,1
104.00,109.05,1
158.00,111.43,1
38.00,113.33,1
43.00,113.32,1
35.00,110.87,1
112.00,107.18,1
37.00,103.28,1
68.00,99.00,1
103.00,94.76,1
44.00,91.02,1
65.00,87.29,1
116.00,83.96,1
34.00,81.40,1
37.00,78.58,1
69.00,75.31,1
36.00,72.07,1
38.00,68.71,1
74.00,65.42,1
51.00,62.72,1
77.00,60.69,1
119.00,59.82,1
54.00,60.24,1
79.00,61.09,1
58.00,61.95,1
37.00,62.48,1
218.00,63.69,1
59.00,66.93,1
48.00,70.35,1
78.00,72.54,1
45.00,73.87,1
54.00,74.26,1
73.00,73.97,1
81.00,73.63,1
84.00,73.57,1
53.00,73.59,1
55.00,73.19,1
86.00,72.53,1
84.00,72.20,1
188.00,73.22,1
66.00,75.90,1
57.00,78.55,1
63.00,79.97,1
67.00,80.47,1
77.00,80.45,1
126.00,80.65,1
127.00,81.90,1
36.00,83.59,1
81.00,84.41,1
63.00,84.40,1
45.00,83.68,1
120.00,82.62,1
72.00,82.04,1
38.00,81.38,1
76.00,80.04,1
70.00,78.52,1
120.00,77.55,1
91.00,77.57,1
36.00,77.82,1
112.00,77.71,1
99.00,78.02,1
93.00,79.02,1
49.00,79.94,1
66.00,80.11,1
40.00,79.40,1
50.00,77.86,1
79.00,75.93,1
38.00,73.98,1
38.00,71.64,1
158.00,69.75,1
55.00,69.40,1
43.00,69.42,1
141.00,69.47,1
68.00,70.47,1
36.00,71.49,1
39.00,71.38,1
97.00,70.68,1
48.00,70.14,1
50.00,69.42,1
44.00,68.16,1
77.00,66.72,1
89.00,65.79,1
59.00,65.51,1
38.00,65.16,1
100.00,64.67,1
69.00,64.71,1
47.00,64.96,1
57.00,64.82,1
34.00,64.18,1
70.00,63.18,1
52.00,62.20,1
38.00,61.15,1
40.00,59.71,1
84.00,58.32,1
111.00,57.97,1
55.00,58.78,1
44.00,59.64,1
41.00,59.85,1
57.00,59.53,1
65.00,59.15,1
153.00,59.71,1
98.00,62.03,1
85.00,65.35,1
54.00,68.38,1
79.00,70.67,1
46.00,72.20,1
68.00,72.95,1
55.00,73.06,1
54.00,72.66,1
129.00,72.36,1
188.00,73.86,1
50.00,77.15,1
63.00,80.00,1
72.00,81.56,1
46.00,82.13,1
59.00,81.70,1
62.00,80.53,1
68.00,79.05,1
63.00,77.48,1
36.00,75.61,1
128.00,73.87,1
51.00,72.94,1
54.00,72.17,1
38.00,70.83,1
54.00,68.99,1
38.00,66.83,1
68.00,64.61,1
39.00,62.55,1
36.00,60.41,1
60.00,58.21,1
38.00,56.21,1
83.00,54.65,1
68.00,53.91,1
75.00,53.99,1
101.00,54.92,1
50.00,56.52,1
84.00,58.22,1
46.00,59.77,1
64.00,60.96,1
152.00,62.54,1
46.00,65.10,1
46.00,67.30,1
72.00,68.47,1
96.00,69.46,1
44.00,70.46,1
37.00,70.72,1
59.00,70.04,1
65.00,69.03,1
37.00,67.85,1
70.00,66.43,1
54.00,65.07,1
39.00,63.68,1
152.00,62.87,1
66.00,63.57,1
62.00,64.85,1
60.00,65.76,1
70.00,66.35,1
34.00,66.53,1
56.00,66.08,1
74.00,65.36,1
122.00,65.36,1
44.00,66.18,1
39.00,66.68,1
110.00,66.77,1
68.00,67.33,1
104.00,68.44,1
118.00,70.27,1
84.00,72.85,1
91.00,75.52,1
60.00,77.75,1
66.00,79.16,1
44.00,79.57,1
45.00,78.87,1
102.00,77.69,1
36.00,76.57,1
47.00,75.02,1
43.00,72.78,1
59.00,70.26,1
90.00,68.10,1
54.00,66.62,1
94.00,65.71,1
191.00,66.44,1
41.00,69.07,1
95.00,71.83,1
34.00,73.74,1
35.00,74.38,1
80.00,73.91,1
123.00,73.75,1
88.00,74.61,1
65.00,75.82,1
45.00,76.39,1
72.00,76.18,1
36.00,75.35,1
206.00,75.12,1
58.00,76.65,1
105.00,78.82,1
208.00,81.80,1
46.00,86.06,1
66.00,89.48,1
67.00,91.15,1
39.00,91.37,1
63.00,90.23,1
73.00,88.34,1
60.00,86.21,1
44.00,83.68,1
75.00,80.85,1
83.00,78.31,1
48.00,76.18,1
224.00,75.37,1
126.00,77.43,1
62.00,80.89,1
127.00,83.97,1
51.00,86.56,1
122.00,88.57,1
63.00,90.12,1
93.00,91.14,1
115.00,91.91,1
44.00,92.49,1
58.00,92.02,1
51.00,90.37,1
66.00,88.00,1
68.00,85.35,1
72.00,82.79,1
237.00,81.82,1
67.00,83.43,1
67.00,85.53,1
52.00,86.37,1
84.00,86.26,1
39.00,85.46,1
105.00,84.22,1
79.00,83.20,1
90.00,82.60,1
67.00,82.11,1
71.00,81.46,1
225.00,81.85,1
101.00,84.59,1
35.00,87.71,1
55.00,89.03,1
105.00,89.17,1
47.00,88.90,1
74.00,88.01,1
69.00,86.61,1
98.00,85.24,1
45.00,83.94,1
43.00,82.09,1
44.00,79.42,1
41.00,76.16,1
51.00,72.63,1
45.00,69.09,1
67.00,65.83,1
40.00,62.99,1
100.00,60.79,1
86.00,59.82,1
50.00,59.76,1
66.00,59.83,1
111.00,60.32,1
44.00,61.46,1
79.00,62.58,1
34.00,63.32,1
37.00,63.30,1
87.00,62.81,1
40.00,62.43,1
72.00,62.06,1
153.00,62.51,1
36.00,64.20,1
111.00,66.15,1
42.00,67.92,1
40.00,68.96,1
58.00,68.96,1
60.00,68.46,1
51.00,67.71,1
74.00,66.85,1
46.00,66.01,1
36.00,64.86,1
68.00,63.38,1
67.00,62.13,1
81.00,61.46,1
104.00,61.68,1
124.00,63.23,1
43.00,65.58,1
52.00,67.37,1
99.00,68.53,1
78.00,69.85,1
47.00,71.05,1
86.00,71.74,1
56.00,72.17,1
50.00,72.16,1
80.00,71.71,1
51.00,71.15,1
76.00,70.51,1
123.00,70.39,1
107.00,71.52,1
92.00,73.57,1
70.00,75.68,1
61.00,77.20,1
51.00,77.81,1
36.00,77.35,1
76.00,76.10,1
36.00,74.47,1
72.00,72.58,1
102.00,71.08,1
117.00,70.85,1
41.00,71.45,1
38.00,71.50,1
79.00,70.79,1
69.00,70.10,1
40.00,69.38,1
137.00,68.90,1
128.00,69.92,1
98.00,72.45,1
88.00,75.38,1
72.00,77.97,1
48.00,79.68,1
37.00,80.04,1
78.00,79.32,1
45.00,78.11,1
45.00,76.36,1
97.00,74.43,1
81.00,73.15,1
77.00,72.53,1
43.00,71.97,1
132.00,71.59,1
225.00,73.35,1
52.00,77.50,1
79.00,81.47,1
187.00,85.07,1
82.00,89.43,1
72.00,93.27,1
65.00,95.52,1
114.00,96.68,1
249.00,98.85,1
49.00,102.70,1
52.00,105.52,1
116.00,106.41,1
51.00,106.33,1
46.00,104.93,1
52.00,102.00,1
65.00,98.16,1
52.00,93.93,1
171.00,90.42,1
110.00,88.94,1
41.00,88.45,1
63.00,87.26,1
49.00,85.26,1
36.00,82.53,1
76.00,79.36,1
132.00,76.97,1
130.00,76.53,1
41.00,77.24,1
37.00,77.29,1
77.00,76.35,1
118.00,75.67,1
46.00,75.61,1
60.00,75.30,1
96.00,74.73,1
39.00,74.24,1
82.00,73.52,1
46.00,72.61,1
116.00,71.91,1
75.00,71.91,1
42.00,72.08,1
60.00,71.64,1
84.00,70.97,1
62.00,70.50,1
95.00,70.33,1
66.00,70.50,1
39.00,70.49,1
55.00,69.80,1
64.00,68.73,1
142.00,68.34,1
54.00,69.11,1
70.00,70.05,1
124.00,71.07,1
51.00,72.56,1
73.00,73.76,1
66.00,74.40,1
35.00,74.41,1
60.00,73.58,1
69.00,72.36,1
63.00,71.20,1
62.00,70.09,1
70.00,69.05,1
190.00,69.22,1
74.00,71.37,1
60.00,73.94,1
42.00,75.40,1
90.00,75.95,1
90.00,76.44,1
57.00,76.98,1
47.00,76.92,1
142.00,76.75,1
50.00,77.23,1
76.00,77.68,1
44.00,77.48,1
76.00,76.74,1
143.00,76.46,1
90.00,77.45,1
79.00,78.98,1
44.00,79.93,1
44.00,79.75,1
82.00,78.75,1
36.00,77.39,1
53.00,75.51,1
77.00,73.39,1
104.00,71.93,1
68.00,71.36,1
94.00,71.33,1
110.00,71.98,1
49.00,73.09,1
102.00,74.08,1
88.00,75.20,1
41.00,76.21,1
68.00,76.42,1
161.00,76.85,1
46.00,78.23,1
186.00,80.33,1
44.00,83.09,1
74.00,85.32,1
39.00,86.09,1
89.00,85.81,1
90.00,85.29,1
52.00,84.73,1
142.00,84.29,1
129.00,85.02,1
128.00,87.16,1
40.00,89.42,1
176.00,91.35,1
108.00,93.94,1
66.00,96.59,1
38.00,97.68,1
73.00,97.04,1
66.00,95.41,1
93.00,93.47,1
127.00,92.04,1
158.00,92.09,1
77.00,93.40,1
93.00,94.65,1
41.00,94.99,1
40.00,93.86,1
82.00,91.56,1
72.00,89.07,1
100.00,86.93,1
38.00,84.99,1
56.00,82.62,1
39.00,79.64,1
101.00,76.68,1
74.00,74.51,1
54.00,72.89,1
49.00,71.17,1
42.00,69.10,1
57.00,66.81,1
154.00,65.43,1
84.00,65.95,1
109.00,67.72,1
75.00,69.95,1
165.00,72.84,1
51.00,76.40,1
64.00,79.31,1
148.00,81.60,1
38.00,83.94,1
117.00,85.75,1
85.00,87.25,1
147.00,89.09,1
372.00,93.83,1
44.00,102.08,1
66.00,109.32,1
57.00,113.10,1
52.00,114.14,1
46.00,112.86,1
83.00,110.01,1
94.00,106.74,1
60.00,103.46,1
115.00,100.26,1
78.00,97.56,1
67.00,95.08,1
97.00,92.60,1
152.00,91.08,1
63.00,90.75,1
127.00,90.85,1
197.00,92.18,1
44.00,94.81,1
111.00,96.95,1
36.00,97.86,1
163.00,98.18,1
100.00,98.99,1
58.00,99.82,1
121.00,99.92,1
65.00,99.71,1
101.00,99.17,1
37.00,97.99,1
94.00,96.07,1
145.00,94.50,1
218.00,95.15,1
123.00,98.34,1
50.00,101.76,1
70.00,103.42,1
56.00,103.27,1
51.00,101.67,1
77.00,99.02,1
44.00,95.79,1
58.00,92.00,1
117.00,88.37,1
58.00,85.59,1
124.00,83.60,1
126.00,82.91,1
35.00,83.05,1
69.00,82.60,1
44.00,81.32,1
42.00,79.29,1
56.00,76.65,1
83.00,74.07,1
100.00,72.32,1
76.00,71.57,1
36.00,71.01,1
37.00,69.77,1
135.00,68.54,1
49.00,68.29,1
50.00,68.19,1
63.00,67.60,1
42.00,66.71,1
102.00,65.89,1
73.00,65.73,1
36.00,65.78,1
92.00,65.60,1
92.00,65.87,1
42.00,66.54,1
248.00,68.35,1
133.00,73.01,1
58.00,78.91,1
126.00,83.88,1
68.00,88.01,1
75.00,91.02,1
55.00,92.55,1
49.00,92.57,1
44.00,91.12,1
37.00,88.42,1
158.00,85.73,1
76.00,84.41,1
36.00,83.48,1
88.00,81.95,1
60.00,80.33,1
80.00,78.82,1
97.00,77.69,1
123.00,77.55,1
131.00,78.81,1
38.00,80.67,1
82.00,81.81,1
62.00,82.16,1
101.00,82.24,1
57.00,82.23,1
46.00,81.67,1
90.00,80.50,1
69.00,79.39,1
40.00,78.14,1
60.00,76.33,1
62.00,74.25,1
57.00,72.21,1
92.00,70.49,1
56.00,69.32,1
64.00,68.34,1
91.00,67.62,1
82.00,67.55,1
37.00,67.68,1
85.00,67.53,1
58.00,67.38,1
49.00,67.10,1
37.00,66.26,1
160.00,65.77,1
68.00,66.74,1
47.00,68.10,1
48.00,68.61,1
49.00,68.31,1
56.00,67.50,1
47.00,66.36,1
62.00,65.06,1
101.00,64.16,1
59.00,64.03,1
69.00,64.20,1
97.00,64.64,1
62.00,65.52,1
79.00,66.51,1
127.00,67.93,1
63.00,70.03,1
71.00,72.00,1
40.00,73.14,1
84.00,73.53,1
124.00,74.15,1
41.00,75.25,1
53.00,75.74,1
70.00,75.40,1
86.00,74.95,1
58.00,74.61,1
58.00,74.03,1
75.00,73.21,1
62.00,72.39,1
34.00,71.30,1
66.00,69.74,1
61.00,68.12,1
36.00,66.49,1
74.00,64.77,1
75.00,63.46,1
50.00,62.63,1
94.00,62.16,1
56.00,62.18,1
38.00,62.15,1
45.00,61.54,1
66.00,60.65,1
99.00,60.25,1
62.00,60.65,1
190.00,62.37,1
57.00,65.76,1
71.00,69.26,1
99.00,72.10,1
211.00,75.85,1
94.00,81.28,1
51.00,86.44,1
77.00,89.76,1
127.00,92.06,1
40.00,93.83,1
65.00,94.32,1
37.00,93.26,1
62.00,91.03,1
83.00,88.34,1
36.00,85.55,1
140.00,83.04,1
73.00,81.60,1
69.00,80.75,1
61.00,79.68,1
113.00,78.75,1
121.00,78.80,1
60.00,79.67,1
63.00,80.21,1
48.00,79.90,1
55.00,78.78,1
80.00,77.29,1
102.00,76.22,1
41.00,75.58,1
85.00,74.82,1
35.00,73.80,1
40.00,72.19,1
53.00,69.96,1
154.00,68.43,1
65.00,68.56,1
40.00,69.07,1
40.00,68.70,1
37.00,67.42,1
386.00,68.36,1
42.00,73.89,1
85.00,80.24,1
122.00,85.18,1
96.00,89.64,1
102.00,93.49,1
66.00,96.36,1
39.00,97.60,1
36.00,96.80,1
58.00,94.38,1
72.00,91.28,1
120.00,88.57,1
52.00,86.60,1
109.00,84.99,1
65.00,83.73,1
127.00,83.03,1
142.00,83.57,1
125.00,85.65,1
110.00,88.58,1
141.00,91.90,1
126.00,95.67,1
151.00,99.89,1
66.00,103.88,1
63.00,106.32,1
56.00,106.68,1
97.00,105.68,1
42.00,103.82,1
80.00,101.13,1
39.00,97.72,1
115.00,94.17,1
81.00,91.24,1
78.00,88.94,1
40.00,86.54,1
138.00,84.30,1
130.00,83.51,1
66.00,83.98,1
66.00,84.27,1
69.00,83.90,1
127.00,83.59,1
42.00,83.60,1
64.00,83.11,1
129.00,82.46,1
234.00,83.85,1
120.00,88.13,1
54.00,92.83,1
48.00,95.60,1
200.00,97.43,1
52.00,99.74,1
54.00,101.15,1
102.00,101.01,1
41.00,100.04,1
48.00,97.89,1
50.00,94.57,1
125.00,91.17,1
86.00,88.76,1
37.00,86.76,1
62.00,84.20,1
46.00,81.17,1
101.00,78.28,1
65.00,76.09,1
39.00,74.14,1
40.00,71.71,1
92.00,69.23,1
95.00,67.70,1
121.00,67.65,1
89.00,68.90,1
109.00,70.94,1
62.00,73.21,1
69.00,75.00,1
54.00,75.98,1
260.00,77.84,1
42.00,81.80,1
78.00,85.59,1
46.00,87.63,1
74.00,88.30,1
63.00,88.02,1
58.00,87.01,1
51.00,85.26,1
72.00,83.03,1
50.00,80.60,1
70.00,78.09,1
64.00,75.70,1
55.00,73.47,1
49.00,71.19,1
179.00,69.84,1
144.00,71.12,1
70.00,74.19,1
67.00,76.97,1
61.00,78.72,1
55.00,79.47,1
55.00,79.27,1
89.00,78.60,1
80.00,78.08,1
180.00,78.65,1
53.00,80.56,1
139.00,82.88,1
90.00,85.38,1
80.00,87.75,1
35.00,89.00,1
71.00,88.84,1
42.00,87.58,1
147.00,86.22,1
156.00,86.40,1
49.00,87.88,1
103.00,89.05,1
39.00,89.43,1
65.00,88.79,1
119.00,87.74,1
39.00,86.87,1
48.00,85.37,1
142.00,83.69,1
183.00,83.91,1
130.00,86.59,1
63.00,89.94,1
121.00,92.63,1
48.00,94.53,1
65.00,95.18,1
41.00,94.32,1
158.00,93.06,1
193.00,93.58,1
103.00,96.24,1
71.00,98.96,1
39.00,100.10,1
127.00,99.91,1
72.00,99.49,1
44.00,98.48,1
108.00,96.67,1
188.00,95.80,1
194.00,97.58,1
117.00,101.44,1
122.00,105.58,1
41.00,108.56,1
151.00,110.16,1
96.00,111.36,1
264.00,113.61,1
78.00,117.37,1
41.00,120.15,1
48.00,120.00,1
128.00,118.11,1
96.00,116.06,1
93.00,114.09,1
39.00,111.46,1
60.00,107.67,1
100.00,103.37,1
39.00,99.15,1
157.00,95.44,1
55.00,92.84,1
66.00,90.54,1
96.00,88.14,1
87.00,86.26,1
144.00,85.40,1
50.00,85.44,1
83.00,85.35,1
99.00,85.06,1
65.00,84.89,1
127.00,84.89,1
127.00,85.78,1
215.00,88.56,1
79.00,93.00,1
93.00,97.16,1
196.00,100.92,1
110.00,105.36,1
189.00,110.27,1
53.00,114.83,1
39.00,117.25,1
65.00,116.80,1
91.00,114.75,1
68.00,112.00,1
74.00,108.68,1
46.00,104.73,1
97.00,100.44,1
92.00,96.60,1
110.00,93.72,1
158.00,92.32,1
68.00,92.29,1
40.00,91.97,1
107.00,90.79,1
118.00,89.97,1
89.00,89.95,1
104.00,90.27,1
72.00,90.58,1
218.00,91.69,1
71.00,94.29,1
66.00,96.67,1
74.00,97.55,1
58.00,97.24,1
49.00,95.75,1
142.00,93.91,1
85.00,92.86,1
34.00,91.86,1
157.00,90.62,1
84.00,90.25,1
45.00,90.05,1
70.00,88.94,1
75.00,87.30,1
85.00,85.68,1
114.00,84.59,1
69.00,84.13,1
98.00,83.89,1
52.00,83.55,1
68.00,82.76,1
65.00,81.51,1
123.00,80.52,1
36.00,79.98,1
39.00,78.85,1
148.00,77.55,1
86.00,77.49,1
35.00,77.82,1
36.00,77.08,1
156.00,76.14,1
84.00,76.48,1
56.00,77.35,1
56.00,77.53,1
220.00,78.32,1
77.00,81.06,1
51.00,83.99,1
32.00,85.18,1
61.00,84.73,1
185.00,84.39,1
161.00,86.24,1
148.00,90.20,1
48.00,94.40,1
38.00,96.81,1
86.00,97.17,1
38.00,96.27,1
117.00,94.71,1
221.00,94.47,1
208.00,97.50,1
41.00,102.19,1
59.00,105.26,1
119.00,106.40,1
90.00,106.94,1
47.00,106.67,1
36.00,104.75,1
95.00,101.60,1
49.00,98.10,1
101.00,94.63,1
63.00,91.46,1
35.00,88.19,1
138.00,85.03,1
71.00,82.97,1
92.00,81.75,1
133.00,81.33,1
42.00,81.63,1
83.00,81.64,1
78.00,81.32,1
66.00,80.90,1
113.00,80.58,1
48.00,80.49,1
72.00,80.07,1
75.00,79.31,1
76.00,78.57,1
138.00,78.44,1
132.00,79.74,1
54.00,81.89,1
85.00,83.50,1
95.00,84.59,1
90.00,85.65,1
118.00,86.87,1
46.00,88.00,1
70.00,88.25,1
61.00,87.56,1
157.00,87.03,1
40.00,87.19,1
58.00,86.87,1
82.00,85.72,1
112.00,84.77,1
169.00,85.17,1
105.00,87.26,1
113.00,90.03,1
36.00,92.20,1
157.00,93.63,1
93.00,95.28,1
40.00,96.54,1
59.00,96.22,1
195.00,95.72,1
143.00,97.09,1
55.00,99.37,1
42.00,100.25,1
212.00,100.49,1
44.00,101.58,1
59.00,102.01,1
91.00,101.04,1
69.00,99.52,1
41.00,97.30,1
40.00,93.96,1
50.00,89.73,1
85.00,85.40,1
38.00,81.42,1
81.00,77.71,1
38.00,74.28,1
79.00,71.17,1
126.00,69.12,1
61.00,68.53,1
96.00,68.66,1
49.00,68.98,1
37.00,68.86,1
103.00,68.36,1
78.00,68.38,1
48.00,68.67,1
45.00,68.44,1
83.00,67.81,1
79.00,67.49,1
70.00,67.59,1
144.00,68.45,1
59.00,70.28,1
78.00,72.16,1
58.00,73.45,1
42.00,73.96,1
46.00,73.45,1
64.00,72.26,1
48.00,70.81,1
45.00,69.06,1
126.00,67.63,1
47.00,67.14,1
56.00,66.84,1
150.00,66.95,1
154.00,69.07,1
36.00,72.48,1
67.00,75.09,1
249.00,78.07,1
45.00,82.80,1
62.00,86.98,1
40.00,89.02,1
172.00,90.22,1
57.00,91.79,1
51.00,92.73,1
89.00,92.41,1
126.00,92.05,1
42.00,91.90,1
63.00,91.00,1
43.00,89.04,1
103.00,86.69,1
126.00,85.14,1
94.00,84.87,1
112.00,85.38,1
114.00,86.51,1
173.00,88.74,1
46.00,91.70,1
178.00,94.58,1
73.00,97.56,1
67.00,99.83,1
74.00,100.58,1
60.00,100.09,1
45.00,98.37,1
111.00,95.97,1
76.00,93.80,1
127.00,92.28,1
83.00,91.50,1
38.00,90.61,1
34.00,88.55,1
188.00,86.48,1
36.00,85.74,1
75.00,85.11,1
44.00,83.72,1
40.00,81.57,1
144.00,79.46,1
189.00,79.49,1
131.00,82.31,1
56.00,85.94,1
66.00,88.40,1
68.00,89.45,1
62.00,89.48,1
135.00,89.24,1
79.00,89.51,1
104.00,90.04,1
90.00,90.58,1
143.00,91.54,1
49.00,92.75,1
92.00,93.36,1
75.00,93.27,1
127.00,93.18,1
55.00,93.20,1
193.00,93.69,1
90.00,95.36,1
38.00,96.86,1
241.00,98.17,1
172.00,101.62,1
132.00,106.82,1
69.00,111.41,1
287.00,115.82,1
102.00,121.49,1
62.00,126.36,1
39.00,128.05,1
119.00,127.18,1
163.00,125.96,1
98.00,125.34,1
71.00,124.28,1
63.00,121.88,1
135.00,118.76,1
206.00,116.94,1
150.00,117.45,1
102.00,118.98,1
123.00,120.16,1
73.00,120.55,1
258.00,121.22,1
112.00,123.53,1
220.00,127.01,1
166.00,131.39,1
115.00,135.88,1
205.00,139.78,1
58.00,142.93,1
132.00,144.35,1
47.00,143.67,1
152.00,141.52,1
170.00,139.51,1
171.00,138.88,1
178.00,139.50,1
38.00,140.03,1
38.00,138.19,1
192.00,134.76,1
52.00,131.61,1
82.00,127.99,1
120.00,123.78,1
120.00,120.14,1
40.00,116.71,1
240.00,113.88,1
122.00,113.28,1
71.00,113.67,1
85.00,113.08,1
145.00,112.07,1
89.00,111.44,1
108.00,110.84,1
134.00,110.34,1
47.00,109.81,1
65.00,108.20,1
120.00,105.85,1
43.00,103.44,1
43.00,100.23,1
252.00,97.62,1
98.00,97.74,1
120.00,99.31,1
157.00,101.31,1
277.00,105.38,1
57.00,111.35,1
48.00,115.82,1
150.00,117.91,1
84.00,119.17,1
79.00,119.45,1
121.00,118.71,1
85.00,117.58,1
45.00,115.61,1
56.00,112.18,1
105.00,108.03,1
42.00,103.84,1
106.00,99.66,1
103.00,96.14,1
154.00,94.15,1
54.00,93.38,1
41.00,92.21,1
128.00,90.43,1
43.00,88.91,1
120.00,87.57,1
127.00,87.06,1
92.00,87.67,1
148.00,89.02,1
89.00,91.07,1
80.00,92.97,1
127.00,94.45,1
42.00,95.55,1
214.00,96.74,1
97.00,99.16,1
97.00,101.89,1
131.00,104.09,1
38.00,105.60,1
89.00,105.70,1
72.00,104.68,1
119.00,103.34,1
71.00,102.06,1
103.00,100.71,1
95.00,99.44,1
54.00,98.04,1
124.00,96.44,1
148.00,95.76,1
209.00,97.28,1
38.00,100.22,1
43.00,101.84,1
89.00,101.45,1
71.00,100.20,1
74.00,98.47,1
43.00,96.04,1
84.00,93.04,1
51.00,89.84,1
72.00,86.57,1
61.00,83.34,1
38.00,80.04,1
103.00,76.87,1
49.00,74.34,1
80.00,72.29,1
59.00,70.56,1
87.00,69.26,1
103.00,68.77,1
246.00,70.56,1
53.00,74.97,1
60.00,79.25,1
35.00,81.59,1
118.00,82.70,1
147.00,84.28,1
66.00,86.64,1
203.00,89.58,1
102.00,93.61,1
38.00,97.25,1
117.00,99.22,1
114.00,100.62,1
220.00,103.05,1
60.00,106.58,1
65.00,109.09,1
156.00,110.24,1
146.00,111.80,1
51.00,113.41,1
62.00,113.44,1
56.00,111.60,1
42.00,108.30,1
36.00,103.66,1
76.00,98.27,1
95.00,93.26,1
132.00,89.67,1
80.00,87.61,1
76.00,86.19,1
127.00,85.23,1
118.00,85.40,1
39.00,86.04,1
49.00,85.70,1
59.00,84.19,1
104.00,82.50,1
41.00,81.04,1
73.00,79.38,1
50.00,77.44,1
49.00,75.25,1
64.00,72.83,1
94.00,70.83,1
197.00,70.70,1
95.00,73.12,1
40.00,76.08,1
70.00,77.82,1
44.00,78.42,1
40.00,77.90,1
58.00,76.44,1
80.00,74.75,1
112.00,73.72,1
59.00,73.49,1
94.00,73.58,1
80.00,73.91,1
51.00,74.24,1
67.00,74.09,1
205.00,74.75,1
48.00,77.14,1
44.00,79.26,1
40.00,79.69,1
203.00,80.09,1
53.00,81.89,1
172.00,84.53,1
48.00,87.43,1
208.00,90.69,1
35.00,94.30,1
94.00,97.00,1
65.00,98.20,1
79.00,98.37,1
66.00,97.64,1
305.00,98.13,1
68.00,101.44,1
153.00,105.54,1
50.00,108.67,1
45.00,109.92,1
83.00,109.04,1
428.00,110.06,1
72.00,115.57,1
44.00,121.04,1
129.00,123.57,1
99.00,124.70,1
56.00,124.58,1
53.00,122.54,1
179.00,119.74,1
50.00,117.47,1
88.00,114.89,1
62.00,111.51,1
76.00,107.61,1
58.00,103.33,1
81.00,98.92,1
169.00,95.52,1
38.00,93.57,1
98.00,91.82,1
38.00,89.70,1
71.00,87.14,1
80.00,84.45,1
39.00,81.85,1
44.00,78.83,1
69.00,75.54,1
66.00,72.59,1
49.00,70.02,1
42.00,67.45,1
123.00,65.39,1
74.00,64.66,1
42.00,64.57,1
132.00,64.76,1
169.00,66.72,1
313.00,72.48,1
65.00,81.64,1
58.00,90.04,1
59.00,95.43,1
115.00,98.75,1
161.00,101.73,1
36.00,104.54,1
47.00,105.52,1
144.00,105.03,1
84.00,104.65,1
78.00,104.13,1
74.00,102.87,1
52.00,100.80,1
114.00,98.30,1
43.00,95.81,1
67.00,92.96,1
140.00,90.34,1
105.00,89.10,1
85.00,88.82,1
39.00,88.26,1
81.00,86.93,1
64.00,85.22,1
90.00,83.58,1
73.00,82.18,1
63.00,80.88,1
63.00,79.37,1
82.00,77.84,1
62.00,76.49,1
127.00,75.70,1
43.00,75.56,1
115.00,75.68,1
93.00,76.29,1
121.00,77.74,1
61.00,79.55,1
35.00,80.59,1
124.00,80.80,1
42.00,80.98,1
58.00,80.63,1
64.00,79.53,1
51.00,78.01,1
135.00,76.76,1
240.00,77.95,1
76.00,82.02,1
61.00,86.15,1
48.00,88.45,1
68.00,89.12,1
72.00,88.79,1
85.00,88.04,1
64.00,87.10,1
56.00,85.72,1
92.00,84.04,1
128.00,83.03,1
45.00,82.78,1
89.00,82.39,1
231.00,83.13,1
57.00,86.01,1
68.00,88.78,1
68.00,90.09,1
90.00,90.52,1
55.00,90.35,1
109.00,89.79,1
47.00,89.03,1
142.00,88.37,1
91.00,88.43,1
46.00,88.61,1
111.00,88.25,1
62.00,87.78,1
81.00,87.13,1
42.00,85.96,1
120.00,84.58,1
60.00,83.56,1
73.00,82.61,1
44.00,81.23,1
50.00,79.21,1
49.00,76.65,1
92.00,74.16,1
87.00,72.46,1
58.00,71.46,1
39.00,70.33,1
50.00,68.68,1
85.00,67.00,1
52.00,65.77,1
38.00,64.52,1
65.00,63.04,1
62.00,61.72,1
134.00,61.37,1
90.00,62.55,1
58.00,64.45,1
73.00,66.07,1
65.00,67.35,1
39.00,68.08,1
140.00,68.73,1
63.00,70.11,1
115.00,71.99,1
64.00,73.99,1
179.00,76.56,1
68.00,80.04,1
80.00,83.31,1
51.00,85.34,1
103.00,86.41,1
215.00,88.28,1
74.00,91.81,1
100.00,95.30,1
51.00,97.46,1
54.00,97.98,1
67.00,97.01,1
68.00,95.16,1
68.00,92.84,1
44.00,90.06,1
218.00,88.06,1
84.00,88.30,1
91.00,89.50,1
112.00,90.59,1
53.00,91.45,1
49.00,91.29,1
45.00,89.75,1
281.00,89.09,1
67.00,91.22,1
68.00,93.82,1
160.00,95.70,1
37.00,97.47,1
87.00,98.25,1
36.00,97.64,1
93.00,96.02,1
54.00,93.90,1
83.00,91.53,1
119.00,89.49,1
91.00,88.40,1
69.00,87.72,1
75.00,86.80,1
67.00,85.59,1
66.00,84.11,1
49.00,82.25,1
44.00,79.81,1
112.00,77.38,1
70.00,75.77,1
66.00,74.68,1
41.00,73.39,1
62.00,71.71,1
133.00,70.53,1
82.00,70.71,1
152.00,72.23,1
60.00,74.71,1
57.00,76.84,1
153.00,78.62,1
126.00,81.45,1
112.00,85.17,1
75.00,88.71,1
108.00,91.51,1
63.00,93.54,1
53.00,94.34,1
40.00,93.54,1
104.00,91.79,1
83.00,90.16,1
64.00,88.71,1
33.00,86.68,1
108.00,84.22,1
111.00,82.54,1
36.00,81.57,1
65.00,80.18,1
72.00,78.43,1
47.00,76.62,1
52.00,74.51,1
59.00,72.17,1
94.00,70.19,1
71.00,69.00,1
96.00,68.57,1
66.00,68.69,1
113.00,69.34,1
62.00,70.47,1
93.00,71.73,1
101.00,73.21,1
140.00,75.51,1
51.00,78.34,1
67.00,80.45,1
83.00,81.60,1
87.00,82.42,1
203.00,84.13,1
105.00,87.61,1
164.00,92.15,1
77.00,96.78,1
48.00,100.12,1
58.00,101.24,1
52.00,100.50,1
176.00,99.41,1
33.00,98.92,1
41.00,97.60,1
73.00,94.92,1
37.00,91.58,1
127.00,88.27,1
127.00,86.30,1
47.00,85.49,1
70.00,84.46,1
47.00,82.82,1
49.00,80.57,1
187.00,78.94,1
71.00,79.19,1
62.00,80.01,1
45.00,79.96,1
37.00,78.84,1
50.00,76.76,1
127.00,74.82,1
85.00,74.10,1
49.00,73.97,1
81.00,73.61,1
59.00,73.13,1
66.00,72.53,1
40.00,71.59,1
78.00,70.35,1
148.00,69.94,1
163.00,71.75,1
47.00,75.08,1
36.00,77.54,1
48.00,78.21,1
42.00,77.57,1
123.00,76.62,1
69.00,76.32,1
107.00,76.61,1
206.00,78.36,1
48.00,81.79,1
67.00,84.74,1
132.00,86.78,1
91.00,88.94,1
38.00,90.56,1
63.00,90.69,1
107.00,90.03,1
60.00,89.34,1
83.00,88.42,1
71.00,87.25,1
90.00,86.08,1
58.00,84.89,1
123.00,83.91,1
63.00,83.42,1
176.00,83.80,1
44.00,85.13,1
132.00,86.59,1
36.00,87.68,1
146.00,88.51,1
63.00,89.44,1
36.00,89.73,1
57.00,88.58,1
163.00,87.35,1
53.00,87.14,1
68.00,86.89,1
75.00,85.99,1
45.00,84.62,1
46.00,82.53,1
48.00,79.72,1
42.00,76.47,1
64.00,73.09,1
67.00,70.07,1
59.00,67.57,1
51.00,65.40,1
84.00,63.61,1
99.00,62.77,1
94.00,63.18,1
66.00,64.33,1
139.00,66.10,1
69.00,68.68,1
61.00,71.17,1
36.00,72.58,1
42.00,72.68,1
40.00,71.66,1
35.00,69.79,1
57.00,67.44,1
46.00,65.04,1
148.00,63.51,1
41.00,63.43,1
40.00,63.51,1
66.00,63.01,1
98.00,62.79,1
112.00,63.65,1
62.00,65.37,1
89.00,67.21,1
58.00,68.85,1
37.00,69.82,1
57.00,69.80,1
120.00,69.72,1
83.00,70.50,1
53.00,71.56,1
64.00,72.09,1
38.00,71.92,1
44.00,70.93,1
48.00,69.27,1
34.00,67.15,1
66.00,64.82,1
51.00,62.71,1
54.00,60.86,1
88.00,59.48,1
67.00,58.93,1
64.00,58.93,1
96.00,59.38,1
111.00,60.81,1
100.00,63.37,1
66.00,66.33,1
92.00,69.07,1
43.00,71.29,1
72.00,72.68,1
92.00,73.64,1
45.00,74.43,1
59.00,74.55,1
75.00,74.13,1
89.00,73.83,1
123.00,74.28,1
92.00,75.71,1
53.00,77.27,1
43.00,77.88,1
93.00,77.68,1
85.00,77.55,1
41.00,77.41,1
48.00,76.51,1
121.00,75.42,1
118.00,75.48,1
38.00,76.30,1
81.00,76.66,1
121.00,77.06,1
105.00,78.36,1
69.00,80.08,1
67.00,81.29,1
54.00,81.64,1
57.00,81.12,1
70.00,80.00,1
49.00,78.54,1
74.00,76.82,1
118.00,75.58,1
67.00,75.26,1
42.00,74.96,1
57.00,73.96,1
110.00,72.96,1
59.00,72.57,1
181.00,73.25,1
80.00,75.49,1
140.00,78.69,1
82.00,82.17,1
42.00,84.95,1
40.00,85.93,1
114.00,85.79,1
38.00,85.38,1
106.00,84.69,1
76.00,84.05,1
210.00,84.67,1
128.00,87.49,1
41.00,90.95,1
52.00,92.74,1
39.00,92.55,1
57.00,90.87,1
46.00,88.22,1
75.00,85.14,1
124.00,82.64,1
40.00,81.00,1
134.00,79.88,1
410.00,82.35,1
62.00,89.90,1
72.00,97.68,1
138.00,103.20,1
52.00,107.29,1
96.00,109.64,1
63.00,110.33,1
69.00,109.60,1
111.00,108.00,1
57.00,106.08,1
54.00,103.42,1
44.00,99.69,1
140.00,95.89,1
50.00,92.93,1
82.00,90.27,1
156.00,88.32,1
107.00,88.09,1
91.00,88.81,1
72.00,89.41,1
82.00,89.53,1
49.00,89.01,1
64.00,87.68,1
62.00,85.75,1
102.00,83.84,1
72.00,82.42,1
49.00,81.04,1
74.00,79.34,1
57.00,77.52,1
51.00,75.55,1
67.00,73.41,1
42.00,71.24,1
38.00,68.80,1
72.00,66.23,1
92.00,64.36,1
39.00,63.25,1
48.00,62.12,1
127.00,61.37,1
60.00,61.78,1
45.00,62.45,1
102.00,62.98,1
57.00,63.83,1
63.00,64.68,1
43.00,65.04,1
60.00,64.90,1
82.00,64.66,1
39.00,64.52,1
200.00,65.26,1
52.00,67.74,1
89.00,70.63,1
60.00,72.89,1
47.00,74.32,1
146.00,75.42,1
123.00,77.59,1
113.00,80.85,1
121.00,84.55,1
55.00,87.95,1
195.00,91.15,1
93.00,95.02,1
269.00,100.21,1
76.00,106.69,1
80.00,112.23,1
42.00,115.00,1
62.00,115.16,1
42.00,113.18,1
70.00,109.69,1
37.00,105.22,1
126.00,100.57,1
155.00,97.38,1
162.00,96.70,1
90.00,97.71,1
51.00,98.48,1
66.00,97.94,1
42.00,96.13,1
43.00,93.15,1
148.00,90.09,1
150.00,88.82,1
37.00,88.96,1
81.00,88.64,1
114.00,88.05,1
67.00,87.81,1
72.00,87.36,1
222.00,87.72,1
91.00,90.14,1
74.00,92.96,1
92.00,94.76,1
90.00,95.86,1
67.00,96.32,1
270.00,97.59,1
52.00,100.77,1
81.00,103.63,1
56.00,104.59,1
42.00,103.79,1
78.00,101.56,1
74.00,98.75,1
40.00,95.54,1
119.00,92.20,1
115.00,89.86,1
238.00,89.96,1
252.00,94.04,1
71.00,100.77,1
89.00,106.55,1
99.00,110.27,1
60.00,112.32,1
45.00,112.35,1
34.00,110.17,1
83.00,106.50,1
36.00,102.13,1
98.00,97.52,1
131.00,93.79,1
72.00,91.42,1
144.00,90.07,1
195.00,90.68,1
49.00,92.97,1
68.00,94.62,1
100.00,95.08,1
51.00,94.92,1
76.00,93.95,1
56.00,92.23,1
55.00,89.88,1
66.00,87.03,1
34.00,83.80,1
47.00,80.07,1
133.00,76.75,1
60.00,74.78,1
39.00,73.23,1
40.00,71.09,1
56.00,68.56,1
51.00,66.05,1
54.00,63.70,1
68.00,61.69,1
59.00,60.18,1
106.00,59.46,1
87.00,59.92,1
51.00,61.03,1
39.00,61.73,1
45.00,61.66,1
74.00,61.24,1
85.00,61.20,1
50.00,61.58,1
86.00,62.08,1
38.00,62.55,1
62.00,62.68,1
60.00,62.55,1
64.00,62.42,1
46.00,62.18,1
62.00,61.75,1
36.00,61.09,1
125.00,60.70,1
85.00,61.48,1
188.00,64.04,1
89.00,68.42,1
111.00,73.43,1
41.00,77.72,1
84.00,80.70,1
135.00,83.13,1
37.00,85.47,1
55.00,86.59,1
48.00,86.18,1
116.00,85.22,1
74.00,84.60,1
36.00,83.81,1
92.00,82.40,1
136.00,81.54,1
40.00,81.54,1
39.00,80.94,1
58.00,79.27,1
52.00,77.09,1
45.00,74.60,1
88.00,72.13,1
48.00,70.10,1
42.00,68.11,1
43.00,65.78,1
112.00,63.82,1
35.00,62.72,1
92.00,62.07,1
108.00,62.24,1
39.00,63.17,1
71.00,63.92,1
70.00,64.45,1
149.00,65.70,1
131.00,68.62,1
37.00,72.29,1
49.00,74.78,1
170.00,76.73,1
56.00,79.35,1
61.00,81.56,1
47.00,82.40,1
71.00,82.16,1
68.00,81.39,1
38.00,80.14,1
101.00,78.56,1
45.00,77.12,1
101.00,75.88,1
74.00,75.09,1
35.00,74.35,1
234.00,74.46,1
75.00,76.86,1
68.00,79.89,1
85.00,82.01,1
45.00,83.24,1
70.00,83.45,1
37.00,82.67,1
51.00,80.97,1
45.00,78.51,1
75.00,75.82,1
37.00,73.18,1
68.00,70.55,1
71.00,68.24,1
150.00,67.21,1
65.00,67.82,1
143.00,69.54,1
57.00,71.92,1
36.00,73.77,1
155.00,75.09,1
129.00,77.53,1
79.00,80.90,1
70.00,83.73,1
82.00,85.60,1
92.00,86.89,1
88.00,87.92,1
45.00,88.38,1
149.00,88.52,1
58.00,89.01,1
88.00,89.35,1
63.00,89.12,1
35.00,88.05,1
81.00,86.09,1
97.00,84.18,1
130.00,83.31,1
108.00,83.75,1
54.00,84.62,1
105.00,85.15,1
56.00,85.37,1
43.00,84.86,1
138.00,83.98,1
87.00,83.88,1
63.00,84.14,1
36.00,83.61,1
96.00,82.36,1
59.00,81.05,1
39.00,79.47,1
49.00,77.18,1
43.00,74.36,1
59.00,71.37,1
40.00,68.40,1
107.00,65.91,1
69.00,64.52,1
45.00,63.72,1
47.00,62.71,1
53.00,61.46,1
40.00,60.06,1
49.00,58.53,1
93.00,57.33,1
155.00,57.76,1
35.00,59.80,1
42.00,61.58,1
40.00,62.22,1
109.00,62.55,1
103.00,63.71,1
61.00,65.61,1
111.00,67.66,1
153.00,70.59,1
304.00,76.49,1
113.00,85.66,1
35.00,94.47,1
61.00,100.03,1
58.00,102.71,1
75.00,103.43,1
61.00,102.77,1
66.00,101.04,1
89.00,98.71,1
83.00,96.38,1
194.00,95.14,1
87.00,95.68,1
105.00,96.84,1
102.00,97.81,1
67.00,98.42,1
112.00,98.51,1
40.00,98.05,1
74.00,96.66,1
54.00,94.41,1
38.00,91.39,1
61.00,87.64,1
55.00,83.69,1
49.00,79.73,1
69.00,75.91,1
37.00,72.35,1
147.00,69.66,1
78.00,68.69,1
92.00,68.95,1
180.00,70.52,1
74.00,73.75,1
112.00,77.39,1
46.00,80.45,1
67.00,82.35,1
77.00,83.19,1
80.00,83.56,1
82.00,83.71,1
39.00,83.40,1
38.00,82.03,1
75.00,79.85,1
65.00,77.63,1
87.00,75.80,1
79.00,74.53,1
35.00,73.41,1
71.00,71.96,1
34.00,70.22,1
127.00,68.77,1
56.00,68.25,1
67.00,68.13,1
54.00,67.80,1
82.00,67.44,1
163.00,68.08,1
40.00,70.05,1
36.00,71.53,1
124.00,72.24,1
78.00,73.38,1
134.00,75.26,1
75.00,77.67,1
65.00,79.82,1
91.00,81.26,1
72.00,82.30,1
94.00,83.09,1
284.00,85.44,1
69.00,90.46,1
165.00,96.15,1
44.00,100.96,1
43.00,103.71,1
120.00,104.40,1
55.00,104.26,1
95.00,103.39,1
50.00,101.74,1
45.00,99.10,1
100.00,95.79,1
60.00,92.63,1
108.00,89.88,1
55.00,87.55,1
92.00,85.45,1
74.00,83.61,1
69.00,82.01,1
65.00,80.37,1
77.00,78.74,1
85.00,77.41,1
129.00,76.96,1
42.00,77.26,1
82.00,77.37,1
109.00,77.50,1
81.00,78.19,1
48.00,78.77,1
83.00,78.75,1
72.00,78.49,1
142.00,78.75,1
64.00,79.82,1
96.00,81.03,1
79.00,82.03,1
70.00,82.76,1
71.00,82.98,1
87.00,82.87,1
39.00,82.39,1
55.00,81.13,1
44.00,79.07,1
95.00,76.86,1
59.00,75.06,1
39.00,73.29,1
73.00,71.26,1
65.00,69.43,1
42.00,67.76,1
60.00,65.99,1
36.00,64.09,1
99.00,62.44,1
52.00,61.49,1
38.00,60.73,1
51.00,59.62,1
52.00,58.39,1
92.00,57.57,1
68.00,57.55,1
40.00,57.85,1
45.00,57.76,1
72.00,57.45,1
54.00,57.33,1
43.00,57.18,1
91.00,57.09,1
95.00,57.78,1
36.00,59.01,1
42.00,59.72,1
42.00,59.63,1
61.00,59.13,1
48.00,58.54,1
57.00,57.93,1
80.00,57.55,1
91.00,57.91,1
75.00,59.06,1
105.00,60.85,1
76.00,63.19,1
75.00,65.61,1
40.00,67.49,1
64.00,68.49,1
87.00,69.09,1
115.00,70.18,1
52.00,71.74,1
90.00,73.11,1
84.00,74.35,1
55.00,75.41,1
64.00,75.86,1
58.00,75.69,1
93.00,75.32,1
106.00,75.43,1
81.00,76.22,1
79.00,77.16,1
58.00,77.78,1
74.00,77.90,1
82.00,77.79,1
85.00,77.81,1
90.00,78.08,1
61.00,78.40,1
38.00,78.10,1
37.00,76.73,1
58.00,74.56,1
38.00,72.02,1
38.00,69.12,1
119.00,66.56,1
46.00,65.07,1
67.00,64.09,1
124.00,63.74,1
38.00,64.28,1
66.00,64.76,1
74.00,65.01,1
138.00,65.96,1
44.00,67.78,1
68.00,69.35,1
47.00,70.12,1
64.00,70.26,1
36.00,69.78,1
65.00,68.78,1
103.00,67.97,1
98.00,68.17,1
68.00,69.10,1
58.00,69.94,1
36.00,70.07,1
39.00,69.25,1
42.00,67.62,1
50.00,65.58,1
42.00,63.37,1
41.00,61.05,1
65.00,58.83,1
58.00,57.09,1
38.00,55.69,1
42.00,54.24,1
59.00,52.85,1
40.00,51.69,1
42.00,50.60,1
98.00,49.93,1
74.00,50.36,1
37.00,51.36,1
61.00,52.15,1
56.00,52.80,1
47.00,53.37,1
77.00,53.91,1
46.00,54.59,1
41.00,55.03,1
45.00,54.97,1
112.00,55.12,1
62.00,56.15,1
44.00,57.39,1
62.00,58.18,1
127.00,59.30,1
43.00,61.16,1
51.00,62.72,1
66.00,63.59,1
62.00,64.17,1
41.00,64.39,1
93.00,64.39,1
53.00,64.57,1
50.00,64.64,1
81.00,64.48,1
35.00,64.27,1
63.00,63.75,1
93.00,63.35,1
127.00,64.07,1
89.00,66.10,1
39.00,68.30,1
43.00,69.44,1
127.00,70.10,1
172.00,72.15,1
38.00,75.57,1
44.00,78.08,1
53.00,78.88,1
116.00,79.08,1
45.00,79.34,1
61.00,79.12,1
111.00,78.64,1
40.00,78.34,1
52.00,77.52,1
180.00,77.02,1
45.00,77.88,1
80.00,78.86,1
51.00,79.11,1
47.00,78.56,1
35.00,77.03,1
41.00,74.62,1
37.00,71.58,1
63.00,68.37,1
70.00,65.59,1
93.00,63.77,1
38.00,62.71,1
85.00,61.94,1
51.00,61.44,1
363.00,63.59,1
104.00,70.43,1
69.00,78.61,1
206.00,85.93,1
44.00,92.99,1
140.00,98.87,1
165.00,104.11,1
63.00,109.05,1
113.00,112.53,1
80.00,114.50,1
114.00,115.41,1
68.00,115.37,1
42.00,113.95,1
74.00,110.98,1
316.00,109.23,1
86.00,110.88,1
67.00,113.06,1
71.00,113.36,1
127.00,112.61,1
40.00,111.34,1
40.00,108.72,1
69.00,104.68,1
216.00,101.41,1
145.00,100.93,1
87.00,102.15,1
108.00,103.23,1
85.00,103.84,1
87.00,103.89,1
68.00,103.19,1
146.00,102.30,1
138.00,102.35,1
225.00,104.38,1
57.00,107.79,1
44.00,109.99,1
68.00,109.73,1
94.00,108.17,1
44.00,105.88,1
96.00,102.92,1
112.00,100.14,1
169.00,98.77,1
84.00,98.90,1
369.00,101.58,1
75.00,107.69,1
86.00,113.78,1
84.00,117.38,1
53.00,118.77,1
276.00,119.76,1
163.00,122.91,1
120.00,127.21,1
219.00,131.41,1
269.00,137.13,1
79.00,143.86,1
102.00,148.59,1
78.00,150.21,1
74.00,149.22,1
162.00,146.72,1
45.00,143.63,1
198.00,140.25,1
38.00,137.00,1
110.00,133.16,1
206.00,129.68,1
112.00,128.00,1
145.00,127.24,1
63.00,126.30,1
144.00,124.84,1
106.00,123.38,1
132.00,122.23,1
108.00,121.26,1
41.00,119.73,1
127.00,117.21,1
138.00,115.00,1
136.00,113.98,1
62.00,113.34,1
200.00,112.90,1
70.00,113.24,1
69.00,113.13,1
65.00,111.54,1
77.00,108.93,1
274.00,107.43,1
153.00,109.22,1
251.00,113.85,1
39.00,119.34,1
99.00,123.09,1
156.00,125.13,1
159.00,127.25,1
40.00,128.90,1
128.00,128.93,1
110.00,128.04,1
72.00,126.59,1
114.00,124.33,1
62.00,121.48,1
229.00,119.16,1
54.00,118.22,1
93.00,117.16,1
58.00,114.90,1
77.00,111.75,1
50.00,107.82,1
178.00,104.20,1
68.00,101.92,1
39.00,99.73,1
180.00,97.46,1
61.00,96.31,1
45.00,95.12,1
85.00,93.02,1
88.00,90.84,1
158.00,89.65,1
86.00,89.84,1
61.00,90.24,1
45.00,89.65,1
81.00,88.15,1
117.00,86.78,1
102.00,86.31,1
85.00,86.46,1
91.00,86.72,1
54.00,86.70,1
46.00,85.84,1
42.00,83.90,1
73.00,81.33,1
310.00,80.80,1
57.00,83.92,1
173.00,88.47,1
249.00,94.39,1
274.00,103.61,1
204.00,115.49,1
104.00,127.21,1
180.00,136.79,1
115.00,144.33,1
48.00,149.06,1
55.00,149.91,1
59.00,147.35,1
112.00,142.90,1
119.00,138.11,1
97.00,133.59,1
350.00,131.24,1
60.00,132.21,1
158.00,133.76,1
95.00,134.41,1
86.00,134.05,1
167.00,132.92,1
94.00,131.92,1
56.00,130.19,1
43.00,126.62,1
130.00,121.95,1
175.00,118.31,1
52.00,116.04,1
78.00,113.43,1
116.00,110.36,1
77.00,107.58,1
255.00,106.24,1
209.00,108.31,1
44.00,112.24,1
132.00,115.06,1
124.00,116.96,1
43.00,118.04,1
140.00,117.85,1
80.00,117.13,1
42.00,115.53,1
41.00,112.18,1
79.00,107.59,1
99.00,103.00,1
36.00,98.69,1
76.00,94.19,1
80.00,89.88,1
168.00,86.96,1
118.00,86.30,1
51.00,86.71,1
149.00,87.21,1
125.00,88.62,1
140.00,91.23,1
36.00,93.85,1
89.00,95.22,1
48.00,95.26,1
64.00,94.19,1
76.00,92.34,1
123.00,90.69,1
70.00,89.67,1
66.00,88.65,1
37.00,86.91,1
82.00,84.55,1
44.00,81.97,1
67.00,79.26,1
59.00,76.54,1
55.00,73.92,1
73.00,71.49,1
149.00,70.18,1
52.00,70.37,1
133.00,71.38,1
63.00,72.96,1
142.00,75.06,1
180.00,78.54,1
77.00,83.40,1
142.00,88.27,1
84.00,92.74,1
103.00,96.48,1
70.00,99.10,1
48.00,100.23,1
100.00,99.95,1
44.00,98.84,1
38.00,96.59,1
37.00,92.94,1
164.00,89.38,1
57.00,87.21,1
189.00,86.55,1
42.00,87.14,1
65.00,87.49,1
68.00,86.85,1
60.00,85.64,1
212.00,85.19,1
52.00,86.45,1
82.00,87.85,1
100.00,88.61,1
165.00,89.96,1
46.00,91.96,1
154.00,93.83,1
102.00,95.92,1
59.00,97.78,1
63.00,98.29,1
95.00,97.74,1
177.00,97.65,1
37.00,98.37,1
161.00,99.06,1
70.00,99.87,1
44.00,100.01,1
204.00,99.81,1
84.00,100.79,1
109.00,102.18,1
43.00,102.71,1
59.00,101.80,1
97.00,99.87,1
57.00,97.67,1
40.00,94.83,1
54.00,91.13,1
52.00,86.94,1
119.00,83.17,1
188.00,81.50,1
116.00,82.63,1
60.00,84.73,1
74.00,86.08,1
59.00,86.45,1
202.00,87.14,1
68.00,89.17,1
62.00,91.08,1
46.00,91.48,1
41.00,90.37,1
145.00,88.79,1
41.00,87.72,1
77.00,86.52,1
81.00,85.04,1
76.00,83.70,1
64.00,82.36,1
69.00,80.89,1
113.00,79.69,1
122.00,79.61,1
41.00,80.21,1
51.00,80.11,1
108.00,79.46,1
95.00,79.33,1
110.00,79.99,1
64.00,80.99,1
94.00,81.81,1
77.00,82.44,1
254.00,84.36,1
137.00,89.00,1
443.00,97.69,1
176.00,110.99,1
125.00,125.04,1
73.00,135.70,1
52.00,141.97,1
49.00,143.89,1
164.00,143.15,1
131.00,142.06,1
147.00,141.27,1
153.00,140.77,1
70.00,140.06,1
89.00,138.04,1
65.00,134.53,1
42.00,129.56,1
201.00,124.39,1
39.00,120.34,1
77.00,116.22,1
114.00,111.78,1
161.00,108.57,1
85.00,106.84,1
128.00,105.80,1
48.00,104.72,1
140.00,103.44,1
53.00,102.20,1
40.00,100.24,1
52.00,96.95,1
129.00,93.49,1
81.00,91.01,1
60.00,89.01,1
66.00,86.75,1
68.00,84.32,1
61.00,81.85,1
34.00,79.11,1
132.00,76.57,1
48.00,74.97,1
90.00,73.91,1
101.00,73.38,1
33.00,73.24,1
56.00,72.56,1
123.00,71.86,1
135.00,72.57,1
48.00,74.35,1
59.00,75.65,1
70.00,76.08,1
122.00,76.55,1
265.00,79.17,1
37.00,84.24,1
80.00,88.78,1
136.00,92.04,1
138.00,95.54,1
230.00,100.35,1
176.00,107.09,1
37.00,113.81,1
88.00,117.94,1
44.00,119.30,1
50.00,118.22,1
236.00,116.63,1
45.00,116.26,1
93.00,115.60,1
159.00,114.49,1
52.00,113.69,1
116.00,112.44,1
98.00,110.94,1
70.00,109.28,1
79.00,107.02,1
57.00,104.11,1
42.00,100.40,1
72.00,96.03,1
40.00,91.38,1
53.00,86.53,1
68.00,81.76,1
93.00,77.76,1
49.00,74.65,1
125.00,72.43,1
67.00,71.39,1
50.00,70.79,1
50.00,69.80,1
35.00,68.26,1
65.00,66.36,1
53.00,64.52,1
36.00,62.71,1
197.00,61.92,1
51.00,63.25,1
75.00,65.26,1
127.00,67.33,1
186.00,70.96,1
41.00,75.84,1
88.00,79.98,1
82.00,82.94,1
46.00,84.90,1
47.00,85.41,1
46.00,84.49,1
280.00,84.47,1
82.00,87.34,1
265.00,92.54,1
90.00,99.25,1
53.00,105.18,1
41.00,108.14,1
82.00,108.61,1
35.00,107.35,1
130.00,105.15,1
158.00,103.75,1
38.00,103.26,1
107.00,102.30,1
112.00,101.19,1
54.00,100.19,1
55.00,98.39,1
83.00,95.81,1
53.00,92.95,1
161.00,90.59,1
103.00,89.76,1
40.00,89.51,1
54.00,88.32,1
64.00,86.25,1
142.00,84.51,1
114.00,84.21,1
155.00,85.54,1
85.00,87.96,1
66.00,90.12,1
126.00,91.62,1
42.00,92.70,1
57.00,92.66,1
176.00,92.30,1
53.00,92.80,1
71.00,93.03,1
36.00,92.03,1
74.00,90.02,1
102.00,87.88,1
56.00,86.10,1
53.00,84.11,1
115.00,82.11,1
38.00,80.52,1
46.00,78.61,1
124.00,76.66,1
114.00,76.00,1
35.00,76.19,1
73.00,75.94,1
110.00,75.64,1
38.00,75.65,1
120.00,75.69,1
60.00,76.00,1
125.00,76.75,1
44.00,77.71,1
55.00,78.08,1
62.00,77.57,1
58.00,76.57,1
102.00,75.59,1
109.00,75.42,1
38.00,75.76,1
112.00,75.97,1
131.00,76.86,1
104.00,78.95,1
44.00,81.10,1
71.00,82.23,1
121.00,82.90,1
62.00,83.77,1
36.00,83.98,1
75.00,83.08,1
111.00,82.11,1
37.00,81.41,1
135.00,80.84,1
176.00,81.73,1
58.00,84.23,1
71.00,86.35,1
66.00,87.30,1
76.00,87.43,1
219.00,88.25,1
56.00,90.68,1
60.00,92.75,1
69.00,93.28,1
72.00,92.84,1
43.00,91.53,1
168.00,90.20,1
50.00,89.76,1
98.00,89.49,1
71.00,88.94,1
80.00,88.23,1
44.00,87.04,1
192.00,86.23,1
49.00,86.72,1
62.00,87.13,1
58.00,86.47,1
32.00,84.84,1
88.00,82.53,1
109.00,80.67,1
56.00,79.58,1
51.00,78.37,1
148.00,77.39,1
119.00,77.94,1
189.00,80.54,1
122.00,85.00,1
81.00,89.83,1
99.00,93.69,1
43.00,96.17,1
37.00,96.70,1
172.00,96.29,1
78.00,96.60,1
58.00,96.84,1
155.00,96.69,1
133.00,97.54,1
50.00,98.86,1
50.00,98.93,1
63.00,97.42,1
125.00,95.54,1
52.00,93.97,1
80.00,92.22,1
70.00,90.16,1
43.00,87.79,1
74.00,84.98,1
36.00,81.91,1
117.00,79.04,1
39.00,76.81,1
64.00,74.71,1
58.00,72.51,1
60.00,70.42,1
44.00,68.34,1
82.00,66.39,1
96.00,65.24,1
52.00,64.90,1
106.00,65.04,1
78.00,65.82,1
101.00,67.24,1
139.00,69.57,1
46.00,72.56,1
42.00,74.68,1
55.00,75.34,1
126.00,75.65,1
85.00,76.64,1
85.00,78.00,1
64.00,79.09,1
122.00,80.08,1
38.00,81.04,1
118.00,81.70,1
222.00,83.59,1
37.00,87.24,1
126.00,90.62,1
40.00,92.90,1
194.00,94.87,1
62.00,97.28,1
107.00,99.41,1
43.00,100.38,1
58.00,99.88,1
67.00,98.06,1
35.00,95.31,1
50.00,91.60,1
127.00,87.91,1
69.00,85.29,1
103.00,83.53,1
188.00,83.25,1
81.00,84.91,1
49.00,86.66,1
40.00,86.93,1
71.00,85.92,1
57.00,84.28,1
106.00,82.66,1
94.00,81.69,1
63.00,81.22,1
111.00,80.92,1
105.00,81.23,1
62.00,81.97,1
77.00,82.34,1
190.00,83.26,1
76.00,85.63,1
52.00,87.86,1
239.00,90.12,1
45.00,93.63,1
79.00,96.57,1
176.00,98.75,1
95.00,101.50,1
90.00,104.00,1
71.00,105.32,1
150.00,105.99,1
86.00,106.77,1
153.00,107.77,1
229.00,110.11,1
180.00,114.80,1
112.00,120.39,1
139.00,125.14,1
108.00,128.73,1
52.00,130.54,1
58.00,129.84,1
91.00,127.15,1
62.00,123.40,1
48.00,118.62,1
40.00,112.69,1
78.00,106.18,1
49.00,99.73,1
76.00,93.62,1
127.00,88.59,1
60.00,85.07,1
134.00,82.74,1
92.00,81.70,1
44.00,81.21,1
89.00,80.37,1
222.00,80.74,1
58.00,83.24,1
83.00,85.87,1
70.00,87.46,1
64.00,88.14,1
144.00,88.57,1
67.00,89.43,1
240.00,91.42,1
180.00,95.93,1
151.00,102.42,1
59.00,108.43,1
76.00,112.25,1
57.00,113.66,1
142.00,113.73,1
103.00,113.68,1
103.00,113.62,1
79.00,113.02,1
87.00,111.70,1
74.00,109.69,1
59.00,106.96,1
147.00,104.15,1
144.00,102.69,1
70.00,102.36,1
169.00,102.47,1
219.00,104.37,1
112.00,108.33,1
177.00,112.90,1
59.00,116.97,1
66.00,119.18,1
104.00,119.36,1
53.00,118.23,1
51.00,115.61,1
86.00,111.78,1
35.00,107.29,1
146.00,102.82,1
65.00,99.27,1
98.00,96.38,1
55.00,93.61,1
88.00,90.86,1
42.00,88.02,1
125.00,85.41,1
72.00,83.61,1
94.00,82.48,1
43.00,81.39,1
48.00,79.76,1
100.00,77.86,1
48.00,76.29,1
37.00,74.50,1
165.00,73.05,1
108.00,73.47,1
40.00,74.85,1
76.00,75.60,1
62.00,75.77,1
128.00,76.10,1
114.00,77.41,1
132.00,79.88,1
78.00,82.89,1
84.00,85.50,1
41.00,87.04,1
133.00,87.79,1
36.00,88.29,1
43.00,87.80,1
86.00,86.23,1
73.00,84.56,1
72.00,83.01,1
48.00,81.28,1
76.00,79.29,1
45.00,77.18,1
59.00,74.89,1
72.00,72.61,1
84.00,70.85,1
88.00,69.88,1
59.00,69.47,1
180.00,70.06,1
83.00,72.35,1
43.00,74.92,1
49.00,76.19,1
110.00,76.72,1
110.00,77.71,1
144.00,79.82,1
77.00,82.70,1
64.00,85.15,1
62.00,86.40,1
122.00,87.05,1
88.00,87.92,1
91.00,88.90,1
61.00,89.43,1
64.00,89.17,1
62.00,88.09,1
69.00,86.48,1
147.00,85.26,1
190.00,86.11,1
44.00,88.64,1
36.00,90.22,1
63.00,89.91,1
90.00,88.77,1
62.00,87.50,1
107.00,86.29,1
70.00,85.37,1
127.00,84.95,1
85.00,85.20,1
74.00,85.64,1
131.00,86.15,1
173.00,87.91,1
110.00,91.20,1
100.00,94.76,1
55.00,97.35,1
44.00,98.19,1
59.00,97.25,1
170.00,96.06,1
65.00,95.83,1
50.00,95.37,1
91.00,93.98,1
88.00,92.46,1
40.00,90.78,1
41.00,88.22,1
63.00,84.89,1
44.00,81.28,1
53.00,77.53,1
51.00,73.78,1
66.00,70.31,1
72.00,67.46,1
83.00,65.48,1
83.00,64.49,1
113.00,64.59,1
56.00,65.55,1
61.00,66.48,1
40.00,66.79,1
107.00,66.87,1
109.00,67.72,1
82.00,69.50,1
37.00,71.11,1
100.00,72.10,1
56.00,72.89,1
47.00,73.22,1
154.00,73.56,1
144.00,75.53,1
148.00,79.39,1
96.00,84.13,1
39.00,88.09,1
129.00,90.68,1
90.00,92.85,1
37.00,94.29,1
104.00,94.48,1
117.00,94.50,1
76.00,94.82,1
64.00,94.67,1
41.00,93.45,1
57.00,91.09,1
92.00,88.33,1
62.00,85.82,1
82.00,83.53,1
73.00,81.50,1
43.00,79.50,1
66.00,77.22,1
56.00,74.83,1
110.00,72.93,1
76.00,71.98,1
91.00,71.81,1
111.00,72.36,1
60.00,73.46,1
60.00,74.28,1
43.00,74.29,1
92.00,73.81,1
37.00,73.19,1
60.00,72.15,1
50.00,70.70,1
38.00,68.88,1
110.00,67.17,1
196.00,67.39,1
91.00,70.23,1
99.00,74.02,1
139.00,77.98,1
53.00,81.98,1
93.00,85.10,1
110.00,87.54,1
36.00,89.38,1
100.00,90.17,1
183.00,91.25,1
74.00,93.52,1
64.00,95.42,1
40.00,95.72,1
60.00,94.44,1
51.00,92.09,1
35.00,88.89,1
46.00,84.88,1
73.00,80.68,1
42.00,76.75,1
44.00,72.89,1
69.00,69.18,1
51.00,66.01,1
76.00,63.46,1
82.00,61.77,1
87.00,61.15,1
80.00,61.44,1
74.00,62.29,1
60.00,63.26,1
126.00,64.55,1
84.00,66.68,1
42.00,68.87,1
65.00,70.18,1
72.00,70.87,1
54.00,71.22,1
98.00,71.43,1
37.00,71.61,1
54.00,71.23,1
89.00,70.53,1
57.00,70.06,1
38.00,69.37,1
65.00,68.19,1
40.00,66.75,1
73.00,65.25,1
69.00,64.07,1
65.00,63.33,1
115.00,63.27,1
37.00,63.88,1
74.00,64.41,1
109.00,65.11,1
90.00,66.67,1
72.00,68.63,1
39.00,70.11,1
39.00,70.48,1
142.00,70.57,1
78.00,71.63,1
90.00,73.29,1
66.00,74.81,1
42.00,75.67,1
53.00,75.49,1
40.00,74.40,1
38.00,72.53,1
104.00,70.52,1
44.00,69.06,1
42.00,67.60,1
71.00,65.90,1
49.00,64.36,1
82.00,63.14,1
58.00,62.36,1
35.00,61.63,1
48.00,60.49,1
46.00,59.09,1
148.00,58.46,1
53.00,59.32,1
79.00,60.76,1
49.00,61.99,1
86.00,63.06,1
40.00,63.94,1
36.00,64.16,1
87.00,63.85,1
127.00,64.29,1
81.00,66.00,1
65.00,68.05,1
37.00,69.40,1
36.00,69.57,1
99.00,69.11,1
42.00,68.76,1
84.00,68.43,1
182.00,69.15,1
76.00,71.75,1
82.00,74.80,1
40.00,76.95,1
54.00,77.81,1
51.00,77.54,1
37.00,76.35,1
69.00,74.51,1
67.00,72.66,1
49.00,70.93,1
111.00,69.55,1
46.00,68.82,1
59.00,68.16,1
74.00,67.37,1
72.00,66.85,1
120.00,67.04,1
39.00,67.88,1
38.00,68.22,1
115.00,68.13,1
121.00,69.04,1
41.00,70.74,1
67.00,71.92,1
91.00,72.64,1
49.00,73.25,1
45.00,73.21,1
53.00,72.34,1
119.00,71.51,1
44.00,71.29,1
59.00,70.96,1
42.00,70.05,1
62.00,68.73,1
63.00,67.35,1
62.00,66.14,1
97.00,65.38,1
60.00,65.26,1
36.00,65.10,1
53.00,64.35,1
102.00,63.67,1
43.00,63.54,1
92.00,63.65,1
75.00,64.13,1
38.00,64.68,1
127.00,65.27,1
84.00,66.67,1
76.00,68.60,1
49.00,70.16,1
72.00,71.06,1
124.00,72.01,1
71.00,73.58,1
44.00,74.91,1
38.00,75.06,1
74.00,74.29,1
130.00,73.87,1
36.00,74.16,1
70.00,74.18,1
60.00,73.69,1
39.00,72.76,1
66.00,71.33,1
54.00,69.74,1
88.00,68.40,1
49.00,67.42,1
36.00,66.28,1
84.00,64.92,1
82.00,64.11,1
82.00,64.10,1
102.00,64.85,1
35.00,65.93,1
134.00,67.10,1
95.00,69.07,1
66.00,71.50,1
68.00,73.43,1
52.00,74.55,1
42.00,74.72,1
70.00,74.06,1
56.00,73.08,1
54.00,71.87,1
51.00,70.35,1
45.00,68.52,1
41.00,66.38,1
62.00,64.12,1
58.00,62.12,1
42.00,60.37,1
100.00,59.05,1
56.00,58.56,1
58.00,58.48,1
40.00,58.24,1
73.00,57.88,1
53.00,57.67,1
47.00,57.46,1
70.00,57.20,1
42.00,57.01,1
34.00,56.53,1
65.00,55.75,1
102.00,55.51,1
81.00,56.39,1
67.00,57.94,1
90.00,59.72,1
37.00,61.45,1
63.00,62.61,1
60.00,63.26,1
52.00,63.60,1
99.00,63.93,1
58.00,64.63,1
129.00,65.86,1
70.00,67.81,1
47.00,69.67,1
71.00,70.72,1
46.00,71.12,1
42.00,70.75,1
55.00,69.66,1
77.00,68.42,1
99.00,67.77,1
36.00,67.61,1
34.00,66.94,1
89.00,65.81,1
176.00,65.99,1
61.00,68.10,1
79.00,70.58,1
36.00,72.23,1
74.00,72.95,1
56.00,73.06,1
50.00,72.67,1
42.00,71.61,1
36.00,69.83,1
47.00,67.50,1
42.00,64.93,1
44.00,62.27,1
97.00,60.07,1
50.00,58.79,1
93.00,58.28,1
62.00,58.43,1
120.00,59.40,1
40.00,61.00,1
89.00,62.58,1
92.00,64.29,1
50.00,66.13,1
152.00,68.20,1
83.00,71.13,1
50.00,74.04,1
62.00,75.82,1
41.00,76.44,1
116.00,76.53,1
55.00,76.79,1
47.00,76.70,1
87.00,76.05,1
35.00,75.15,1
42.00,73.62,1
46.00,71.38,1
57.00,68.90,1
43.00,66.41,1
94.00,64.29,1
89.00,63.19,1
108.00,63.42,1
35.00,64.31,1
54.00,64.77,1
65.00,64.70,1
49.00,64.43,1
44.00,63.80,1
47.00,62.72,1
57.00,61.44,1
72.00,60.36,1
119.00,60.20,1
103.00,61.51,1
172.00,64.59,1
58.00,69.01,1
52.00,72.89,1
64.00,75.30,1
52.00,76.54,1
84.00,77.04,1
38.00,77.00,1
60.00,76.24,1
60.00,74.94,1
35.00,73.25,1
47.00,70.99,1
44.00,68.35,1
51.00,65.63,1
70.00,63.17,1
60.00,61.29,1
78.00,60.05,1
66.00,59.45,1
54.00,59.22,1
55.00,58.98,1
98.00,59.01,1
53.00,59.61,1
57.00,60.24,1
60.00,60.61,1
67.00,60.90,1
40.00,61.04,1
52.00,60.78,1
69.00,60.33,1
82.00,60.24,1
70.00,60.69,1
42.00,61.21,1
79.00,61.50,1
92.00,62.11,1
41.00,63.03,1
78.00,63.72,1
38.00,64.09,1
78.00,64.16,1
87.00,64.42,1
48.00,64.96,1
42.00,65.09,1
52.00,64.56,1
49.00,63.63,1
67.00,62.61,1
62.00,61.79,1
72.00,61.30,1
60.00,61.11,1
116.00,61.48,1
52.00,62.57,1
87.00,63.88,1
40.00,64.96,1
69.00,65.58,1
64.00,65.88,1
68.00,66.12,1
60.00,66.27,1
41.00,66.07,1
40.00,65.24,1
72.00,64.05,1
66.00,63.09,1
96.00,62.75,1
161.00,63.89,1
39.00,66.43,1
60.00,68.64,1
60.00,69.86,1
54.00,70.41,1
45.00,70.25,1
114.00,69.95,1
106.00,70.54,1
67.00,71.92,1
78.00,73.22,1
42.00,73.97,1
241.00,75.44,1
68.00,78.97,1
157.00,83.46,1
51.00,87.69,1
98.00,90.96,1
64.00,92.99,1
69.00,93.90,1
38.00,93.47,1
61.00,91.75,1
40.00,89.04,1
153.00,86.47,1
65.00,85.05,1
39.00,83.82,1
108.00,82.19,1
48.00,80.73,1
78.00,79.29,1
40.00,77.58,1
92.00,75.78,1
141.00,74.93,1
69.00,75.48,1
62.00,76.22,1
75.00,76.48,1
61.00,76.39,1
140.00,76.59,1
138.00,78.17,1
74.00,80.86,1
141.00,83.75,1
69.00,86.70,1
71.00,88.96,1
106.00,90.35,1
185.00,92.29,1
48.00,95.07,1
80.00,97.02,1
88.00,97.73,1
60.00,97.64,1
109.00,96.97,1
47.00,95.94,1
79.00,94.30,1
113.00,92.57,1
36.00,91.01,1
148.00,89.57,1
150.00,89.50,1
65.00,90.74,1
47.00,91.38,1
70.00,90.73,1
38.00,89.09,1
56.00,86.56,1
57.00,83.48,1
197.00,81.42,1
93.00,81.64,1
63.00,82.82,1
87.00,83.50,1
73.00,83.83,1
119.00,84.21,1
59.00,84.77,1
48.00,84.76,1
97.00,84.02,1
41.00,83.02,1
48.00,81.39,1
121.00,79.60,1
106.00,78.89,1
107.00,79.39,1
191.00,81.38,1
106.00,85.15,1
78.00,89.18,1
86.00,92.17,1
107.00,94.33,1
97.00,96.14,1
62.00,97.33,1
56.00,97.30,1
56.00,95.96,1
54.00,93.59,1
156.00,91.34,1
182.00,91.15,1
66.00,92.84,1
57.00,94.12,1
63.00,93.99,1
96.00,93.08,1
40.00,91.74,1
39.00,89.45,1
69.00,86.31,1
173.00,83.96,1
146.00,84.04,1
187.00,86.71,1
70.00,90.77,1
222.00,95.39,1
104.00,100.86,1
112.00,106.16,1
54.00,109.84,1
94.00,111.59,1
83.00,111.92,1
36.00,110.90,1
89.00,108.47,1
69.00,105.38,1
76.00,102.04,1
40.00,98.28,1
49.00,93.87,1
40.00,88.88,1
123.00,84.24,1
39.00,80.61,1
43.00,77.21,1
97.00,73.91,1
61.00,71.41,1
52.00,69.40,1
54.00,67.38,1
88.00,65.68,1
68.00,64.67,1
87.00,64.34,1
40.00,64.29,1
80.00,64.18,1
143.00,64.80,1
69.00,66.74,1
37.00,68.64,1
74.00,69.61,1
55.00,70.03,1
69.00,70.11,1
111.00,70.38,1
84.00,71.35,1
47.00,72.43,1
70.00,72.91,1
35.00,72.69,1
162.00,72.62,1
49.00,73.55,1
49.00,74.38,1
104.00,74.62,1
37.00,74.76,1
44.00,74.23,1
93.00,73.17,1
39.00,72.16,1
75.00,71.05,1
105.00,70.28,1
46.00,70.11,1
74.00,69.91,1
48.00,69.44,1
80.00,68.85,1
116.00,68.81,1
115.00,70.03,1
88.00,72.25,1
47.00,74.34,1
95.00,75.77,1
79.00,76.95,1
84.00,78.09,1
56.00,78.88,1
50.00,78.91,1
117.00,78.58,1
83.00,78.76,1
96.00,79.43,1
127.00,80.63,1
227.00,83.65,1
116.00,88.94,1
40.00,94.15,1
36.00,96.91,1
48.00,97.11,1
40.00,95.45,1
96.00,92.87,1
70.00,90.34,1
72.00,87.97,1
79.00,85.68,1
40.00,83.34,1
54.00,80.56,1
86.00,77.71,1
87.00,75.56,1
88.00,74.31,1
58.00,73.55,1
124.00,73.25,1
37.00,73.44,1
69.00,73.37,1
121.00,73.33,1
180.00,74.94,1
149.00,78.92,1
90.00,84.03,1
208.00,89.57,1
58.00,95.50,1
127.00,100.58,1
81.00,104.36,1
130.00,107.24,1
91.00,109.45,1
133.00,111.19,1
49.00,112.18,1
208.00,112.86,1
114.00,114.43,1
38.00,115.75,1
57.00,114.95,1
104.00,112.65,1
118.00,110.35,1
46.00,108.14,1
151.00,105.86,1
69.00,104.09,1
99.00,102.50,1
37.00,100.42,1
83.00,97.63,1
37.00,94.25,1
74.00,90.47,1
73.00,86.75,1
90.00,83.61,1
41.00,80.89,1
103.00,78.42,1
89.00,76.73,1
251.00,77.34,1
161.00,81.48,1
36.00,86.98,1
74.00,90.81,1
42.00,92.58,1
64.00,92.70,1
62.00,91.62,1
47.00,89.72,1
35.00,86.88,1
86.00,83.52,1
54.00,80.37,1
83.00,77.60,1
70.00,75.34,1
90.00,73.71,1
135.00,73.23,1
118.00,74.41,1
126.00,76.98,1
133.00,80.56,1
150.00,85.09,1
62.00,89.83,1
74.00,93.34,1
80.00,95.31,1
41.00,95.91,1
85.00,95.23,1
46.00,93.69,1
76.00,91.49,1
162.00,89.78,1
45.00,89.19,1
106.00,88.75,1
34.00,87.89,1
46.00,86.14,1
40.00,83.32,1
100.00,80.29,1
48.00,77.72,1
79.00,75.46,1
64.00,73.48,1
86.00,71.97,1
121.00,71.40,1
39.00,71.64,1
69.00,71.67,1
62.00,71.30,1
102.00,71.10,1
48.00,71.19,1
48.00,70.94,1
45.00,69.96,1
167.00,69.42,1
101.00,70.68,1
114.00,73.32,1
40.00,75.94,1
41.00,77.37,1
58.00,77.38,1
94.00,76.90,1
58.00,76.50,1
128.00,76.46,1
42.00,76.86,1
76.00,76.99,1
58.00,76.64,1
35.00,75.69,1
64.00,74.06,1
70.00,72.30,1
40.00,70.58,1
50.00,68.60,1
39.00,66.30,1
141.00,64.59,1
114.00,64.75,1
44.00,66.15,1
54.00,67.14,1
59.00,67.41,1
37.00,67.11,1
93.00,66.54,1
59.00,66.23,1
114.00,66.50,1
43.00,67.24,1
67.00,67.78,1
122.00,68.42,1
75.00,69.84,1
39.00,71.19,1
36.00,71.41,1
43.00,70.49,1
86.00,69.18,1
70.00,68.25,1
76.00,67.78,1
37.00,67.33,1
93.00,66.76,1
37.00,66.28,1
67.00,65.65,1
77.00,65.05,1
35.00,64.56,1
35.00,63.57,1
37.00,61.87,1
38.00,59.75,1
69.00,57.66,1
68.00,56.19,1
56.00,55.38,1
80.00,55.09,1
34.00,55.11,1
60.00,55.02,1
43.00,54.76,1
42.00,54.31,1
75.00,53.83,1
87.00,54.00,1
115.00,55.35,1
71.00,57.75,1
60.00,60.29,1
83.00,62.50,1
59.00,64.46,1
134.00,66.59,1
109.00,69.60,1
115.00,73.48,1
178.00,78.29,1
72.00,83.86,1
43.00,88.32,1
35.00,90.36,1
58.00,90.33,1
103.00,89.41,1
76.00,88.56,1
43.00,87.45,1
98.00,85.85,1
50.00,84.19,1
69.00,82.35,1
46.00,80.15,1
63.00,77.67,1
39.00,74.97,1
70.00,72.18,1
80.00,69.82,1
53.00,68.05,1
156.00,67.29,1
160.00,68.84,1
45.00,72.04,1
80.00,74.82,1
38.00,76.46,1
88.00,77.20,1
150.00,78.22,1
46.00,80.00,1
68.00,81.27,1
68.00,81.61,1
42.00,81.19,1
69.00,80.01,1
89.00,78.70,1
67.00,77.69,1
78.00,76.85,1
377.00,78.64,1
109.00,85.18,1
70.00,92.82,1
190.00,99.18,1
229.00,106.35,1
64.00,114.17,1
53.00,119.72,1
103.00,122.22,1
46.00,122.58,1
44.00,120.77,1
132.00,117.58,1
46.00,114.20,1
45.00,110.08,1
173.00,105.86,1
103.00,103.25,1
54.00,101.43,1
115.00,99.39,1
119.00,97.89,1
36.00,96.72,1
90.00,94.97,1
170.00,93.68,1
55.00,93.64,1
77.00,93.46,1
35.00,92.25,1
95.00,90.27,1
84.00,88.34,1
172.00,87.54,1
108.00,88.46,1
286.00,91.85,1
290.00,99.43,1
165.00,110.39,1
54.00,120.65,1
73.00,127.31,1
77.00,130.48,1
65.00,130.95,1
183.00,130.20,1
90.00,129.63,1
146.00,129.12,1
97.00,128.42,1
53.00,126.89,1
41.00,123.56,1
51.00,118.46,1
87.00,112.59,1
37.00,106.56,1
59.00,100.27,1
46.00,93.82,1
118.00,88.05,1
65.00,83.62,1
209.00,81.27,1
77.00,81.44,1
66.00,82.44,1
84.00,82.89,1
287.00,84.80,1
94.00,89.67,1
36.00,94.63,1
47.00,97.02,1
38.00,97.01,1
151.00,96.05,1
266.00,97.15,1
114.00,101.39,1
160.00,106.68,1
224.00,112.61,1
167.00,119.81,1
35.00,126.23,1
49.00,129.30,1
86.00,129.16,1
110.00,127.51,1
86.00,125.27,1
71.00,122.34,1
201.00,119.61,1
45.00,117.87,1
139.00,116.21,1
70.00,114.35,1
89.00,112.19,1
99.00,109.70,1
78.00,107.20,1
60.00,104.36,1
44.00,100.74,1
64.00,96.42,1
40.00,91.68,1
99.00,87.07,1
45.00,83.02,1
37.00,79.06,1
165.00,75.79,1
51.00,74.26,1
197.00,74.50,1
55.00,76.36,1
107.00,78.67,1
79.00,80.71,1
199.00,83.43,1
97.00,87.50,1
79.00,91.60,1
280.00,96.13,1
165.00,103.04,1
109.00,110.82,1
40.00,116.55,1
232.00,120.53,1
66.00,124.29,1
44.00,126.38,1
138.00,126.20,1
63.00,125.04,1
44.00,122.55,1
46.00,118.22,1
84.00,112.83,1
67.00,107.32,1
171.00,102.79,1
33.00,99.62,1
39.00,96.18,1
53.00,91.73,1
101.00,87.34,1
202.00,84.92,1
71.00,85.06,1
96.00,85.98,1
49.00,86.42,1
83.00,86.17,1
128.00,85.97,1
56.00,86.25,1
52.00,86.02,1
56.00,84.76,1
118.00,83.33,1
203.00,83.60,1
76.00,86.05,1
90.00,88.74,1
253.00,92.07,1
86.00,97.23,1
110.00,102.36,1
56.00,105.86,1
186.00,108.40,1
38.00,110.59,1
55.00,111.21,1
92.00,109.98,1
77.00,108.02,1
68.00,105.55,1
59.00,102.43,1
96.00,98.98,1
213.00,96.94,1
53.00,96.93,1
40.00,96.69,1
128.00,95.47,1
59.00,94.31,1
61.00,92.85,1
89.00,90.90,1
40.00,88.72,1
91.00,86.28,1
206.00,85.10,1
80.00,86.23,1
37.00,87.57,1
99.00,87.78,1
115.00,87.92,1
188.00,89.41,1
150.00,92.91,1
67.00,97.09,1
177.00,100.87,1
76.00,104.51,1
123.00,107.57,1
57.00,109.46,1
84.00,109.91,1
99.00,109.30,1
216.00,109.34,1
38.00,110.47,1
138.00,111.23,1
47.00,111.11,1
113.00,110.18,1
88.00,108.81,1
35.00,106.85,1
236.00,105.08,1
82.00,105.13,1
74.00,105.62,1
51.00,104.82,1
67.00,102.75,1
51.00,99.72,1
105.00,96.38,1
87.00,93.54,1
177.00,92.07,1
94.00,92.32,1
171.00,93.90,1
79.00,96.26,1
135.00,98.70,1
39.00,100.50,1
85.00,101.00,1
53.00,100.22,1
223.00,99.74,1
107.00,101.09,1
64.00,102.92,1
77.00,103.47,1
164.00,103.63,1
42.00,104.01,1
60.00,103.41,1
138.00,102.00,1
36.00,100.64,1
79.00,98.66,1
328.00,98.21,1
34.00,101.00,1
51.00,103.47,1
47.00,103.45,1
40.00,101.53,1
77.00,98.40,1
67.00,94.92,1
122.00,91.89,1
131.00,90.20,1
198.00,90.74,1
120.00,93.52,1
76.00,96.79,1
72.00,98.91,1
57.00,99.54,1
70.00,98.84,1
70.00,97.24,1
164.00,95.90,1
55.00,95.47,1
57.00,94.72,1
95.00,93.19,1
132.00,92.08,1
45.00,91.54,1
49.00,90.34,1
37.00,87.90,1
46.00,84.53,1
140.00,81.39,1
34.00,79.30,1
43.00,77.17,1
132.00,75.08,1
47.00,73.94,1
38.00,72.81,1
52.00,71.00,1
54.00,68.89,1
104.00,67.20,1
133.00,66.96,1
37.00,67.94,1
61.00,68.65,1
46.00,68.61,1
89.00,68.32,1
49.00,68.09,1
47.00,67.60,1
41.00,66.51,1
46.00,64.93,1
48.00,63.07,1
101.00,61.58,1
123.00,61.50,1
59.00,62.79,1
99.00,64.50,1
83.00,66.48,1
40.00,68.31,1
57.00,69.26,1
83.00,69.65,1
90.00,70.23,1
51.00,70.95,1
68.00,71.30,1
48.00,71.14,1
41.00,70.35,1
60.00,69.00,1
81.00,67.69,1
71.00,66.88,1
72.00,66.49,1
138.00,66.91,1
59.00,68.39,1
71.00,69.95,1
66.00,71.04,1
95.00,71.98,1
141.00,73.58,1
74.00,76.10,1
45.00,78.26,1
79.00,79.32,1
104.00,80.03,1
55.00,80.76,1
103.00,81.26,1
67.00,81.67,1
40.00,81.56,1
72.00,80.60,1
107.00,79.61,1
69.00,79.16,1
149.00,79.45,1
58.00,80.57,1
63.00,81.46,1
84.00,81.66,1
43.00,81.37,1
127.00,80.92,1
81.00,81.03,1
39.00,81.15,1
78.00,80.52,1
45.00,79.36,1
95.00,78.02,1
78.00,77.01,1
118.00,76.75,1
44.00,76.98,1
86.00,77.02,1
75.00,76.91,1
65.00,76.77,1
49.00,76.22,1
71.00,75.22,1
74.00,74.17,1
39.00,73.04,1
95.00,71.81,1
84.00,71.10,1
54.00,70.82,1
144.00,71.05,1
130.00,72.78,1
63.00,75.56,1
37.00,77.59,1
66.00,78.25,1
53.00,77.99,1
35.00,76.92,1
74.00,75.19,1
50.00,73.32,1
172.00,72.33,1
88.00,73.17,1
61.00,74.78,1
219.00,77.09,1
56.00,80.88,1
103.00,84.68,1
69.00,87.49,1
50.00,89.14,1
43.00,89.20,1
123.00,88.44,1
39.00,87.64,1
73.00,86.40,1
62.00,84.65,1
61.00,82.65,1
54.00,80.36,1
50.00,77.77,1
281.00,76.85,1
99.00,79.51,1
51.00,83.29,1
55.00,85.52,1
72.00,86.31,1
32.00,85.95,1
87.00,84.68,1
60.00,83.11,1
59.00,81.36,1
35.00,79.11,1
43.00,76.19,1
50.00,72.86,1
38.00,69.42,1
45.00,65.92,1
40.00,62.47,1
136.00,59.94,1
39.00,58.95,1
127.00,59.08,1
61.00,60.15,1
37.00,61.33,1
35.00,61.61,1
70.00,61.26,1
46.00,60.79,1
44.00,60.12,1
87.00,59.45,1
45.00,59.15,1
60.00,58.92,1
58.00,58.65,1
41.00,58.29,1
69.00,57.82,1
75.00,57.65,1
42.00,57.78,1
39.00,57.60,1
45.00,56.92,1
64.00,56.12,1
74.00,55.70,1
63.00,55.81,1
49.00,56.12,1
88.00,56.55,1
89.00,57.61,1
34.00,58.99,1
79.00,60.05,1
37.00,60.75,1
45.00,60.91,1
41.00,60.41,1
41.00,59.40,1
77.00,58.33,1
100.00,58.03,1
35.00,58.47,1
41.00,58.61,1
63.00,58.27,1
64.00,57.99,1
51.00,57.86,1
179.00,58.71,1
61.00,61.31,1
104.00,64.61,1
53.00,67.64,1
71.00,70.03,1
49.00,71.55,1
97.00,72.53,1
38.00,73.19,1
174.00,74.15,1
80.00,76.27,1
40.00,78.45,1
37.00,79.13,1
58.00,78.45,1
81.00,77.27,1
84.00,76.33,1
101.00,75.99,1
88.00,76.31,1
78.00,76.97,1
62.00,77.46,1
38.00,77.25,1
67.00,76.23,1
37.00,74.66,1
84.00,72.85,1
127.00,71.82,1
149.00,72.70,1
41.00,74.82,1
72.00,76.47,1
55.00,77.16,1
83.00,77.32,1
100.00,77.55,1
44.00,77.86,1
38.00,77.38,1
39.00,75.77,1
83.00,73.67,1
71.00,71.92,1
36.00,70.37,1
127.00,69.10,1
65.00,68.78,1
52.00,68.82,1
126.00,69.01,1
82.00,70.07,1
83.00,71.64,1
61.00,73.02,1
42.00,73.69,1
39.00,73.28,1
70.00,72.11,1
46.00,70.70,1
70.00,69.20,1
64.00,67.85,1
50.00,66.62,1
35.00,65.13,1
60.00,63.34,1
96.00,61.96,1
157.00,62.26,1
47.00,64.22,1
36.00,65.95,1
92.00,66.83,1
37.00,67.41,1
88.00,67.72,1
67.00,68.03,1
72.00,68.45,1
61.00,68.75,1
114.00,69.26,1
46.00,70.12,1
78.00,70.81,1
73.00,71.26,1
53.00,71.54,1
80.00,71.52,1
67.00,71.46,1
98.00,71.63,1
78.00,72.21,1
138.00,73.50,1
127.00,76.03,1
56.00,79.13,1
73.00,81.45,1
41.00,82.52,1
80.00,82.55,1
40.00,81.84,1
57.00,80.39,1
79.00,78.55,1
149.00,77.57,1
37.00,77.67,1
67.00,77.57,1
43.00,76.70,1
97.00,75.57,1
217.00,75.96,1
55.00,78.61,1
35.00,81.01,1
72.00,81.79,1
88.00,81.87,1
114.00,82.22,1
127.00,83.43,1
92.00,85.41,1
50.00,87.07,1
84.00,87.74,1
83.00,87.82,1
94.00,87.83,1
52.00,87.59,1
78.00,86.80,1
41.00,85.38,1
64.00,83.33,1
52.00,80.84,1
70.00,78.24,1
101.00,76.10,1
66.00,74.75,1
54.00,73.63,1
137.00,72.91,1
75.00,73.29,1
56.00,73.99,1
39.00,73.94,1
64.00,73.09,1
59.00,71.91,1
73.00,70.73,1
78.00,69.84,1
80.00,69.41,1
76.00,69.38,1
135.00,70.10,1
65.00,71.73,1
134.00,73.90,1
87.00,76.59,1
93.00,79.41,1
120.00,82.18,1
43.00,84.68,1
78.00,86.13,1
108.00,86.92,1
60.00,87.57,1
84.00,87.74,1
83.00,87.55,1
96.00,87.36,1
55.00,87.06,1
71.00,86.25,1
50.00,84.81,1
38.00,82.63,1
50.00,79.69,1
84.00,76.65,1
123.00,74.63,1
107.00,74.24,1
85.00,74.98,1
56.00,75.82,1
74.00,76.19,1
52.00,76.07,1
93.00,75.70,1
41.00,75.22,1
44.00,74.18,1
107.00,72.88,1
56.00,72.08,1
61.00,71.41,1
57.00,70.47,1
36.00,69.17,1
70.00,67.54,1
59.00,66.01,1
101.00,65.06,1
76.00,64.97,1
37.00,65.15,1
104.00,65.23,1
127.00,66.21,1
93.00,68.51,1
86.00,71.30,1
73.00,73.86,1
40.00,75.61,1
184.00,77.23,1
120.00,80.27,1
59.00,83.93,1
82.00,86.59,1
41.00,87.91,1
111.00,88.28,1
119.00,88.80,1
52.00,89.57,1
143.00,90.22,1
89.00,91.27,1
77.00,92.33,1
93.00,92.87,1
43.00,92.73,1
85.00,91.73,1
74.00,90.31,1
50.00,88.58,1
81.00,86.44,1
85.00,84.40,1
36.00,82.44,1
37.00,79.83,1
43.00,76.46,1
105.00,73.25,1
95.00,71.27,1
47.00,70.25,1
54.00,69.16,1
150.00,68.56,1
48.00,69.19,1
68.00,69.97,1
69.00,70.35,1
37.00,70.31,1
107.00,70.02,1
40.00,69.89,1
46.00,69.40,1
91.00,68.58,1
37.00,67.88,1
130.00,67.55,1
68.00,68.08,1
46.00,68.80,1
38.00,68.70,1
62.00,67.87,1
53.00,66.78,1
105.00,65.99,1
41.00,65.73,1
35.00,65.19,1
41.00,63.89,1
158.00,63.06,1
37.00,63.61,1
36.00,64.13,1
65.00,63.84,1
81.00,63.54,1
76.00,63.72,1
123.00,64.70,1
80.00,66.64,1
58.00,68.74,1
106.00,70.56,1
54.00,72.28,1
37.00,73.28,1
47.00,73.05,1
132.00,72.64,1
80.00,73.16,1
67.00,74.11,1
66.00,74.69,1
35.00,74.59,1
55.00,73.63,1
92.00,72.42,1
75.00,71.70,1
42.00,71.13,1
40.00,69.98,1
33.00,68.07,1
71.00,65.83,1
96.00,64.19,1
42.00,63.35,1
44.00,62.47,1
99.00,61.62,1
69.00,61.52,1
40.00,61.70,1
108.00,61.92,1
54.00,62.60,1
55.00,63.29,1
55.00,63.53,1
52.00,63.40,1
36.00,62.82,1
127.00,62.38,1
87.00,63.11,1
47.00,64.45,1
69.00,65.41,1
103.00,66.35,1
36.00,67.45,1
72.00,68.09,1
38.00,68.12,1
57.00,67.59,1
52.00,66.63,1
76.00,65.66,1
67.00,64.99,1
86.00,64.78,1
72.00,65.05,1
116.00,65.97,1
48.00,67.39,1
39.00,68.32,1
116.00,68.76,1
63.00,69.59,1
77.00,70.55,1
40.00,71.07,1
80.00,71.08,1
86.00,71.09,1
97.00,71.64,1
76.00,72.63,1
87.00,73.76,1
56.00,74.71,1
66.00,75.15,1
76.00,75.18,1
56.00,74.99,1
130.00,74.99,1
87.00,75.84,1
86.00,77.21,1
81.00,78.51,1
51.00,79.37,1
44.00,79.28,1
37.00,78.03,1
75.00,76.08,1
110.00,74.55,1
97.00,74.17,1
38.00,74.26,1
65.00,73.83,1
70.00,73.03,1
35.00,71.99,1
78.00,70.62,1
65.00,69.36,1
97.00,68.63,1
35.00,68.24,1
44.00,67.43,1
54.00,66.05,1
82.00,64.74,1
73.00,64.02,1
124.00,64.27,1
65.00,65.52,1
73.00,67.02,1
58.00,68.15,1
44.00,68.69,1
56.00,68.50,1
75.00,67.99,1
153.00,68.32,1
100.00,70.31,1
80.00,73.08,1
52.00,75.35,1
87.00,76.82,1
52.00,77.69,1
38.00,77.68,1
52.00,76.59,1
42.00,74.75,1
73.00,72.59,1
129.00,71.18,1
55.00,70.95,1
39.00,70.73,1
208.00,71.04,1
102.00,73.53,1
38.00,76.73,1
102.00,78.94,1
92.00,80.77,1
67.00,82.40,1
60.00,83.28,1
55.00,83.20,1
75.00,82.41,1
42.00,81.12,1
71.00,79.36,1
80.00,77.58,1
108.00,76.47,1
79.00,76.20,1
127.00,76.72,1
49.00,77.74,1
105.00,78.68,1
82.00,79.60,1
42.00,80.24,1
71.00,80.03,1
77.00,79.37,1
74.00,78.72,1
59.00,77.97,1
55.00,76.86,1
77.00,75.52,1
55.00,74.18,1
50.00,72.66,1
39.00,70.72,1
128.00,69.02,1
127.00,68.94,1
48.00,70.17,1
110.00,71.53,1
71.00,73.01,1
98.00,74.61,1
99.00,76.38,1
61.00,78.16,1
38.00,79.07,1
68.00,78.84,1
39.00,77.82,1
65.00,76.20,1
58.00,74.34,1
37.00,72.26,1
70.00,69.96,1
164.00,68.72,1
38.00,69.11,1
37.00,69.42,1
51.00,68.70,1
60.00,67.52,1
75.00,66.43,1
38.00,65.45,1
49.00,64.19,1
57.00,62.71,1
106.00,61.73,1
51.00,61.60,1
91.00,61.93,1
83.00,62.76,1
87.00,64.15,1
102.00,66.06,1
43.00,68.09,1
72.00,69.53,1
64.00,70.40,1
47.00,70.77,1
77.00,70.65,1
103.00,70.74,1
61.00,71.33,1
56.00,71.73,1
44.00,71.46,1
151.00,71.33,1
80.00,72.40,1
83.00,74.09,1
71.00,75.54,1
46.00,76.39,1
61.00,76.35,1
143.00,76.37,1
47.00,77.13,1
36.00,77.41,1
56.00,76.51,1
41.00,74.86,1
38.00,72.58,1
87.00,70.13,1
44.00,68.07,1
65.00,66.23,1
153.00,65.36,1
112.00,66.56,1
113.00,69.30,1
48.00,72.29,1
75.00,74.52,1
38.00,75.69,1
67.00,75.88,1
196.00,76.55,1
146.00,79.55,1
72.00,83.84,1
75.00,87.34,1
85.00,89.64,1
54.00,90.89,1
135.00,91.55,1
70.00,92.28,1
113.00,92.99,1
60.00,93.39,1
77.00,93.17,1
47.00,92.08,1
61.00,90.12,1
57.00,87.52,1
63.00,84.61,1
47.00,81.50,1
60.00,78.24,1
50.00,74.95,1
59.00,71.79,1
106.00,69.27,1
84.00,68.02,1
102.00,67.93,1
51.00,68.42,1
89.00,68.95,1
118.00,69.95,1
80.00,71.74,1
44.00,73.39,1
49.00,74.01,1
69.00,73.77,1
98.00,73.51,1
47.00,73.46,1
49.00,72.98,1
100.00,72.22,1
227.00,73.20,1
92.00,76.87,1
71.00,81.13,1
170.00,85.01,1
36.00,88.85,1
53.00,91.25,1
64.00,91.76,1
79.00,91.26,1
84.00,90.38,1
223.00,90.62,1
44.00,92.56,1
146.00,94.76,1
99.00,96.89,1
52.00,98.59,1
145.00,99.49,1
44.00,100.08,1
106.00,100.02,1
144.00,99.97,1
60.00,100.39,1
64.00,100.10,1
61.00,98.62,1
37.00,96.06,1
55.00,92.51,1
38.00,88.28,1
66.00,83.76,1
85.00,79.67,1
92.00,76.63,1
80.00,74.68,1
85.00,73.51,1
81.00,72.93,1
106.00,73.00,1
37.00,73.37,1
35.00,73.00,1
65.00,71.72,1
36.00,70.04,1
58.00,68.05,1
105.00,66.41,1
65.00,65.73,1
108.00,65.89,1
88.00,66.88,1
88.00,68.50,1
290.00,72.04,1
46.00,78.28,1
87.00,84.32,1
86.00,88.65,1
51.00,91.56,1
42.00,92.63,1
123.00,92.51,1
128.00,92.80,1
80.00,93.75,1
70.00,94.33,1
125.00,94.50,1
231.00,96.06,1
124.00,99.98,1
132.00,104.71,1
65.00,108.58,1
37.00,110.40,1
44.00,109.63,1
95.00,107.23,1
65.00,104.33,1
142.00,101.71,1
46.00,99.62,1
52.00,97.10,1
84.00,93.90,1
84.00,90.87,1
120.00,88.65,1
72.00,87.31,1
86.00,86.30,1
44.00,85.05,1
56.00,83.18,1
131.00,81.38,1
48.00,80.35,1
111.00,79.71,1
51.00,79.24,1
74.00,78.64,1
40.00,77.55,1
119.00,76.42,1
116.00,76.28,1
84.00,77.26,1
80.00,78.45,1
114.00,79.72,1
97.00,81.41,1
48.00,82.94,1
78.00,83.60,1
110.00,83.93,1
114.00,84.82,1
91.00,86.24,1
40.00,87.25,1
37.00,86.86,1
110.00,85.53,1
36.00,84.12,1
39.00,82.09,1
64.00,79.31,1
150.00,77.19,1
47.00,76.44,1
55.00,75.80,1
98.00,74.92,1
77.00,74.48,1
47.00,74.16,1
44.00,73.22,1
58.00,71.69,1
42.00,69.83,1
44.00,67.63,1
53.00,65.23,1
71.00,63.09,1
41.00,61.32,1
108.00,60.10,1
48.00,59.71,1
125.00,60.16,1
79.00,61.65,1
56.00,63.55,1
80.00,65.13,1
41.00,66.30,1
88.00,67.06,1
140.00,68.37,1
91.00,70.92,1
125.00,74.21,1
83.00,77.76,1
39.00,80.61,1
73.00,82.04,1
71.00,82.52,1
57.00,82.41,1
37.00,81.43,1
46.00,79.47,1
39.00,76.74,1
74.00,73.76,1
61.00,71.10,1
76.00,68.98,1
126.00,67.90,1
43.00,67.91,1
126.00,68.46,1
160.00,70.38,1
108.00,74.12,1
88.00,78.36,1
65.00,81.87,1
46.00,83.99,1
46.00,84.50,1
62.00,83.75,1
44.00,82.15,1
87.00,80.19,1
159.00,79.16,1
41.00,79.46,1
62.00,79.57,1
35.00,78.66,1
85.00,77.16,1
175.00,76.61,1
37.00,77.57,1
53.00,78.23,1
48.00,77.73,1
82.00,76.68,1
74.00,75.72,1
109.00,75.29,1
51.00,75.31,1
62.00,75.09,1
40.00,74.20,1
119.00,73.23,1
43.00,72.73,1
38.00,71.95,1
36.00,70.24,1
46.00,67.91,1
201.00,66.62,1
64.00,67.67,1
60.00,69.46,1
85.00,70.74,1
140.00,72.44,1
92.00,75.12,1
39.00,77.66,1
67.00,78.98,1
37.00,79.10,1
165.00,79.10,1
40.00,79.87,1
45.00,80.20,1
44.00,79.25,1
100.00,77.83,1
36.00,76.49,1
61.00,74.86,1
72.00,73.05,1
50.00,71.37,1
59.00,69.63,1
87.00,68.12,1
37.00,66.96,1
87.00,65.91,1
79.00,65.33,1
54.00,65.21,1
37.00,64.81,1
74.00,64.04,1
83.00,63.55,1
40.00,63.40,1
47.00,62.92,1
59.00,62.06,1
37.00,61.03,1
127.00,60.38,1
155.00,61.56,1
79.00,64.71,1
37.00,67.85,1
65.00,69.79,1
58.00,70.81,1
133.00,71.84,1
53.00,73.36,1
48.00,74.47,1
68.00,74.64,1
224.00,75.68,1
66.00,78.83,1
50.00,81.98,1
36.00,83.32,1
106.00,83.47,1
48.00,83.26,1
50.00,82.43,1
58.00,80.76,1
55.00,78.64,1
63.00,76.34,1
47.00,73.94,1
126.00,72.02,1
82.00,71.32,1
97.00,71.64,1
60.00,72.29,1
57.00,72.66,1
78.00,72.62,1
45.00,72.32,1
61.00,71.59,1
39.00,70.36,1
79.00,68.91,1
40.00,67.48,1
35.00,65.76,1
106.00,64.07,1
62.00,63.22,1
41.00,62.73,1
70.00,62.05,1
178.00,62.45,1
35.00,64.51,1
35.00,66.29,1
45.00,66.68,1
75.00,66.42,1
37.00,65.95,1
45.00,65.01,1
75.00,63.82,1
46.00,62.79,1
105.00,62.18,1
51.00,62.20,1
67.00,62.43,1
49.00,62.47,1
74.00,62.42,1
43.00,62.29,1
89.00,62.19,1
39.00,62.21,1
52.00,61.98,1
74.00,61.54,1
32.00,61.09,1
38.00,60.19,1
49.00,58.80,1
122.00,57.93,1
72.00,58.38,1
84.00,59.70,1
56.00,61.17,1
152.00,63.14,1
162.00,66.91,1
65.00,72.04,1
103.00,76.82,1
40.00,80.48,1
292.00,84.52,1
55.00,90.42,1
39.00,95.56,1
64.00,97.92,1
142.00,99.02,1
85.00,100.17,1
36.00,100.60,1
69.00,99.45,1
65.00,97.25,1
42.00,94.36,1
99.00,91.08,1
79.00,88.21,1
89.00,85.98,1
102.00,84.41,1
115.00,83.81,1
131.00,84.42,1
37.00,85.53,1
39.00,85.55,1
108.00,84.58,1
86.00,83.87,1
85.00,83.57,1
38.00,83.01,1
70.00,81.73,1
62.00,80.04,1
36.00,78.01,1
140.00,76.15,1
154.00,76.11,1
90.00,78.02,1
78.00,80.29,1
197.00,83.03,1
60.00,86.77,1
167.00,90.74,1
97.00,94.82,1
89.00,98.51,1
223.00,102.17,1
120.00,107.02,1
98.00,111.81,1
141.00,115.53,1
44.00,118.03,1
96.00,118.71,1
48.00,117.64,1
78.00,115.14,1
72.00,111.72,1
44.00,107.62,1
47.00,102.63,1
50.00,97.00,1
186.00,92.26,1
235.00,91.10,1
50.00,93.05,1
39.00,94.55,1
85.00,94.33,1
119.00,93.75,1
62.00,93.40,1
131.00,93.13,1
216.00,94.33,1
91.00,97.52,1
86.00,100.73,1
53.00,102.43,1
37.00,102.22,1
47.00,100.12,1
43.00,96.67,1
32.00,92.18,1
52.00,87.04,1
247.00,83.42,1
84.00,83.14,1
37.00,83.92,1
308.00,85.59,1
110.00,90.37,1
303.00,97.91,1
74.00,106.95,1
65.00,114.54,1
192.00,119.80,1
42.00,123.88,1
58.00,125.64,1
52.00,124.54,1
102.00,121.76,1
62.00,118.24,1
132.00,114.61,1
60.00,111.26,1
138.00,108.25,1
42.00,105.51,1
49.00,102.17,1
95.00,98.20,1
55.00,94.36,1
61.00,90.52,1
67.00,86.62,1
69.00,82.97,1
64.00,79.68,1
50.00,76.58,1
152.00,74.31,1
106.00,73.94,1
115.00,75.18,1
122.00,77.43,1
39.00,79.87,1
194.00,82.35,1
115.00,85.97,1
130.00,90.49,1
123.00,95.04,1
78.00,99.12,1
66.00,101.78,1
105.00,103.04,1
38.00,103.19,1
59.00,101.85,1
54.00,99.21,1
55.00,95.75,1
106.00,92.18,1
147.00,89.83,1
36.00,88.69,1
127.00,87.76,1
41.00,86.88,1
54.00,85.51,1
79.00,83.54,1
44.00,81.39,1
134.00,79.55,1
243.00,80.11,1
73.00,83.64,1
71.00,87.36,1
258.00,91.20,1
68.00,96.52,1
74.00,101.24,1
151.00,104.51,1
187.00,108.19,1
42.00,112.11,1
45.00,113.99,1
375.00,115.83,1
198.00,121.68,1
190.00,130.05,1
178.00,138.37,1
206.00,146.34,1
97.00,153.24,1
86.00,157.44,1
110.00,158.56,1
36.00,156.99,1
142.00,153.27,1
113.00,148.96,1
146.00,145.00,1
55.00,141.00,1
158.00,136.72,1
38.00,132.32,1
183.00,128.04,1
86.00,124.61,1
92.00,121.58,1
85.00,118.19,1
48.00,114.27,1
54.00,109.43,1
62.00,103.94,1
45.00,98.17,1
129.00,92.86,1
149.00,89.49,1
192.00,89.07,1
80.00,90.88,1
69.00,92.73,1
207.00,94.59,1
59.00,97.36,1
63.00,99.44,1
292.00,101.69,1
175.00,106.82,1
112.00,113.46,1
51.00,118.48,1
112.00,121.06,1
116.00,122.23,1
66.00,122.47,1
122.00,121.65,1
218.00,121.39,1
114.00,122.72,1
52.00,123.79,1
216.00,124.09,1
41.00,124.56,1
125.00,124.28,1
121.00,123.36,1
132.00,122.71,1
61.00,121.85,1
158.00,120.55,1
51.00,119.13,1
124.00,117.27,1
250.00,116.53,1
49.00,117.69,1
74.00,118.17,1
142.00,117.42,1
34.00,116.19,1
61.00,113.67,1
90.00,109.99,1
65.00,106.09,1
102.00,102.27,1
115.00,99.17,1
80.00,96.94,1
54.00,94.77,1
54.00,91.98,1
92.00,88.91,1
39.00,85.93,1
53.00,82.67,1
82.00,79.34,1
40.00,76.31,1
58.00,73.30,1
84.00,70.57,1
40.00,68.36,1
71.00,66.37,1
42.00,64.51,1
39.00,62.56,1
74.00,60.61,1
60.00,59.17,1
61.00,58.23,1
75.00,57.71,1
54.00,57.60,1
67.00,57.67,1
66.00,57.93,1
35.00,58.14,1
50.00,57.91,1
106.00,57.81,1
39.00,58.32,1
71.00,58.89,1
59.00,59.36,1
37.00,59.62,1
103.00,59.79,1
134.00,61.07,1
125.00,64.13,1
76.00,68.13,1
39.00,71.53,1
132.00,74.11,1
92.00,76.88,1
76.00,79.70,1
97.00,82.02,1
51.00,83.73,1
71.00,84.49,1
77.00,84.49,1
52.00,83.98,1
78.00,82.96,1
102.00,82.01,1
110.00,81.81,1
36.00,81.92,1
75.00,81.41,1
92.00,80.63,1
70.00,80.09,1
187.00,80.50,1
95.00,82.61,1
118.00,85.56,1
40.00,88.05,1
50.00,89.06,1
91.00,88.79,1
92.00,88.33,1
41.00,87.67,1
63.00,86.22,1
36.00,83.94,1
35.00,80.83,1
92.00,77.42,1
76.00,74.72,1
41.00,72.55,1
50.00,70.22,1
55.00,67.75,1
168.00,66.35,1
42.00,66.67,1
47.00,67.19,1
67.00,67.03,1
173.00,67.64,1
290.00,71.69,1
103.00,79.45,1
36.00,87.13,1
131.00,92.60,1
62.00,96.69,1
64.00,99.23,1
88.00,100.16,1
87.00,100.25,1
62.00,99.67,1
542.00,102.19,1
43.00,110.63,1
70.00,119.17,1
346.00,126.10,1
103.00,134.37,1
235.00,142.74,1
78.00,149.76,1
119.00,154.33,1
156.00,156.57,1
123.00,157.68,1
88.00,157.34,1
67.00,154.90,1
72.00,150.34,1
127.00,144.70,1
210.00,140.06,1
42.00,136.78,1
115.00,133.13,1
189.00,129.77,1
54.00,127.44,1
43.00,124.27,1
150.00,120.13,1
117.00,116.82,1
95.00,114.40,1
166.00,112.68,1
60.00,111.68,1
67.00,110.13,1
52.00,107.34,1
64.00,103.60,1
50.00,99.22,1
68.00,94.53,1
105.00,90.24,1
62.00,86.82,1
74.00,83.84,1
74.00,81.16,1
66.00,78.82,1
216.00,77.93,1
38.00,79.10,1
38.00,80.10,1
291.00,81.57,1
100.00,85.96,1
520.00,94.83,1
95.00,108.68,1
78.00,122.11,1
73.00,130.93,1
90.00,135.89,1
107.00,138.13,1
182.00,139.27,1
168.00,140.82,1
204.00,143.32,1
197.00,146.86,1
84.00,150.33,1
62.00,151.52,1
252.00,151.20,1
42.00,150.99,1
338.00,151.41,1
213.00,154.40,1
54.00,158.37,1
64.00,159.32,1
103.00,157.12,1
63.00,152.98,1
67.00,147.23,1
163.00,140.98,1
203.00,136.50,1
67.00,133.84,1
85.00,130.88,1
447.00,129.96,1
52.00,133.52,1
84.00,137.05,1
37.00,137.33,1
106.00,135.15,1
127.00,132.13,1
230.00,130.35,1
124.00,130.58,1
82.00,131.07,1
88.00,130.20,1
42.00,127.71,1
135.00,124.13,1
192.00,121.48,1
84.00,120.46,1
48.00,119.07,1
212.00,117.31,1
243.00,118.04,1
54.00,120.92,1
158.00,123.32,1
57.00,124.58,1
44.00,124.03,1
206.00,122.40,1
119.00,121.87,1
63.00,121.63,1
166.00,120.82,1
108.00,120.37,1
278.00,121.53,1
55.00,124.35,1
50.00,126.00,1
184.00,125.89,1
70.00,125.68,1
95.00,124.83,1
412.00,125.62,1
229.00,131.60,1
219.00,140.77,1
112.00,149.52,1
76.00,155.52,1
68.00,157.67,1
140.00,156.97,1
93.00,154.88,1
124.00,151.88,1
50.00,147.80,1
279.00,143.97,1
56.00,141.79,1
75.00,139.30,1
333.00,137.25,1
111.00,138.24,1
120.00,140.01,1
47.00,140.00,1
94.00,137.88,1
156.00,134.95,1
541.00,136.10,1
75.00,143.37,1
617.00,154.95,1
220.00,171.29,1
44.00,187.15,1
246.00,197.61,1
227.00,205.32,1
221.00,212.00,1
104.00,216.46,1
132.00,217.34,1
134.00,214.94,1
182.00,210.81,1
350.00,207.72,1
430.00,209.35,1
74.00,214.31,1
63.00,216.30,1
84.00,212.99,1
183.00,206.82,1
48.00,199.40,1
111.00,190.40,1
518.00,183.80,1
271.00,184.47,1
755.00,193.84,1
114.00,210.36,1
135.00,225.20,1
179.00,233.68,1
243.00,238.48,1
358.00,242.70,1
368.00,248.87,1
278.00,256.70,1
285.00,264.15,1
274.00,270.35,1
818.00,279.82,1
361.00,296.63,1
196.00,313.96,1
134.00,324.10,1
136.00,326.00,1
261.00,322.18,1
108.00,314.94,1
228.00,304.80,1
404.00,295.02,1
117.00,287.36,1
97.00,278.09,1
72.00,265.05,1
87.00,249.09,1
124.00,231.79,1
448.00,217.46,1
354.00,210.76,1
168.00,209.62,1
59.00,208.00,1
92.00,202.99,1
54.00,194.93,1
242.00,185.98,1
63.00,178.00,1
318.00,171.73,1
76.00,167.68,1
474.00,166.89,1
366.00,172.28,1
162.00,182.01,1
212.00,190.84,1
39.00,196.42,1
72.00,197.15,1
243.00,194.66,1
309.00,193.50,1
631.00,198.59,1
46.00,209.36,1
64.00,217.14,1
72.00,217.87,1
284.00,215.24,1
47.00,211.80,1
212.00,207.07,1
75.00,201.14,1
379.00,196.10,1
118.00,193.66,1
185.00,192.01,1
273.00,190.71,1
261.00,191.61,1
311.00,195.14,1
151.00,199.94,1
164.00,203.40,1
212.00,205.01,1
111.00,205.21,1
93.00,202.94,1
42.00,197.33,1
65.00,188.49,1
202.00,178.64,1
209.00,170.86,1
123.00,165.44,1
258.00,161.74,1
177.00,160.33,1
683.00,164.66,1
71.00,175.91,1
693.00,191.20,1
243.00,210.57,1
84.00,228.75,1
60.00,238.84,1
156.00,241.54,1
284.00,241.01,1
575.00,243.40,1
108.00,249.92,1
757.00,259.39,1
200.00,273.18,1
638.00,289.50,1
540.00,308.99,1
182.00,329.34,1
128.00,342.44,1
232.00,346.64,1
470.00,347.09,1
397.00,348.92,1
81.00,349.89,1
134.00,344.72,1
80.00,332.98,1
272.00,317.74,1
510.00,305.03,1
309.00,298.58,1
351.00,296.04,1
696.00,298.45,1
334.00,307.66,1
193.00,317.37,1
134.00,321.32,1
418.00,320.91,1
100.00,318.81,1
679.00,317.40,1
101.00,318.78,1
73.00,317.17,1
326.00,310.18,1
36.00,300.85,1
88.00,287.80,1
182.00,271.65,1
43.00,254.44,1
166.00,236.55,1
310.00,220.80,1
57.00,208.50,1
278.00,198.06,1
194.00,190.25,1
37.00,183.83,1
137.00,176.19,1
209.00,168.87,1
236.00,164.26,1
54.00,161.42,1
58.00,157.25,1
68.00,150.85,1
55.00,143.04,1
140.00,134.99,1
65.00,127.72,1
91.00,120.95,1
40.00,114.16,1
150.00,107.88,1
194.00,103.96,1
63.00,102.53,1
249.00,102.74,1
486.00,108.16,1
689.00,124.59,1
164.00,149.81,1
359.00,175.43,1
62.00,196.89,1
507.00,214.87,1
487.00,234.37,1
123.00,254.74,1
123.00,268.88,1
93.00,274.57,1
90.00,273.15,1
78.00,265.89,1
201.00,255.28,1
89.00,243.50,1
249.00,231.67,1
146.00,221.09,1
59.00,210.69,1
52.00,198.41,1
115.00,184.80,1
193.00,172.26,1
192.00,162.78,1
108.00,155.86,1
68.00,149.39,1
116.00,142.51,1
243.00,137.04,1
53.00,133.79,1
47.00,130.17,1
484.00,128.33,1
154.00,132.42,1
284.00,140.04,1
458.00,150.99,1
231.00,166.20,1
207.00,181.61,1
315.00,195.25,1
662.00,211.62,1
166.00,231.98,1
256.00,250.11,1
506.00,265.41,1
180.00,280.22,1
125.00,290.38,1
66.00,292.52,1
519.00,290.87,1
1023.00,297.62,1
96.00,314.89,1
249.00,329.70,1
263.00,337.10,1
179.00,339.47,1
307.00,337.68,1
275.00,333.97,1
54.00,327.65,1
82.00,315.72,1
766.00,304.35,1
302.00,301.49,1
50.00,301.12,1
481.00,298.17,1
131.00,295.52,1
288.00,292.24,1
145.00,287.12,1
124.00,279.53,1
139.00,268.86,1
127.00,256.22,1
91.00,242.15,1
269.00,228.20,1
50.00,215.67,1
424.00,205.58,1
146.00,199.74,1
181.00,196.12,1
98.00,191.89,1
84.00,186.14,1
264.00,179.98,1
511.00,178.66,1
76.00,183.01,1
40.00,186.07,1
247.00,185.57,1
331.00,186.21,1
370.00,191.15,1
244.00,199.44,1
220.00,208.07,1
131.00,214.47,1
87.00,216.96,1
131.00,215.26,1
53.00,210.18,1
117.00,202.31,1
64.00,192.53,1
128.00,181.80,1
42.00,170.62,1
55.00,158.68,1
72.00,146.21,1
48.00,133.92,1
149.00,122.77,1
143.00,114.28,1
254.00,109.80,1
36.00,108.44,1
57.00,106.99,1
146.00,104.80,1
156.00,103.85,1
194.00,105.09,1
75.00,107.69,1
589.00,113.88,1
558.00,129.81,1
86.00,152.38,1
67.00,171.08,1
61.00,181.93,1
376.00,188.81,1
214.00,196.29,1
114.00,203.07,1
77.00,205.76,1
69.00,203.80,1
159.00,198.60,1
71.00,191.86,1
298.00,185.34,1
78.00,180.44,1
67.00,175.04,1
270.00,169.15,1
54.00,164.54,1
72.00,159.32,1
103.00,152.59,1
38.00,145.05,1
132.00,137.08,1
180.00,130.48,1
90.00,125.96,1
212.00,123.09,1
108.00,121.99,1
101.00,121.49,1
68.00,120.21,1
70.00,117.80,1
288.00,116.16,1
441.00,120.07,1
158.00,130.11,1
66.00,140.25,1
131.00,146.80,1
156.00,150.90,1
99.00,153.51,1
327.00,156.04,1
168.00,160.44,1
449.00,167.65,1
43.00,176.77,1
68.00,182.81,1
80.00,183.52,1
167.00,181.28,1
44.00,177.34,1
64.00,171.10,1
62.00,162.62,1
114.00,153.29,1
170.00,144.93,1
64.00,138.06,1
92.00,131.51,1
43.00,124.56,1
389.00,119.86,1
96.00,119.90,1
39.00,121.11,1
127.00,120.51,1
203.00,120.17,1
353.00,123.27,1
53.00,129.53,1
154.00,135.07,1
53.00,138.24,1
73.00,138.79,1
166.00,137.64,1
52.00,135.98,1
173.00,133.88,1
59.00,131.64,1
60.00,128.47,1
285.00,125.66,1
43.00,124.91,1
66.00,123.83,1
75.00,120.98,1
38.00,116.91,1
35.00,111.48,1
150.00,105.81,1
180.00,102.26,1
103.00,101.27,1
47.00,100.74,1
192.00,100.23,1
73.00,100.69,1
64.00,101.04,1
67.00,100.18,1
68.00,98.41,1
152.00,96.75,1
80.00,96.03,1
129.00,95.96,1
114.00,96.47,1
118.00,97.59,1
82.00,98.78,1
89.00,99.49,1
41.00,99.23,1
57.00,97.60,1
106.00,95.30,1
77.00,93.25,1
156.00,92.06,1
270.00,93.55,1
86.00,98.05,1
110.00,102.80,1
163.00,106.88,1
43.00,110.41,1
39.00,111.83,1
130.00,111.28,1
41.00,110.00,1
184.00,108.66,1
59.00,107.92,1
120.00,107.28,1
166.00,107.09,1
97.00,107.95,1
159.00,109.32,1
64.00,110.71,1
137.00,111.60,1
77.00,112.02,1
192.00,112.63,1
108.00,114.07,1
126.00,115.81,1
65.00,116.82,1
54.00,116.29,1
58.00,113.92,1
99.00,110.58,1
95.00,107.28,1
44.00,103.97,1
112.00,100.46,1
194.00,98.30,1
101.00,98.39,1
114.00,99.43,1
122.00,100.66,1
38.00,101.53,1
45.00,100.85,1
188.00,99.60,1
74.00,99.45,1
49.00,99.23,1
61.00,97.69,1
139.00,95.86,1
112.00,95.03,1
37.00,94.57,1
130.00,93.70,1
118.00,93.38,1
78.00,93.73,1
62.00,93.66,1
150.00,93.43,1
103.00,94.00,1
151.00,95.52,1
39.00,97.19,1
107.00,98.03,1
144.00,98.70,1
119.00,100.20,1
212.00,102.93,1
54.00,106.55,1
39.00,108.73,1
69.00,108.43,1
61.00,106.58,1
182.00,104.73,1
131.00,104.47,1
40.00,104.82,1
99.00,104.18,1
38.00,102.52,1
167.00,100.70,1
62.00,99.57,1
140.00,98.98,1
47.00,98.47,1
67.00,97.32,1
71.00,95.31,1
106.00,93.22,1
42.00,91.24,1
132.00,89.38,1
35.00,87.83,1
115.00,86.37,1
181.00,86.10,1
107.00,87.89,1
165.00,91.00,1
65.00,94.50,1
100.00,97.30,1
101.00,99.23,1
64.00,100.43,1
62.00,100.42,1
81.00,99.31,1
66.00,97.58,1
54.00,95.24,1
77.00,92.38,1
60.00,89.36,1
96.00,86.54,1
232.00,85.55,1
514.00,90.88,1
47.00,102.75,1
44.00,113.77,1
84.00,120.22,1
71.00,123.47,1
156.00,125.00,1
150.00,126.43,1
52.00,127.54,1
143.00,127.43,1
48.00,126.33,1
197.00,124.92,1
221.00,125.20,1
285.00,128.93,1
60.00,134.51,1
171.00,139.08,1
75.00,141.87,1
49.00,142.35,1
43.00,139.77,1
51.00,134.71,1
92.00,128.36,1
49.00,121.63,1
143.00,115.25,1
314.00,111.97,1
43.00,112.52,1
48.00,112.92,1
74.00,111.24,1
34.00,108.18,1
71.00,104.04,1
59.00,99.39,1
84.00,94.83,1
86.00,90.81,1
294.00,89.33,1
71.00,91.45,1
88.00,94.37,1
62.00,96.01,1
58.00,96.32,1
97.00,95.64,1
99.00,94.86,1
68.00,94.13,1
105.00,93.28,1
145.00,93.04,1
49.00,93.47,1
38.00,93.02,1
61.00,91.13,1
90.00,88.73,1
137.00,87.11,1
66.00,86.56,1
101.00,86.34,1
59.00,86.02,1
53.00,85.18,1
38.00,83.38,1
37.00,80.62,1
102.00,77.63,1
42.00,75.14,1
38.00,72.61,1
75.00,69.88,1
111.00,67.98,1
37.00,67.05,1
169.00,67.07,1
41.00,68.32,1
165.00,70.45,1
98.00,73.61,1
147.00,77.79,1
52.00,82.07,1
43.00,85.04,1
94.00,86.40,1
158.00,87.79,1
120.00,90.32,1
132.00,93.65,1
46.00,96.64,1
127.00,98.61,1
71.00,99.92,1
104.00,100.69,1
96.00,101.05,1
57.00,100.89,1
118.00,100.15,1
111.00,99.62,1
101.00,99.57,1
40.00,99.16,1
81.00,97.71,1
165.00,96.42,1
129.00,96.72,1
49.00,97.66,1
49.00,97.41,1
112.00,96.14,1
88.00,94.98,1
54.00,93.78,1
90.00,92.13,1
48.00,90.16,1
50.00,87.62,1
86.00,84.73,1
52.00,81.99,1
70.00,79.34,1
89.00,77.03,1
51.00,75.20,1
88.00,73.63,1
36.00,72.17,1
42.00,70.34,1
62.00,68.12,1
160.00,66.87,1
41.00,67.21,1
46.00,67.63,1
50.00,67.23,1
69.00,66.48,1
81.00,65.93,1
45.00,65.62,1
58.00,65.11,1
132.00,64.99,1
45.00,65.80,1
49.00,66.48,1
139.00,67.13,1
110.00,69.04,1
44.00,71.54,1
86.00,73.43,1
52.00,74.65,1
86.00,75.39,1
79.00,75.96,1
35.00,76.19,1
114.00,76.01,1
59.00,76.03,1
80.00,76.11,1
39.00,75.78,1
82.00,75.01,1
60.00,74.12,1
39.00,72.98,1
38.00,71.16,1
166.00,69.75,1
100.00,70.26,1
51.00,71.78,1
146.00,73.43,1
72.00,75.71,1
102.00,78.17,1
86.00,80.45,1
61.00,82.29,1
60.00,83.18,1
39.00,82.92,1
102.00,81.95,1
78.00,81.16,1
53.00,80.44,1
114.00,79.70,1
118.00,79.80,1
102.00,80.98,1
40.00,82.20,1
123.00,82.93,1
61.00,83.61,1
106.00,84.26,1
82.00,84.91,1
62.00,85.34,1
100.00,85.36,1
165.00,86.09,1
56.00,87.82,1
80.00,89.18,1
64.00,89.57,1
61.00,89.13,1
112.00,88.31,1
49.00,87.52,1
63.00,86.29,1
40.00,84.26,1
139.00,82.27,1
72.00,81.25,1
56.00,80.60,1
37.00,79.25,1
40.00,77.00,1
112.00,74.64,1
194.00,74.18,1
50.00,75.94,1
40.00,77.53,1
51.00,77.66,1
40.00,76.69,1
54.00,74.94,1
57.00,72.83,1
95.00,70.99,1
50.00,69.70,1
61.00,68.53,1
41.00,67.13,1
62.00,65.54,1
41.00,63.87,1
66.00,62.22,1
139.00,61.49,1
186.00,63.33,1
64.00,67.42,1
93.00,71.67,1
44.00,74.95,1
41.00,76.82,1
63.00,77.24,1
72.00,76.99,1
47.00,76.35,1
88.00,75.44,1
130.00,75.17,1
70.00,75.93,1
68.00,76.80,1
70.00,77.20,1
59.00,77.15,1
36.00,76.42,1
41.00,74.75,1
94.00,72.75,1
67.00,71.28,1
97.00,70.49,1
43.00,70.08,1
82.00,69.63,1
95.00,69.50,1
40.00,69.67,1
92.00,69.71,1
38.00,69.60,1
69.00,69.17,1
144.00,69.20,1
58.00,70.37,1
82.00,71.76,1
44.00,72.64,1
41.00,72.65,1
106.00,72.16,1
86.00,72.21,1
52.00,72.58,1
36.00,72.33,1
60.00,71.26,1
145.00,70.59,1
40.00,70.98,1
109.00,71.69,1
76.00,72.63,1
35.00,73.38,1
74.00,73.34,1
60.00,72.90,1
54.00,72.19,1
44.00,71.01,1
74.00,69.56,1
77.00,68.38,1
60.00,67.60,1
40.00,66.73,1
103.00,65.87,1
117.00,66.05,1
105.00,67.65,1
82.00,70.02,1
107.00,72.61,1
102.00,75.47,1
87.00,78.44,1
74.00,81.00,1
120.00,83.20,1
58.00,85.19,1
44.00,86.20,1
46.00,85.69,1
79.00,84.25,1
74.00,82.65,1
210.00,82.33,1
65.00,83.98,1
36.00,85.57,1
60.00,85.58,1
42.00,84.39,1
36.00,82.19,1
104.00,79.58,1
36.00,77.29,1
60.00,74.94,1
50.00,72.37,1
100.00,70.18,1
147.00,69.47,1
40.00,70.24,1
58.00,70.86,1
60.00,70.78,1
38.00,70.15,1
51.00,68.90,1
54.00,67.27,1
82.00,65.81,1
