78.00,94.10,1
427.00,97.74,1
106.00,105.92,1
302.00,116.44,1
229.00,128.41,1
216.00,141.34,1
365.00,154.99,1
486.00,172.22,1
420.00,194.11,1
428.00,218.86,1
852.00,248.14,1
538.00,284.30,1
318.00,320.93,1
80.00,348.45,1
203.00,363.49,1
211.00,368.64,1
263.00,367.68,1
218.00,362.67,1
160.00,353.95,1
233.00,341.98,1
171.00,328.11,1
263.00,313.66,1
93.00,298.85,1
160.00,282.68,1
87.00,265.18,1
42.00,246.22,1
117.00,226.03,1
63.00,206.03,1
315.00,188.64,1
188.00,176.46,1
110.00,168.01,1
457.00,163.19,1
504.00,166.76,1
397.00,179.43,1
416.00,197.33,1
537.00,219.03,1
527.00,244.97,1
350.00,272.68,1
456.00,298.63,1
454.00,322.65,1
382.00,344.69,1
272.00,362.37,1
567.00,376.18,1
571.00,390.60,1
269.00,404.98,1
308.00,414.21,1
561.00,419.46,1
154.00,422.68,1
355.00,421.26,1
305.00,415.87,1
168.00,407.37,1
162.00,394.06,1
402.00,378.28,1
91.00,362.50,1
159.00,344.69,1
221.00,324.92,1
72.00,304.73,1
68.00,282.90,1
806.00,265.35,1
348.00,260.01,1
45.00,260.18,1
271.00,257.53,1
222.00,253.71,1
202.00,249.99,1
379.00,247.22,1
296.00,247.30,1
254.00,249.33,1
383.00,252.46,1
284.00,257.26,1
120.00,261.26,1
396.00,263.24,1
131.00,264.66,1
315.00,265.03,1
83.00,263.52,1
628.00,262.83,1
461.00,268.47,1
54.00,277.14,1
271.00,281.46,1
205.00,282.06,1
75.00,279.42,1
309.00,273.68,1
157.00,267.30,1
82.00,259.45,1
264.00,249.76,1
212.00,240.93,1
66.00,232.48,1
154.00,222.49,1
39.00,210.97,1
44.00,197.54,1
89.00,182.56,1
156.00,168.27,1
370.00,158.23,1
250.00,154.86,1
195.00,155.95,1
330.00,159.66,1
403.00,167.58,1
343.00,180.29,1
456.00,196.77,1
40.00,213.52,1
412.00,227.02,1
254.00,239.01,1
450.00,251.58,1
325.00,265.02,1
301.00,278.04,1
336.00,289.19,1
172.00,297.56,1
298.00,302.17,1
111.00,302.93,1
83.00,298.49,1
79.00,288.13,1
250.00,274.79,1
37.00,260.68,1
129.00,245.06,1
412.00,230.93,1
114.00,221.37,1
58.00,212.56,1
92.00,201.46,1
140.00,189.54,1
207.00,179.00,1
257.00,171.80,1
322.00,169.26,1
321.00,171.80,1
232.00,177.95,1
412.00,186.64,1
520.00,200.05,1
389.00,218.79,1
623.00,241.64,1
300.00,266.99,1
513.00,291.76,1
455.00,315.64,1
475.00,339.02,1
439.00,360.82,1
374.00,379.74,1
139.00,392.52,1
332.00,397.39,1
176.00,396.03,1
229.00,389.42,1
305.00,379.32,1
170.00,367.44,1
392.00,354.85,1
185.00,342.97,1
173.00,330.35,1
187.00,315.72,1
315.00,301.30,1
94.00,287.91,1
296.00,274.82,1
128.00,262.53,1
51.00,249.48,1
84.00,233.94,1
165.00,217.58,1
140.00,202.53,1
308.00,190.62,1
321.00,184.14,1
244.00,183.03,1
198.00,184.47,1
806.00,191.36,1
487.00,209.18,1
381.00,233.86,1
564.00,259.84,1
359.00,286.43,1
476.00,311.73,1
395.00,334.75,1
378.00,354.77,1
446.00,371.45,1
35.00,382.61,1
490.00,386.78,1
295.00,388.00,1
195.00,386.64,1
328.00,381.23,1
270.00,373.76,1
346.00,365.73,1
143.00,356.69,1
160.00,344.59,1
106.00,328.66,1
114.00,309.70,1
65.00,288.35,1
46.00,265.02,1
76.00,240.46,1
46.00,215.83,1
122.00,192.36,1
288.00,172.93,1
326.00,160.99,1
187.00,155.91,1
370.00,155.73,1
346.00,161.01,1
406.00,171.86,1
554.00,188.60,1
434.00,211.34,1
391.00,236.65,1
383.00,261.32,1
531.00,285.41,1
477.00,310.14,1
645.00,336.27,1
226.00,361.52,1
597.00,382.75,1
354.00,400.89,1
343.00,415.06,1
288.00,423.03,1
281.00,425.05,1
322.00,422.19,1
360.00,416.65,1
269.00,409.48,1
53.00,398.32,1
245.00,381.71,1
73.00,361.59,1
219.00,339.37,1
138.00,316.59,1
184.00,294.41,1
206.00,273.71,1
440.00,257.49,1
283.00,247.99,1
362.00,243.85,1
306.00,243.49,1
373.00,246.35,1
99.00,249.89,1
298.00,251.51,1
338.00,252.96,1
366.00,256.80,1
364.00,263.10,1
408.00,271.66,1
385.00,282.14,1
465.00,294.36,1
325.00,307.48,1
352.00,319.42,1
198.00,328.07,1
166.00,331.32,1
347.00,330.08,1
167.00,326.71,1
370.00,322.03,1
163.00,316.66,1
353.00,310.78,1
95.00,304.02,1
109.00,294.24,1
78.00,280.29,1
114.00,263.56,1
70.00,245.23,1
108.00,226.16,1
231.00,208.45,1
94.00,193.60,1
351.00,182.30,1
411.00,177.65,1
279.00,180.26,1
342.00,187.19,1
457.00,198.02,1
309.00,212.59,1
400.00,228.85,1
477.00,246.77,1
297.00,265.85,1
522.00,284.72,1
268.00,302.99,1
380.00,318.73,1
320.00,331.30,1
502.00,342.48,1
258.00,352.73,1
357.00,360.20,1
335.00,364.79,1
399.00,367.99,1
118.00,368.59,1
274.00,364.41,1
99.00,355.46,1
38.00,341.06,1
86.00,321.00,1
109.00,297.68,1
135.00,273.72,1
80.00,250.26,1
232.00,228.52,1
168.00,210.32,1
181.00,195.72,1
236.00,184.49,1
295.00,177.73,1
412.00,176.93,1
334.00,182.43,1
372.00,192.55,1
377.00,205.93,1
363.00,221.58,1
417.00,238.71,1
386.00,256.96,1
464.00,276.02,1
475.00,296.15,1
390.00,316.57,1
462.00,335.81,1
410.00,353.57,1
328.00,368.69,1
362.00,379.77,1
240.00,386.31,1
279.00,387.79,1
288.00,385.04,1
372.00,380.36,1
94.00,373.55,1
186.00,362.21,1
142.00,346.52,1
71.00,327.65,1
117.00,305.80,1
74.00,282.15,1
270.00,259.26,1
88.00,239.10,1
120.00,220.56,1
158.00,203.20,1
250.00,188.95,1
369.00,180.40,1
294.00,178.62,1
383.00,182.45,1
492.00,192.11,1
501.00,208.64,1
475.00,230.53,1
340.00,254.37,1
530.00,278.02,1
388.00,301.57,1
550.00,324.81,1
303.00,346.53,1
439.00,364.76,1
418.00,379.77,1
547.00,393.67,1
224.00,405.57,1
252.00,411.51,1
182.00,409.99,1
228.00,402.20,1
343.00,391.10,1
331.00,380.02,1
322.00,370.01,1
66.00,358.76,1
138.00,343.25,1
76.00,323.59,1
39.00,300.65,1
132.00,275.60,1
98.00,250.77,1
118.00,227.29,1
191.00,206.28,1
239.00,189.60,1
254.00,178.30,1
366.00,172.98,1
222.00,173.17,1
362.00,177.34,1
338.00,185.27,1
418.00,197.18,1
456.00,213.25,1
395.00,232.66,1
383.00,253.16,1
129.00,271.02,1
418.00,284.40,1
410.00,296.53,1
456.00,309.92,1
301.00,323.27,1
412.00,334.87,1
218.00,343.71,1
324.00,348.75,1
301.00,350.68,1
363.00,351.20,1
313.00,351.07,1
228.00,349.40,1
101.00,343.78,1
142.00,332.86,1
156.00,318.06,1
65.00,300.53,1
55.00,280.02,1
160.00,257.86,1
82.00,236.25,1
175.00,216.15,1
184.00,198.82,1
288.00,185.96,1
336.00,179.11,1
365.00,178.90,1
406.00,185.08,1
352.00,196.27,1
490.00,211.47,1
497.00,231.19,1
524.00,255.11,1
458.00,281.42,1
388.00,307.24,1
398.00,330.20,1
527.00,350.87,1
425.00,370.50,1
380.00,387.70,1
293.00,400.15,1
374.00,407.45,1
279.00,410.40,1
169.00,408.16,1
186.00,399.64,1
224.00,386.30,1
169.00,370.03,1
106.00,350.97,1
167.00,329.43,1
108.00,306.63,1
169.00,283.73,1
58.00,261.10,1
43.00,237.99,1
130.00,214.79,1
177.00,194.02,1
196.00,177.45,1
258.00,165.86,1
164.00,158.79,1
301.00,155.50,1
410.00,157.54,1
445.00,166.89,1
371.00,182.29,1
499.00,201.97,1
433.00,225.20,1
423.00,250.20,1
476.00,275.42,1
569.00,301.59,1
387.00,328.05,1
454.00,352.17,1
394.00,372.81,1
425.00,389.94,1
323.00,403.01,1
288.00,410.86,1
242.00,412.67,1
198.00,408.46,1
260.00,399.19,1
213.00,386.67,1
180.00,371.54,1
152.00,353.75,1
135.00,333.69,1
154.00,312.12,1
66.00,289.63,1
102.00,266.13,1
180.00,243.19,1
166.00,222.91,1
188.00,205.92,1
272.00,192.94,1
319.00,185.38,1
283.00,183.34,1
456.00,186.77,1
405.00,196.44,1
418.00,211.28,1
383.00,229.01,1
407.00,248.08,1
419.00,267.79,1
422.00,287.70,1
441.00,307.42,1
432.00,326.60,1
389.00,344.39,1
380.00,359.67,1
204.00,370.52,1
330.00,375.79,1
278.00,376.78,1
232.00,374.31,1
229.00,368.10,1
215.00,358.66,1
161.00,346.40,1
55.00,330.45,1
84.00,310.34,1
46.00,287.04,1
70.00,261.82,1
96.00,236.34,1
72.00,211.92,1
60.00,188.81,1
209.00,168.31,1
245.00,153.16,1
342.00,145.29,1
237.00,144.16,1
377.00,148.43,1
415.00,158.49,1
561.00,175.53,1
418.00,198.92,1
575.00,226.55,1
461.00,256.86,1
570.00,288.54,1
467.00,320.23,1
391.00,349.40,1
304.00,372.84,1
312.00,389.11,1
239.00,398.24,1
269.00,400.71,1
230.00,397.57,1
112.00,388.96,1
225.00,375.12,1
46.00,357.09,1
103.00,335.05,1
115.00,310.29,1
70.00,284.50,1
58.00,258.06,1
81.00,231.63,1
188.00,207.26,1
331.00,188.41,1
230.00,176.81,1
356.00,171.67,1
425.00,173.41,1
362.00,181.97,1
343.00,194.77,1
442.00,210.39,1
290.00,227.85,1
516.00,246.32,1
386.00,266.41,1
455.00,287.25,1
374.00,307.40,1
462.00,326.31,1
280.00,342.93,1
430.00,356.22,1
220.00,365.79,1
172.00,369.50,1
193.00,366.40,1
95.00,357.29,1
272.00,343.89,1
85.00,328.34,1
211.00,311.07,1
110.00,292.76,1
98.00,273.54,1
115.00,253.40,1
164.00,233.78,1
85.00,215.51,1
80.00,197.91,1
56.00,180.48,1
160.00,164.19,1
280.00,151.83,1
247.00,145.42,1
226.00,143.97,1
328.00,146.67,1
374.00,154.26,1
478.00,167.74,1
253.00,185.63,1
383.00,204.37,1
606.00,225.26,1
434.00,250.41,1
479.00,277.38,1
478.00,304.13,1
403.00,329.59,1
306.00,351.18,1
223.00,366.21,1
488.00,375.80,1
293.00,383.01,1
310.00,387.27,1
218.00,387.06,1
229.00,382.18,1
84.00,372.08,1
104.00,356.24,1
235.00,336.75,1
100.00,316.37,1
106.00,294.93,1
51.00,271.89,1
64.00,247.68,1
104.00,223.45,1
40.00,200.24,1
200.00,179.15,1
154.00,162.13,1
214.00,149.81,1
290.00,142.72,1
202.00,140.89,1
290.00,142.95,1
379.00,149.40,1
435.00,161.61,1
229.00,177.79,1
445.00,195.25,1
345.00,214.16,1
478.00,234.81,1
379.00,256.63,1
381.00,278.07,1
230.00,296.51,1
310.00,310.21,1
290.00,319.81,1
278.00,326.15,1
276.00,329.48,1
234.00,329.89,1
251.00,327.52,1
158.00,322.27,1
236.00,314.29,1
126.00,304.10,1
225.00,292.20,1
61.00,278.78,1
96.00,263.04,1
137.00,245.65,1
59.00,227.85,1
64.00,209.46,1
48.00,190.52,1
58.00,171.64,1
77.00,153.60,1
189.00,138.12,1
295.00,128.00,1
286.00,124.88,1
349.00,128.39,1
266.00,137.18,1
341.00,149.45,1
327.00,164.39,1
418.00,182.00,1
300.00,201.48,1
467.00,221.89,1
314.00,242.87,1
431.00,263.41,1
462.00,283.85,1
217.00,302.99,1
290.00,317.31,1
491.00,328.35,1
410.00,339.81,1
295.00,350.55,1
260.00,357.56,1
301.00,360.31,1
69.00,358.20,1
62.00,348.87,1
212.00,333.59,1
91.00,315.65,1
163.00,296.18,1
52.00,275.47,1
91.00,253.54,1
100.00,231.27,1
110.00,210.00,1
299.00,192.02,1
87.00,178.57,1
296.00,168.81,1
224.00,163.27,1
251.00,161.92,1
330.00,164.29,1
444.00,171.82,1
404.00,185.32,1
317.00,202.49,1
408.00,220.77,1
372.00,239.78,1
369.00,258.92,1
365.00,277.10,1
451.00,294.56,1
222.00,310.40,1
320.00,322.22,1
194.00,329.28,1
260.00,331.68,1
260.00,330.58,1
252.00,327.36,1
329.00,323.12,1
137.00,317.85,1
64.00,308.89,1
66.00,294.57,1
264.00,277.71,1
47.00,261.00,1
75.00,243.23,1
96.00,224.11,1
48.00,204.79,1
79.00,185.55,1
221.00,168.33,1
139.00,155.15,1
204.00,145.83,1
423.00,141.92,1
260.00,145.16,1
222.00,152.47,1
328.00,161.53,1
304.00,172.88,1
332.00,186.25,1
442.00,201.89,1
480.00,221.08,1
529.00,244.32,1
381.00,269.79,1
355.00,293.83,1
357.00,314.34,1
61.00,328.87,1
577.00,337.74,1
323.00,346.03,1
73.00,351.59,1
260.00,350.15,1
166.00,343.80,1
170.00,333.84,1
45.00,319.76,1
77.00,301.24,1
163.00,280.14,1
80.00,258.80,1
109.00,237.59,1
92.00,216.84,1
87.00,197.05,1
112.00,178.61,1
65.00,161.80,1
353.00,148.59,1
337.00,142.77,1
569.00,146.80,1
305.00,159.71,1
302.00,176.55,1
293.00,193.42,1
423.00,210.69,1
352.00,229.17,1
400.00,248.25,1
458.00,267.84,1
479.00,288.81,1
438.00,310.51,1
372.00,331.01,1
314.00,347.99,1
385.00,360.84,1
243.00,369.64,1
233.00,373.21,1
202.00,371.14,1
164.00,363.95,1
172.00,352.30,1
227.00,337.84,1
163.00,322.21,1
48.00,304.65,1
162.00,284.76,1
99.00,264.12,1
40.00,243.04,1
168.00,221.87,1
167.00,202.94,1
65.00,186.53,1
133.00,171.44,1
272.00,159.29,1
210.00,152.18,1
251.00,149.51,1
401.00,151.73,1
341.00,159.98,1
316.00,172.50,1
361.00,187.34,1
426.00,204.55,1
366.00,223.93,1
424.00,244.35,1
138.00,262.96,1
494.00,278.26,1
154.00,291.27,1
381.00,301.29,1
248.00,308.56,1
222.00,312.97,1
45.00,312.06,1
226.00,305.52,1
216.00,296.33,1
100.00,285.81,1
182.00,273.32,1
149.00,259.82,1
254.00,247.03,1
325.00,237.25,1
169.00,230.85,1
145.00,225.03,1
172.00,218.38,1
168.00,211.52,1
230.00,205.42,1
86.00,199.89,1
235.00,194.35,1
320.00,190.95,1
412.00,192.66,1
359.00,199.97,1
430.00,211.78,1
392.00,227.06,1
498.00,245.28,1
312.00,265.05,1
386.00,283.76,1
431.00,301.12,1
461.00,318.51,1
398.00,335.67,1
347.00,350.87,1
223.00,361.71,1
294.00,366.97,1
270.00,367.79,1
396.00,366.41,1
44.00,362.37,1
82.00,352.05,1
179.00,335.66,1
118.00,316.75,1
140.00,296.52,1
88.00,275.29,1
110.00,253.60,1
145.00,232.48,1
159.00,213.37,1
70.00,196.19,1
146.00,180.32,1
173.00,166.73,1
151.00,156.20,1
198.00,148.58,1
241.00,144.41,1
304.00,144.57,1
162.00,148.31,1
218.00,153.25,1
508.00,161.05,1
325.00,174.53,1
477.00,192.56,1
410.00,213.83,1
281.00,235.97,1
461.00,256.83,1
491.00,278.19,1
279.00,299.46,1
565.00,319.09,1
315.00,337.70,1
292.00,352.98,1
51.00,360.70,1
216.00,359.74,1
268.00,353.35,1
274.00,345.29,1
235.00,336.40,1
94.00,325.43,1
326.00,312.52,1
48.00,298.90,1
52.00,282.57,1
126.00,263.11,1
229.00,244.01,1
217.00,228.05,1
261.00,216.03,1
293.00,208.31,1
324.00,205.20,1
376.00,206.97,1
341.00,213.18,1
432.00,223.22,1
432.00,237.04,1
295.00,252.86,1
574.00,269.74,1
363.00,288.58,1
530.00,308.46,1
370.00,328.18,1
431.00,346.38,1
181.00,360.44,1
339.00,368.55,1
351.00,372.54,1
352.00,374.78,1
170.00,374.20,1
296.00,369.47,1
234.00,361.91,1
282.00,352.86,1
201.00,342.58,1
115.00,330.05,1
158.00,314.51,1
92.00,296.66,1
173.00,277.51,1
45.00,257.79,1
101.00,237.26,1
37.00,216.19,1
162.00,195.77,1
328.00,179.49,1
221.00,169.73,1
191.00,164.64,1
428.00,163.83,1
456.00,170.22,1
640.00,185.87,1
363.00,209.11,1
304.00,233.64,1
412.00,255.99,1
407.00,277.19,1
514.00,298.53,1
434.00,320.30,1
451.00,341.39,1
278.00,359.46,1
337.00,372.41,1
185.00,379.33,1
244.00,379.86,1
305.00,375.78,1
386.00,370.50,1
57.00,363.58,1
420.00,353.93,1
100.00,343.15,1
142.00,329.93,1
59.00,312.57,1
153.00,292.49,1
127.00,271.61,1
143.00,251.28,1
126.00,231.97,1
248.00,214.94,1
204.00,201.71,1
281.00,192.73,1
312.00,188.42,1
195.00,188.00,1
304.00,189.80,1
318.00,194.17,1
280.00,201.15,1
221.00,208.89,1
347.00,216.71,1
506.00,227.22,1
447.00,242.62,1
509.00,262.07,1
356.00,283.22,1
625.00,305.18,1
465.00,328.93,1
336.00,351.72,1
279.00,369.13,1
392.00,380.81,1
176.00,387.25,1
192.00,387.04,1
219.00,380.50,1
39.00,368.32,1
137.00,350.48,1
77.00,328.56,1
198.00,305.01,1
101.00,281.77,1
148.00,259.33,1
136.00,238.10,1
47.00,217.95,1
225.00,199.18,1
239.00,184.42,1
99.00,173.76,1
269.00,165.76,1
339.00,162.26,1
442.00,165.73,1
318.00,175.67,1
384.00,189.53,1
443.00,206.43,1
454.00,226.66,1
424.00,249.17,1
637.00,274.08,1
513.00,302.28,1
417.00,330.91,1
320.00,355.51,1
362.00,374.12,1
343.00,387.35,1
366.00,396.31,1
284.00,401.26,1
365.00,402.46,1
282.00,400.79,1
216.00,395.77,1
160.00,386.13,1
155.00,371.76,1
201.00,354.14,1
118.00,334.65,1
74.00,312.96,1
74.00,288.97,1
88.00,263.73,1
118.00,238.87,1
54.00,215.18,1
109.00,192.84,1
270.00,173.97,1
39.00,159.57,1
343.00,149.08,1
315.00,144.78,1
371.00,147.87,1
374.00,157.26,1
489.00,172.43,1
554.00,193.98,1
329.00,219.98,1
398.00,245.76,1
414.00,269.95,1
501.00,293.71,1
526.00,318.11,1
422.00,342.48,1
438.00,364.61,1
88.00,380.82,1
316.00,388.28,1
227.00,388.95,1
279.00,385.26,1
306.00,378.76,1
331.00,371.40,1
176.00,362.99,1
65.00,350.72,1
45.00,332.71,1
76.00,309.97,1
166.00,285.48,1
100.00,261.63,1
59.00,238.39,1
124.00,215.65,1
61.00,194.28,1
88.00,174.37,1
219.00,157.25,1
179.00,144.91,1
312.00,138.07,1
438.00,138.60,1
418.00,147.63,1
418.00,163.59,1
429.00,184.23,1
400.00,207.67,1
600.00,233.69,1
135.00,260.13,1
388.00,282.03,1
328.00,299.58,1
394.00,314.91,1
143.00,326.56,1
319.00,332.90,1
377.00,336.27,1
286.00,338.95,1
483.00,341.61,1
283.00,345.02,1
82.00,345.55,1
122.00,339.28,1
200.00,327.68,1
77.00,313.02,1
80.00,295.02,1
113.00,274.45,1
208.00,254.00,1
231.00,236.34,1
90.00,221.39,1
148.00,207.33,1
217.00,194.77,1
366.00,186.62,1
218.00,183.87,1
388.00,185.50,1
224.00,190.74,1
427.00,198.86,1
868.00,214.50,1
542.00,241.70,1
437.00,274.12,1
223.00,303.25,1
400.00,325.92,1
434.00,344.42,1
252.00,359.66,1
374.00,370.19,1
639.00,379.50,1
370.00,390.75,1
281.00,400.09,1
109.00,402.55,1
306.00,397.80,1
51.00,387.43,1
285.00,372.50,1
298.00,356.39,1
42.00,339.98,1
203.00,321.12,1
38.00,300.16,1
54.00,277.10,1
69.00,252.23,1
98.00,227.41,1
97.00,204.01,1
84.00,182.60,1
212.00,164.23,1
120.00,150.06,1
322.00,140.73,1
260.00,137.45,1
372.00,140.40,1
490.00,150.32,1
364.00,167.02,1
423.00,187.71,1
404.00,210.56,1
436.00,234.80,1
451.00,259.72,1
540.00,285.57,1
422.00,311.95,1
401.00,336.44,1
334.00,356.82,1
401.00,372.63,1
299.00,384.18,1
335.00,391.30,1
267.00,393.98,1
291.00,392.54,1
253.00,387.56,1
259.00,379.69,1
260.00,369.61,1
63.00,356.73,1
65.00,338.83,1
127.00,316.61,1
118.00,292.91,1
34.00,268.51,1
59.00,243.15,1
43.00,217.45,1
121.00,192.95,1
40.00,170.64,1
139.00,150.85,1
364.00,136.50,1
264.00,130.43,1
360.00,131.82,1
324.00,139.36,1
388.00,152.03,1
548.00,170.21,1
363.00,193.65,1
463.00,219.41,1
420.00,245.82,1
426.00,272.09,1
381.00,296.74,1
514.00,319.72,1
297.00,340.72,1
518.00,358.85,1
367.00,374.81,1
169.00,386.28,1
218.00,389.89,1
180.00,386.24,1
380.00,378.63,1
102.00,368.93,1
141.00,355.39,1
96.00,337.25,1
170.00,316.49,1
95.00,294.66,1
46.00,271.61,1
125.00,247.71,1
72.00,224.43,1
202.00,203.18,1
155.00,185.54,1
252.00,172.31,1
220.00,163.88,1
345.00,160.60,1
181.00,161.80,1
410.00,166.62,1
398.00,176.42,1
361.00,190.96,1
413.00,208.40,1
329.00,227.29,1
504.00,247.16,1
487.00,269.20,1
457.00,293.07,1
368.00,316.16,1
446.00,336.80,1
328.00,354.48,1
222.00,367.14,1
186.00,372.54,1
239.00,371.16,1
327.00,365.97,1
216.00,359.08,1
177.00,349.69,1
73.00,336.23,1
142.00,318.69,1
90.00,298.50,1
99.00,276.70,1
53.00,253.79,1
69.00,230.24,1
145.00,207.48,1
253.00,188.38,1
302.00,175.52,1
258.00,169.26,1
416.00,169.07,1
399.00,175.66,1
368.00,187.91,1
432.00,204.04,1
392.00,222.94,1
317.00,242.62,1
475.00,261.99,1
404.00,281.84,1
436.00,301.84,1
412.00,321.04,1
361.00,338.41,1
361.00,352.78,1
332.00,363.74,1
230.00,370.42,1
268.00,371.98,1
378.00,370.32,1
84.00,365.97,1
70.00,355.65,1
203.00,339.54,1
46.00,320.43,1
285.00,300.11,1
38.00,280.13,1
129.00,259.75,1
97.00,238.90,1
61.00,218.31,1
174.00,198.71,1
128.00,181.68,1
106.00,167.16,1
324.00,156.10,1
292.00,151.27,1
311.00,152.68,1
340.00,159.09,1
448.00,170.57,1
425.00,187.43,1
272.00,206.99,1
444.00,226.67,1
487.00,247.76,1
350.00,270.17,1
380.00,291.23,1
175.00,308.23,1
418.00,320.42,1
313.00,330.02,1
323.00,337.70,1
215.00,342.07,1
318.00,342.93,1
179.00,340.76,1
212.00,335.18,1
236.00,326.81,1
151.00,316.58,1
152.00,304.05,1
97.00,289.06,1
181.00,272.47,1
158.00,255.97,1
39.00,239.41,1
170.00,222.27,1
92.00,205.79,1
201.00,191.05,1
209.00,179.35,1
323.00,172.35,1
207.00,170.09,1
184.00,170.34,1
357.00,172.59,1
429.00,179.59,1
377.00,192.09,1
288.00,207.38,1
527.00,224.45,1
392.00,244.30,1
455.00,265.92,1
444.00,288.02,1
426.00,309.90,1
408.00,330.36,1
415.00,348.67,1
329.00,364.00,1
585.00,377.33,1
242.00,389.37,1
269.00,396.67,1
199.00,397.17,1
178.00,391.40,1
101.00,379.35,1
108.00,361.71,1
46.00,339.35,1
159.00,314.15,1
92.00,288.36,1
37.00,262.35,1
68.00,235.83,1
127.00,210.34,1
171.00,188.08,1
342.00,171.66,1
442.00,164.23,1
502.00,167.37,1
627.00,181.28,1
449.00,204.00,1
431.00,230.69,1
337.00,256.94,1
507.00,281.72,1
490.00,306.47,1
507.00,331.61,1
391.00,355.43,1
487.00,376.46,1
371.00,394.34,1
614.00,410.12,1
176.00,423.22,1
365.00,430.10,1
248.00,430.67,1
325.00,426.69,1
327.00,419.71,1
175.00,410.05,1
240.00,396.77,1
92.00,379.77,1
210.00,359.56,1
65.00,336.98,1
75.00,312.10,1
90.00,285.39,1
77.00,258.38,1
47.00,231.73,1
92.00,206.01,1
47.00,181.93,1
203.00,160.83,1
169.00,144.62,1
270.00,134.20,1
268.00,129.99,1
387.00,132.40,1
282.00,140.84,1
292.00,152.86,1
304.00,166.58,1
292.00,181.35,1
453.00,197.68,1
467.00,217.39,1
378.00,239.78,1
546.00,263.46,1
240.00,286.88,1
467.00,307.53,1
163.00,324.11,1
276.00,334.85,1
168.00,339.17,1
200.00,337.99,1
356.00,333.58,1
89.00,327.45,1
195.00,317.99,1
187.00,305.80,1
130.00,292.21,1
140.00,277.03,1
207.00,261.45,1
105.00,246.40,1
56.00,230.71,1
85.00,213.67,1
260.00,197.68,1
262.00,186.18,1
124.00,178.79,1
269.00,173.70,1
212.00,171.31,1
246.00,171.60,1
386.00,175.14,1
391.00,183.68,1
432.00,197.40,1
294.00,214.10,1
445.00,231.83,1
420.00,250.91,1
500.00,271.96,1
440.00,294.38,1
488.00,317.11,1
278.00,337.92,1
363.00,354.18,1
256.00,365.27,1
256.00,370.96,1
289.00,371.73,1
383.00,370.09,1
306.00,367.87,1
154.00,363.48,1
207.00,354.91,1
117.00,342.29,1
93.00,325.71,1
163.00,306.16,1
72.00,285.26,1
84.00,263.18,1
55.00,240.16,1
142.00,217.53,1
153.00,197.21,1
211.00,180.69,1
247.00,168.95,1
278.00,162.58,1
303.00,161.56,1
436.00,166.36,1
509.00,178.45,1
349.00,196.63,1
444.00,217.60,1
302.00,239.08,1
472.00,260.04,1
369.00,280.73,1
410.00,300.56,1
437.00,319.12,1
384.00,336.47,1
334.00,351.25,1
539.00,364.02,1
127.00,374.41,1
215.00,378.18,1
120.00,374.18,1
186.00,364.08,1
215.00,350.20,1
152.00,334.42,1
251.00,317.71,1
93.00,300.70,1
116.00,282.34,1
64.00,262.25,1
71.00,240.94,1
43.00,218.78,1
83.00,196.66,1
269.00,177.30,1
247.00,163.94,1
353.00,157.62,1
326.00,158.19,1
225.00,163.54,1
501.00,172.83,1
332.00,187.04,1
406.00,204.63,1
454.00,224.51,1
558.00,247.66,1
419.00,273.49,1
455.00,299.43,1
509.00,324.44,1
405.00,348.24,1
275.00,367.98,1
261.00,380.85,1
385.00,387.84,1
290.00,391.24,1
375.00,391.94,1
234.00,390.04,1
166.00,384.02,1
119.00,372.32,1
127.00,355.50,1
55.00,334.48,1
156.00,310.65,1
68.00,285.89,1
216.00,261.83,1
154.00,240.30,1
411.00,223.72,1
273.00,214.06,1
225.00,209.42,1
249.00,206.99,1
253.00,206.38,1
364.00,208.33,1
258.00,213.17,1
442.00,220.78,1
311.00,231.27,1
457.00,244.15,1
383.00,259.21,1
454.00,275.93,1
226.00,292.06,1
208.00,303.84,1
402.00,311.39,1
236.00,317.14,1
122.00,319.25,1
112.00,315.11,1
406.00,307.77,1
126.00,300.69,1
334.00,293.57,1
364.00,288.02,1
496.00,287.20,1
412.00,291.74,1
70.00,297.03,1
221.00,297.58,1
534.00,296.81,1
208.00,298.83,1
117.00,299.30,1
224.00,295.30,1
252.00,289.20,1
136.00,282.15,1
409.00,275.18,1
283.00,271.02,1
277.00,269.26,1
380.00,269.07,1
363.00,271.59,1
358.00,276.67,1
327.00,282.98,1
426.00,290.31,1
440.00,299.71,1
484.00,311.77,1
314.00,324.87,1
496.00,337.40,1
371.00,349.63,1
405.00,360.93,1
166.00,368.73,1
233.00,370.47,1
214.00,366.58,1
269.00,359.19,1
523.00,352.23,1
171.00,347.57,1
284.00,342.05,1
243.00,334.67,1
324.00,327.02,1
93.00,318.53,1
130.00,306.82,1
56.00,291.11,1
285.00,273.90,1
165.00,258.31,1
37.00,243.31,1
271.00,228.10,1
249.00,215.84,1
311.00,208.30,1
155.00,204.19,1
229.00,201.34,1
342.00,200.41,1
287.00,202.98,1
476.00,209.74,1
373.00,221.24,1
868.00,239.94,1
482.00,267.74,1
469.00,299.00,1
420.00,328.07,1
359.00,353.11,1
399.00,373.17,1
868.00,392.81,1
396.00,415.62,1
486.00,436.95,1
256.00,452.13,1
300.00,459.50,1
321.00,459.61,1
248.00,454.27,1
200.00,443.61,1
75.00,426.80,1
148.00,404.00,1
72.00,376.91,1
159.00,347.60,1
82.00,317.74,1
37.00,287.46,1
39.00,256.56,1
166.00,226.92,1
339.00,202.78,1
202.00,186.39,1
128.00,174.96,1
265.00,166.46,1
242.00,161.96,1
386.00,162.61,1
401.00,169.47,1
416.00,182.39,1
332.00,199.19,1
442.00,218.02,1
384.00,238.38,1
462.00,259.81,1
352.00,281.25,1
475.00,301.85,1
379.00,321.43,1
233.00,337.79,1
311.00,348.57,1
220.00,354.09,1
362.00,355.71,1
148.00,354.18,1
324.00,349.39,1
186.00,342.26,1
94.00,332.03,1
66.00,316.85,1
178.00,298.06,1
88.00,278.13,1
171.00,258.08,1
244.00,239.87,1
208.00,225.29,1
292.00,214.63,1
377.00,209.14,1
371.00,209.84,1
457.00,216.46,1
423.00,228.53,1
442.00,244.61,1
398.00,262.83,1
526.00,282.60,1
415.00,303.70,1
499.00,325.05,1
536.00,346.66,1
312.00,367.20,1
296.00,382.72,1
246.00,391.27,1
226.00,393.19,1
286.00,389.82,1
123.00,381.96,1
109.00,368.63,1
321.00,351.80,1
116.00,334.55,1
179.00,316.39,1
76.00,296.71,1
86.00,275.41,1
78.00,252.74,1
38.00,229.45,1
88.00,206.19,1
249.00,185.53,1
231.00,170.44,1
149.00,160.43,1
319.00,154.50,1
620.00,156.47,1
64.00,166.34,1
316.00,177.11,1
455.00,188.96,1
470.00,205.80,1
388.00,226.55,1
449.00,248.82,1
501.00,272.28,1
456.00,296.90,1
390.00,320.67,1
484.00,342.35,1
382.00,361.90,1
348.00,377.99,1
396.00,389.89,1
329.00,398.18,1
493.00,404.10,1
207.00,407.81,1
231.00,406.58,1
130.00,398.81,1
212.00,385.51,1
113.00,368.17,1
139.00,347.62,1
52.00,324.15,1
53.00,298.08,1
103.00,270.56,1
94.00,243.60,1
127.00,218.52,1
134.00,196.22,1
199.00,177.70,1
356.00,165.13,1
359.00,160.62,1
364.00,163.85,1
286.00,172.28,1
411.00,184.16,1
309.00,198.87,1
507.00,216.23,1
406.00,236.58,1
557.00,259.74,1
416.00,284.79,1
630.00,311.12,1
359.00,337.65,1
376.00,360.91,1
190.00,377.36,1
331.00,386.39,1
226.00,389.32,1
409.00,388.55,1
307.00,386.30,1
292.00,382.70,1
300.00,377.15,1
121.00,368.83,1
125.00,355.86,1
41.00,337.69,1
72.00,314.90,1
273.00,290.92,1
43.00,268.55,1
95.00,246.42,1
165.00,224.75,1
149.00,205.60,1
344.00,190.94,1
377.00,183.49,1
353.00,183.72,1
393.00,190.04,1
450.00,201.79,1
352.00,217.68,1
536.00,236.48,1
460.00,258.52,1
514.00,283.01,1
487.00,308.55,1
449.00,333.77,1
462.00,357.18,1
457.00,378.27,1
246.00,395.22,1
460.00,406.59,1
394.00,414.69,1
383.00,420.62,1
207.00,422.51,1
204.00,418.20,1
318.00,408.83,1
150.00,396.38,1
174.00,380.31,1
148.00,360.88,1
142.00,339.23,1
135.00,316.28,1
115.00,292.75,1
106.00,269.07,1
139.00,246.05,1
88.00,224.31,1
155.00,204.26,1
49.00,185.97,1
232.00,169.93,1
138.00,157.50,1
344.00,149.86,1
406.00,149.25,1
480.00,157.33,1
451.00,173.26,1
482.00,195.00,1
375.00,219.83,1
570.00,246.28,1
469.00,274.64,1
514.00,303.85,1
342.00,331.19,1
527.00,355.28,1
452.00,377.12,1
439.00,396.70,1
353.00,412.35,1
286.00,422.44,1
296.00,426.27,1
182.00,423.81,1
92.00,414.15,1
311.00,398.76,1
180.00,381.24,1
126.00,361.84,1
45.00,339.11,1
76.00,313.08,1
123.00,285.54,1
120.00,258.84,1
64.00,233.52,1
178.00,210.06,1
202.00,190.45,1
348.00,176.93,1
394.00,171.45,1
389.00,174.33,1
353.00,183.31,1
326.00,195.82,1
409.00,210.54,1
417.00,227.73,1
621.00,248.63,1
271.00,272.21,1
487.00,294.75,1
518.00,316.73,1
482.00,339.56,1
358.00,360.89,1
417.00,378.51,1
286.00,391.61,1
390.00,400.04,1
351.00,404.95,1
382.00,407.46,1
150.00,406.37,1
161.00,399.11,1
239.00,386.27,1
197.00,370.68,1
184.00,353.35,1
154.00,334.46,1
190.00,314.63,1
105.00,294.44,1
143.00,273.85,1
64.00,252.88,1
260.00,232.97,1
194.00,216.56,1
173.00,203.72,1
68.00,192.25,1
284.00,182.08,1
349.00,176.45,1
292.00,176.92,1
198.00,180.75,1
300.00,185.84,1
390.00,193.38,1
387.00,204.94,1
383.00,219.74,1
511.00,237.46,1
458.00,258.56,1
396.00,281.10,1
148.00,300.49,1
209.00,312.77,1
338.00,319.25,1
325.00,323.62,1
297.00,326.86,1
206.00,327.80,1
317.00,326.14,1
289.00,323.42,1
293.00,320.47,1
59.00,315.34,1
237.00,306.41,1
99.00,294.72,1
80.00,280.33,1
70.00,262.84,1
58.00,243.18,1
81.00,222.40,1
89.00,201.80,1
255.00,183.72,1
386.00,172.02,1
259.00,168.12,1
314.00,169.72,1
350.00,175.53,1
357.00,185.58,1
379.00,198.98,1
540.00,216.26,1
437.00,238.05,1
526.00,262.79,1
514.00,289.43,1
457.00,316.74,1
495.00,342.93,1
338.00,366.25,1
353.00,384.45,1
358.00,397.17,1
314.00,405.15,1
250.00,408.02,1
169.00,404.87,1
299.00,396.43,1
323.00,385.95,1
176.00,374.50,1
434.00,362.60,1
98.00,350.99,1
361.00,338.73,1
127.00,326.07,1
105.00,311.61,1
75.00,293.77,1
259.00,274.77,1
70.00,256.72,1
68.00,238.38,1
299.00,220.74,1
168.00,206.95,1
520.00,199.20,1
257.00,198.79,1
354.00,203.37,1
672.00,213.65,1
329.00,231.13,1
547.00,252.32,1
414.00,275.30,1
502.00,299.17,1
399.00,322.46,1
282.00,342.58,1
380.00,357.63,1
383.00,369.01,1
269.00,377.16,1
470.00,382.40,1
392.00,386.97,1
342.00,390.84,1
269.00,391.99,1
382.00,390.32,1
258.00,386.80,1
166.00,380.16,1
159.00,368.72,1
45.00,352.17,1
83.00,330.76,1
164.00,306.60,1
40.00,281.86,1
99.00,256.53,1
102.00,231.60,1
128.00,208.54,1
145.00,188.27,1
166.00,171.49,1
336.00,159.77,1
289.00,154.98,1
326.00,156.51,1
399.00,163.60,1
488.00,177.01,1
91.00,193.52,1
481.00,209.18,1
482.00,226.92,1
450.00,248.54,1
418.00,271.63,1
318.00,293.49,1
290.00,311.50,1
453.00,326.04,1
326.00,338.90,1
271.00,348.84,1
226.00,353.93,1
106.00,352.94,1
285.00,346.39,1
128.00,336.60,1
237.00,324.49,1
155.00,310.77,1
131.00,295.69,1
83.00,278.62,1
41.00,259.24,1
145.00,238.51,1
50.00,218.02,1
184.00,198.79,1
131.00,182.15,1
98.00,167.98,1
254.00,156.45,1
271.00,149.75,1
430.00,149.91,1
364.00,157.44,1
244.00,169.52,1
392.00,183.36,1
471.00,200.24,1
435.00,221.12,1
512.00,245.05,1
371.00,270.29,1
237.00,292.85,1
357.00,310.26,1
512.00,325.33,1
315.00,340.03,1
380.00,352.54,1
275.00,361.56,1
355.00,367.09,1
65.00,367.86,1
168.00,361.63,1
256.00,350.31,1
129.00,336.78,1
70.00,320.18,1
70.00,299.82,1
44.00,276.55,1
56.00,251.48,1
100.00,226.26,1
57.00,202.17,1
73.00,179.56,1
71.00,158.72,1
52.00,139.84,1
250.00,124.39,1
262.00,115.28,1
403.00,114.26,1
340.00,121.46,1
212.00,133.61,1
454.00,148.48,1
442.00,167.85,1
488.00,192.25,1
332.00,218.92,1
423.00,244.98,1
347.00,269.32,1
403.00,291.49,1
366.00,311.26,1
411.00,328.77,1
480.00,345.01,1
242.00,359.28,1
276.00,368.45,1
150.00,370.97,1
211.00,367.05,1
76.00,357.18,1
78.00,341.46,1
66.00,320.56,1
43.00,296.12,1
74.00,269.65,1
59.00,242.70,1
140.00,216.94,1
127.00,194.04,1
237.00,175.46,1
218.00,162.29,1
356.00,155.43,1
351.00,155.67,1
383.00,162.65,1
444.00,175.43,1
360.00,192.83,1
480.00,213.32,1
386.00,235.90,1
423.00,259.09,1
389.00,281.55,1
529.00,303.62,1
311.00,324.90,1
382.00,342.99,1
206.00,355.99,1
337.00,363.47,1
232.00,366.36,1
318.00,365.70,1
127.00,361.35,1
157.00,352.15,1
318.00,339.82,1
219.00,327.59,1
258.00,315.85,1
37.00,302.89,1
208.00,287.45,1
89.00,270.70,1
115.00,253.18,1
41.00,234.42,1
38.00,214.38,1
50.00,193.45,1
90.00,173.05,1
181.00,155.22,1
455.00,144.00,1
298.00,142.18,1
284.00,147.17,1
415.00,156.76,1
481.00,172.19,1
355.00,192.63,1
502.00,215.84,1
400.00,240.98,1
430.00,266.47,1
469.00,291.38,1
450.00,315.73,1
344.00,337.95,1
303.00,355.54,1
240.00,366.93,1
487.00,373.92,1
260.00,379.03,1
223.00,380.51,1
235.00,376.74,1
124.00,368.13,1
215.00,355.17,1
61.00,338.63,1
120.00,318.57,1
61.00,295.75,1
191.00,272.21,1
211.00,250.72,1
105.00,232.03,1
157.00,214.93,1
218.00,200.09,1
268.00,189.35,1
315.00,183.78,1
368.00,184.04,1
563.00,191.53,1
300.00,205.81,1
464.00,223.41,1
346.00,242.46,1
336.00,261.32,1
280.00,277.74,1
312.00,291.01,1
332.00,301.68,1
256.00,309.98,1
328.00,315.71,1
202.00,318.81,1
256.00,318.75,1
222.00,315.90,1
154.00,310.31,1
72.00,300.79,1
136.00,287.22,1
48.00,270.58,1
52.00,251.32,1
66.00,230.20,1
116.00,209.03,1
181.00,189.98,1
216.00,174.95,1
112.00,163.74,1
205.00,155.15,1
302.00,150.32,1
305.00,150.89,1
411.00,157.34,1
335.00,169.09,1
375.00,184.43,1
582.00,203.72,1
383.00,227.51,1
331.00,251.92,1
416.00,274.21,1
494.00,295.77,1
365.00,317.03,1
380.00,335.97,1
222.00,350.36,1
243.00,358.45,1
316.00,361.17,1
250.00,360.56,1
306.00,357.41,1
156.00,351.59,1
230.00,342.49,1
232.00,331.24,1
88.00,318.16,1
118.00,301.95,1
106.00,283.17,1
111.00,263.14,1
188.00,243.46,1
255.00,226.58,1
164.00,213.41,1
154.00,202.44,1
286.00,193.68,1
410.00,190.01,1
434.00,193.72,1
423.00,204.24,1
408.00,219.45,1
293.00,236.41,1
496.00,253.83,1
381.00,272.48,1
559.00,292.73,1
229.00,312.76,1
384.00,329.22,1
343.00,341.88,1
348.00,351.90,1
225.00,358.31,1
234.00,359.77,1
273.00,356.91,1
84.00,350.05,1
224.00,338.66,1
226.00,325.03,1
70.00,310.06,1
66.00,291.90,1
80.00,270.71,1
168.00,248.85,1
244.00,229.47,1
296.00,215.04,1
227.00,205.83,1
403.00,201.60,1
338.00,203.10,1
333.00,209.30,1
401.00,218.71,1
225.00,229.89,1
316.00,240.45,1
542.00,252.11,1
422.00,267.76,1
376.00,285.44,1
436.00,302.77,1
221.00,318.07,1
312.00,328.99,1
118.00,334.30,1
321.00,334.38,1
371.00,332.72,1
232.00,331.16,1
157.00,327.16,1
72.00,318.34,1
127.00,304.66,1
62.00,287.27,1
92.00,267.34,1
56.00,245.85,1
99.00,223.87,1
61.00,202.38,1
360.00,184.15,1
210.00,172.38,1
278.00,166.46,1
406.00,166.11,1
729.00,175.43,1
352.00,195.29,1
418.00,219.30,1
369.00,243.20,1
567.00,267.62,1
322.00,292.45,1
457.00,315.45,1
266.00,334.90,1
398.00,350.05,1
238.00,360.70,1
322.00,366.70,1
276.00,368.67,1
134.00,366.22,1
150.00,357.87,1
134.00,344.31,1
144.00,327.14,1
95.00,307.51,1
52.00,285.58,1
76.00,261.69,1
98.00,237.35,1
242.00,215.23,1
189.00,197.69,1
206.00,184.64,1
342.00,176.41,1
247.00,173.79,1
382.00,176.08,1
389.00,183.61,1
487.00,196.91,1
431.00,215.33,1
405.00,236.72,1
330.00,258.12,1
410.00,278.03,1
427.00,297.00,1
432.00,315.60,1
406.00,333.31,1
386.00,349.23,1
388.00,362.72,1
383.00,373.75,1
396.00,382.58,1
388.00,389.57,1
394.00,394.95,1
182.00,397.22,1
258.00,394.21,1
340.00,387.43,1
230.00,379.12,1
200.00,368.51,1
70.00,354.05,1
85.00,334.87,1
63.00,311.76,1
75.00,286.11,1
88.00,259.59,1
167.00,234.31,1
331.00,213.60,1
135.00,198.78,1
300.00,188.45,1
258.00,182.58,1
360.00,181.83,1
304.00,185.96,1
406.00,194.32,1
135.00,204.63,1
489.00,215.38,1
360.00,228.60,1
470.00,245.01,1
326.00,262.87,1
431.00,280.61,1
308.00,297.19,1
461.00,312.45,1
272.00,326.12,1
290.00,336.44,1
232.00,342.08,1
152.00,342.55,1
227.00,337.85,1
101.00,328.98,1
213.00,316.56,1
110.00,301.93,1
214.00,286.13,1
141.00,270.25,1
122.00,254.33,1
316.00,239.61,1
239.00,228.73,1
324.00,222.16,1
297.00,219.64,1
305.00,220.59,1
387.00,224.77,1
374.00,232.60,1
451.00,244.01,1
232.00,257.11,1
357.00,269.08,1
368.00,280.16,1
391.00,291.56,1
402.00,303.41,1
561.00,316.92,1
388.00,332.53,1
358.00,347.41,1
188.00,357.88,1
335.00,362.82,1
264.00,363.86,1
91.00,360.47,1
214.00,351.41,1
124.00,338.26,1
156.00,322.19,1
111.00,303.83,1
92.00,283.72,1
59.00,261.99,1
58.00,239.00,1
71.00,215.68,1
88.00,193.22,1
196.00,173.42,1
306.00,159.14,1
230.00,151.62,1
218.00,149.00,1
334.00,150.32,1
380.00,156.80,1
385.00,168.71,1
472.00,185.60,1
351.00,206.19,1
402.00,228.01,1
378.00,249.71,1
450.00,271.21,1
382.00,292.34,1
647.00,314.08,1
443.00,337.79,1
479.00,361.35,1
422.00,382.37,1
354.00,399.55,1
252.00,410.75,1
222.00,414.57,1
235.00,411.41,1
224.00,402.86,1
142.00,389.83,1
60.00,371.72,1
96.00,348.47,1
110.00,322.20,1
82.00,294.86,1
122.00,267.53,1
188.00,242.16,1
206.00,220.69,1
244.00,204.10,1
301.00,192.98,1
364.00,188.16,1
398.00,190.17,1
317.00,197.61,1
411.00,208.67,1
541.00,224.12,1
437.00,244.40,1
462.00,267.31,1
413.00,290.64,1
618.00,314.55,1
209.00,337.69,1
320.00,355.26,1
252.00,365.91,1
295.00,371.09,1
259.00,371.80,1
127.00,367.78,1
256.00,358.78,1
122.00,346.31,1
195.00,331.09,1
50.00,313.11,1
52.00,291.93,1
129.00,268.48,1
142.00,245.47,1
158.00,224.57,1
212.00,206.80,1
415.00,194.73,1
330.00,190.51,1
135.00,191.01,1
462.00,193.91,1
444.00,202.16,1
397.00,216.16,1
213.00,231.68,1
316.00,245.23,1
354.00,257.33,1
464.00,270.37,1
377.00,285.07,1
478.00,300.83,1
332.00,316.66,1
322.00,330.33,1
250.00,339.91,1
254.00,344.76,1
242.00,345.34,1
157.00,341.78,1
135.00,333.45,1
54.00,320.05,1
108.00,302.12,1
112.00,281.63,1
84.00,260.18,1
42.00,237.92,1
52.00,214.92,1
101.00,192.35,1
109.00,171.85,1
197.00,154.85,1
210.00,142.73,1
321.00,136.52,1
369.00,137.41,1
349.00,145.38,1
403.00,158.85,1
400.00,176.71,1
391.00,197.75,1
444.00,220.67,1
493.00,245.49,1
458.00,271.97,1
501.00,298.93,1
398.00,324.93,1
401.00,347.98,1
323.00,366.56,1
301.00,379.64,1
357.00,387.57,1
211.00,390.87,1
239.00,388.77,1
36.00,380.20,1
146.00,364.90,1
94.00,344.62,1
104.00,321.42,1
122.00,296.66,1
127.00,271.94,1
156.00,248.56,1
127.00,227.26,1
259.00,209.09,1
240.00,195.75,1
342.00,188.09,1
400.00,187.04,1
240.00,191.56,1
431.00,199.54,1
397.00,211.46,1
397.00,226.97,1
443.00,244.79,1
533.00,265.28,1
279.00,286.92,1
410.00,306.29,1
319.00,322.60,1
332.00,335.72,1
351.00,345.61,1
131.00,351.32,1
144.00,350.16,1
117.00,342.19,1
138.00,329.05,1
131.00,312.47,1
71.00,293.43,1
80.00,272.17,1
124.00,249.93,1
52.00,227.93,1
118.00,206.52,1
178.00,187.28,1
323.00,173.04,1
228.00,165.20,1
163.00,161.58,1
264.00,160.28,1
435.00,163.33,1
289.00,172.03,1
454.00,185.06,1
333.00,201.54,1
356.00,219.57,1
310.00,237.20,1
489.00,254.90,1
499.00,274.70,1
663.00,298.38,1
377.00,324.83,1
363.00,348.89,1
313.00,367.32,1
245.00,379.28,1
261.00,384.60,1
350.00,385.10,1
211.00,382.37,1
74.00,374.57,1
171.00,360.54,1
106.00,342.21,1
173.00,321.51,1
55.00,299.30,1
80.00,275.46,1
190.00,251.56,1
135.00,229.99,1
113.00,210.72,1
232.00,194.01,1
339.00,182.53,1
319.00,177.98,1
323.00,179.40,1
358.00,185.57,1
490.00,196.77,1
388.00,213.04,1
287.00,231.25,1
410.00,248.78,1
402.00,266.37,1
432.00,284.58,1
360.00,302.45,1
384.00,318.73,1
345.00,332.73,1
262.00,343.39,1
228.00,349.20,1
166.00,349.36,1
196.00,344.12,1
84.00,334.09,1
135.00,319.57,1
155.00,302.21,1
148.00,283.93,1
78.00,265.05,1
151.00,245.71,1
72.00,226.58,1
50.00,207.43,1
164.00,188.80,1
164.00,172.88,1
274.00,161.40,1
315.00,155.83,1
242.00,155.87,1
351.00,160.24,1
260.00,168.26,1
393.00,179.27,1
345.00,193.18,1
430.00,209.91,1
331.00,228.39,1
383.00,247.07,1
389.00,265.40,1
347.00,283.01,1
327.00,298.69,1
436.00,312.60,1
328.00,325.46,1
349.00,336.38,1
284.00,344.38,1
203.00,348.32,1
154.00,346.73,1
160.00,339.59,1
256.00,328.93,1
97.00,316.28,1
247.00,301.99,1
60.00,286.53,1
152.00,269.63,1
57.00,251.33,1
42.00,231.69,1
122.00,211.28,1
192.00,192.73,1
87.00,177.16,1
168.00,163.89,1
224.00,153.72,1
222.00,147.83,1
286.00,146.33,1
291.00,149.31,1
374.00,156.94,1
352.00,169.06,1
331.00,184.34,1
319.00,200.85,1
427.00,218.35,1
424.00,237.66,1
313.00,257.58,1
408.00,276.27,1
378.00,293.80,1
329.00,309.76,1
295.00,322.63,1
253.00,331.41,1
306.00,336.27,1
198.00,337.60,1
260.00,335.38,1
263.00,330.72,1
170.00,324.16,1
110.00,314.32,1
83.00,300.38,1
61.00,282.68,1
69.00,262.10,1
47.00,239.82,1
110.00,217.23,1
139.00,196.22,1
147.00,178.19,1
188.00,163.72,1
180.00,153.13,1
285.00,146.96,1
268.00,145.84,1
272.00,149.23,1
467.00,157.48,1
347.00,171.43,1
396.00,189.22,1
335.00,208.74,1
410.00,228.85,1
340.00,248.94,1
430.00,268.56,1
334.00,287.26,1
335.00,303.82,1
238.00,316.64,1
296.00,325.02,1
137.00,328.63,1
204.00,326.91,1
196.00,320.93,1
210.00,312.41,1
311.00,303.29,1
103.00,294.06,1
177.00,283.06,1
264.00,271.30,1
93.00,259.99,1
42.00,246.81,1
40.00,230.40,1
65.00,211.86,1
70.00,192.72,1
245.00,175.53,1
169.00,162.71,1
296.00,154.85,1
252.00,152.14,1
315.00,154.29,1
380.00,161.24,1
351.00,173.05,1
488.00,189.32,1
326.00,209.04,1
491.00,230.65,1
255.00,252.36,1
452.00,272.52,1
458.00,292.18,1
332.00,311.56,1
242.00,327.27,1
318.00,337.78,1
127.00,342.90,1
246.00,342.26,1
181.00,337.10,1
137.00,328.22,1
202.00,315.98,1
126.00,301.76,1
48.00,285.12,1
133.00,265.93,1
42.00,245.52,1
41.00,223.99,1
104.00,202.13,1
75.00,181.48,1
257.00,164.01,1
133.00,151.31,1
119.00,142.00,1
339.00,136.11,1
317.00,136.51,1
218.00,142.18,1
281.00,150.37,1
200.00,159.77,1
353.00,170.20,1
340.00,182.85,1
380.00,198.17,1
406.00,215.77,1
523.00,236.28,1
284.00,258.44,1
222.00,277.59,1
176.00,290.43,1
205.00,296.95,1
281.00,299.22,1
152.00,298.59,1
149.00,294.29,1
88.00,285.70,1
129.00,273.35,1
58.00,258.22,1
156.00,241.48,1
77.00,224.41,1
57.00,207.05,1
95.00,189.39,1
89.00,172.46,1
310.00,158.71,1
190.00,150.48,1
150.00,146.24,1
310.00,144.80,1
329.00,148.03,1
316.00,156.30,1
301.00,167.84,1
370.00,181.69,1
370.00,197.86,1
296.00,215.22,1
414.00,232.66,1
426.00,251.04,1
406.00,270.57,1
436.00,290.29,1
223.00,308.07,1
306.00,321.22,1
174.00,328.85,1
177.00,330.61,1
209.00,327.13,1
210.00,320.28,1
148.00,310.91,1
57.00,298.18,1
101.00,281.57,1
95.00,262.54,1
163.00,243.16,1
65.00,224.42,1
57.00,205.62,1
155.00,187.31,1
201.00,171.90,1
150.00,160.36,1
164.00,151.78,1
263.00,146.37,1
210.00,144.89,1
293.00,147.03,1
293.00,152.80,1
264.00,161.60,1
431.00,173.31,1
440.00,189.38,1
399.00,209.49,1
452.00,231.79,1
628.00,257.09,1
325.00,284.58,1
414.00,310.04,1
338.00,331.46,1
304.00,348.29,1
187.00,358.93,1
362.00,363.73,1
206.00,364.59,1
213.00,361.37,1
79.00,352.86,1
119.00,338.70,1
128.00,320.39,1
72.00,299.57,1
151.00,277.25,1
104.00,255.07,1
76.00,233.39,1
61.00,211.80,1
50.00,190.44,1
49.00,169.66,1
64.00,150.01,1
52.00,132.01,1
322.00,118.00,1
220.00,111.05,1
381.00,111.49,1
258.00,118.46,1
373.00,130.36,1
373.00,146.48,1
360.00,166.11,1
277.00,186.85,1
508.00,208.17,1
414.00,231.63,1
414.00,256.31,1
219.00,278.66,1
538.00,297.92,1
340.00,316.26,1
383.00,332.97,1
243.00,345.81,1
172.00,352.67,1
142.00,352.29,1
119.00,345.14,1
204.00,333.07,1
83.00,317.94,1
238.00,300.97,1
268.00,284.97,1
73.00,270.39,1
43.00,254.15,1
53.00,235.11,1
124.00,215.10,1
66.00,195.81,1
162.00,178.14,1
178.00,163.51,1
296.00,153.73,1
342.00,150.48,1
211.00,152.87,1
275.00,158.25,1
459.00,167.24,1
485.00,182.38,1
373.00,202.88,1
489.00,225.94,1
368.00,250.21,1
422.00,274.01,1
338.00,295.85,1
351.00,314.64,1
340.00,329.92,1
438.00,342.77,1
231.00,353.15,1
336.00,359.60,1
254.00,362.18,1
178.00,360.61,1
213.00,354.34,1
165.00,344.16,1
168.00,330.88,1
82.00,314.66,1
150.00,295.93,1
144.00,276.28,1
102.00,256.63,1
72.00,236.71,1
42.00,216.14,1
145.00,195.83,1
90.00,177.40,1
133.00,161.32,1
197.00,148.34,1
229.00,139.80,1
280.00,136.44,1
301.00,138.37,1
382.00,145.71,1
357.00,158.20,1
359.00,174.56,1
353.00,193.04,1
450.00,213.22,1
378.00,234.99,1
391.00,256.95,1
294.00,277.16,1
265.00,293.65,1
251.00,305.35,1
323.00,313.12,1
203.00,317.75,1
324.00,319.46,1
233.00,319.13,1
154.00,316.12,1
231.00,309.72,1
116.00,300.61,1
154.00,288.85,1
64.00,274.40,1
60.00,257.21,1
87.00,237.83,1
75.00,217.80,1
47.00,197.69,1
98.00,178.09,1
153.00,160.57,1
175.00,146.72,1
308.00,138.11,1
286.00,135.95,1
291.00,139.50,1
267.00,147.01,1
328.00,157.38,1
399.00,171.02,1
422.00,188.47,1
548.00,210.46,1
396.00,236.04,1
427.00,262.28,1
288.00,286.28,1
405.00,306.69,1
292.00,323.55,1
314.00,336.43,1
355.00,345.64,1
174.00,351.12,1
304.00,351.99,1
208.00,349.20,1
238.00,343.45,1
90.00,334.12,1
192.00,321.01,1
76.00,305.01,1
93.00,286.33,1
54.00,265.31,1
70.00,242.76,1
108.00,220.08,1
46.00,198.32,1
139.00,178.01,1
172.00,160.79,1
334.00,149.12,1
267.00,144.55,1
320.00,146.08,1
340.00,152.73,1
266.00,163.24,1
386.00,176.28,1
315.00,191.57,1
346.00,208.12,1
285.00,224.50,1
347.00,239.97,1
360.00,254.86,1
382.00,269.75,1
282.00,283.78,1
332.00,295.62,1
254.00,304.76,1
292.00,310.98,1
242.00,314.35,1
162.00,314.24,1
264.00,310.64,1
115.00,304.27,1
115.00,294.39,1
79.00,280.58,1
117.00,264.03,1
40.00,245.61,1
91.00,225.87,1
64.00,205.79,1
109.00,186.45,1
94.00,168.71,1
197.00,153.73,1
182.00,142.82,1
264.00,136.66,1
250.00,135.43,1
315.00,138.94,1
424.00,147.75,1
331.00,161.89,1
379.00,179.43,1
425.00,199.34,1
303.00,220.52,1
418.00,241.32,1
388.00,261.76,1
439.00,282.13,1
384.00,301.93,1
502.00,321.11,1
314.00,339.14,1
374.00,354.06,1
243.00,364.46,1
265.00,369.65,1
219.00,369.55,1
252.00,365.13,1
222.00,357.47,1
175.00,346.99,1
109.00,333.21,1
38.00,315.16,1
36.00,292.79,1
55.00,267.51,1
57.00,241.14,1
134.00,215.65,1
219.00,193.64,1
192.00,176.84,1
189.00,164.80,1
245.00,156.93,1
337.00,154.13,1
300.00,157.05,1
311.00,164.35,1
345.00,174.90,1
422.00,188.87,1
305.00,205.58,1
480.00,223.95,1
380.00,244.14,1
410.00,265.03,1
302.00,284.57,1
447.00,302.09,1
391.00,318.52,1
373.00,333.72,1
211.00,345.39,1
330.00,352.17,1
241.00,354.89,1
158.00,353.15,1
173.00,346.16,1
215.00,335.34,1
199.00,322.62,1
200.00,309.02,1
131.00,294.52,1
74.00,278.20,1
154.00,260.17,1
116.00,241.99,1
150.00,224.60,1
97.00,208.20,1
147.00,192.90,1
214.00,179.90,1
422.00,172.34,1
288.00,172.03,1
326.00,177.08,1
321.00,185.48,1
295.00,196.17,1
386.00,208.53,1
392.00,223.06,1
412.00,239.79,1
395.00,257.93,1
332.00,275.86,1
530.00,293.54,1
362.00,311.77,1
409.00,329.06,1
376.00,344.18,1
305.00,356.39,1
298.00,364.52,1
312.00,368.67,1
243.00,369.24,1
158.00,365.40,1
159.00,356.29,1
194.00,343.13,1
190.00,327.84,1
38.00,310.47,1
127.00,290.25,1
81.00,268.37,1
57.00,245.76,1
127.00,223.11,1
40.00,201.43,1
197.00,181.63,1
175.00,165.60,1
249.00,154.54,1
273.00,148.88,1
279.00,148.54,1
368.00,153.24,1
485.00,164.30,1
436.00,181.97,1
340.00,203.44,1
408.00,225.67,1
339.00,247.44,1
452.00,268.54,1
382.00,289.10,1
350.00,308.12,1
315.00,323.94,1
346.00,336.19,1
273.00,344.96,1
304.00,350.08,1
284.00,352.02,1
231.00,350.91,1
206.00,346.31,1
106.00,337.57,1
130.00,324.19,1
40.00,306.71,1
79.00,285.66,1
74.00,262.44,1
47.00,238.33,1
62.00,214.06,1
228.00,191.83,1
119.00,173.86,1
177.00,159.76,1
187.00,149.21,1
221.00,142.62,1
255.00,140.25,1
284.00,142.21,1
259.00,147.91,1
346.00,156.86,1
370.00,169.44,1
452.00,186.11,1
387.00,206.34,1
454.00,228.79,1
392.00,252.22,1
386.00,275.09,1
330.00,295.75,1
414.00,313.73,1
263.00,328.77,1
285.00,339.42,1
229.00,345.10,1
226.00,346.04,1
187.00,342.51,1
119.00,334.44,1
220.00,322.62,1
83.00,308.26,1
95.00,291.17,1
38.00,271.13,1
100.00,249.20,1
73.00,226.86,1
73.00,205.04,1
38.00,183.79,1
71.00,163.39,1
179.00,145.46,1
261.00,132.76,1
227.00,126.42,1
234.00,125.22,1
327.00,128.71,1
418.00,137.86,1
346.00,152.81,1
336.00,171.18,1
294.00,190.31,1
402.00,209.56,1
375.00,229.49,1
428.00,250.13,1
332.00,270.50,1
338.00,288.85,1
317.00,304.20,1
420.00,317.31,1
361.00,329.34,1
248.00,339.08,1
254.00,344.45,1
180.00,344.88,1
152.00,340.07,1
55.00,329.61,1
226.00,314.76,1
90.00,298.02,1
53.00,279.23,1
85.00,258.03,1
82.00,235.88,1
51.00,213.75,1
169.00,192.78,1
211.00,175.44,1
177.00,162.82,1
227.00,154.39,1
251.00,150.15,1
280.00,150.32,1
388.00,155.42,1
340.00,165.67,1
356.00,179.77,1
284.00,195.57,1
318.00,211.37,1
402.00,227.30,1
355.00,244.08,1
351.00,260.86,1
434.00,277.33,1
358.00,293.72,1
450.00,309.72,1
271.00,324.27,1
239.00,334.78,1
175.00,339.26,1
184.00,337.82,1
180.00,331.52,1
132.00,321.29,1
195.00,308.20,1
123.00,293.39,1
112.00,276.95,1
50.00,258.60,1
89.00,238.61,1
88.00,218.18,1
83.00,198.27,1
162.00,180.04,1
127.00,164.64,1
215.00,152.73,1
236.00,145.20,1
249.00,142.39,1
267.00,143.85,1
319.00,149.33,1
371.00,159.08,1
434.00,173.61,1
466.00,193.00,1
326.00,215.30,1
336.00,237.15,1
384.00,257.32,1
378.00,276.40,1
267.00,293.38,1
383.00,307.29,1
258.00,318.36,1
308.00,326.21,1
310.00,331.18,1
235.00,333.63,1
257.00,333.05,1
100.00,328.63,1
190.00,319.79,1
45.00,306.76,1
134.00,290.18,1
51.00,271.01,1
69.00,249.99,1
41.00,227.63,1
174.00,205.80,1
51.00,186.04,1
67.00,167.69,1
241.00,151.73,1
220.00,140.92,1
244.00,135.65,1
171.00,134.43,1
182.00,135.38,1
284.00,138.42,1
319.00,145.06,1
382.00,156.11,1
359.00,171.25,1
424.00,189.69,1
350.00,210.36,1
398.00,231.69,1
361.00,252.69,1
380.00,272.70,1
282.00,290.50,1
313.00,304.81,1
197.00,314.69,1
265.00,319.83,1
203.00,320.88,1
197.00,318.16,1
176.00,311.99,1
37.00,301.84,1
104.00,287.03,1
95.00,269.05,1
160.00,250.26,1
108.00,232.04,1
59.00,214.11,1
39.00,195.62,1
40.00,176.55,1
85.00,157.92,1
106.00,141.15,1
208.00,127.90,1
234.00,119.84,1
304.00,117.92,1
262.00,121.71,1
309.00,129.93,1
352.00,142.02,1
441.00,158.62,1
328.00,178.89,1
367.00,200.48,1
395.00,222.29,1
302.00,243.57,1
467.00,263.79,1
381.00,283.78,1
383.00,302.93,1
294.00,319.38,1
486.00,333.37,1
301.00,345.93,1
319.00,355.66,1
224.00,360.92,1
262.00,361.51,1
169.00,357.54,1
119.00,348.63,1
115.00,334.61,1
93.00,316.58,1
127.00,295.93,1
54.00,273.77,1
61.00,250.35,1
72.00,226.32,1
172.00,203.70,1
189.00,184.79,1
176.00,170.34,1
170.00,159.59,1
115.00,151.38,1
310.00,146.00,1
397.00,146.48,1
310.00,153.68,1
301.00,164.97,1
333.00,178.40,1
370.00,193.73,1
256.00,209.95,1
407.00,225.97,1
382.00,242.68,1
444.00,260.73,1
239.00,278.29,1
427.00,293.57,1
298.00,306.99,1
413.00,318.90,1
217.00,328.49,1
265.00,334.08,1
256.00,335.59,1
121.00,333.07,1
200.00,325.84,1
77.00,314.52,1
68.00,298.98,1
53.00,279.40,1
59.00,257.20,1
70.00,233.83,1
146.00,211.17,1
203.00,191.63,1
162.00,176.34,1
112.00,164.18,1
154.00,153.97,1
294.00,147.03,1
291.00,145.42,1
285.00,149.03,1
294.00,156.37,1
321.00,166.67,1
367.00,179.75,1
317.00,195.13,1
350.00,211.53,1
310.00,227.95,1
354.00,243.83,1
343.00,259.09,1
435.00,274.30,1
302.00,289.32,1
338.00,302.55,1
316.00,313.29,1
251.00,321.20,1
226.00,325.20,1
174.00,324.72,1
217.00,320.18,1
139.00,312.34,1
224.00,301.96,1
41.00,289.27,1
130.00,273.68,1
64.00,255.76,1
68.00,236.35,1
48.00,215.82,1
64.00,194.94,1
116.00,175.06,1
219.00,158.42,1
263.00,147.34,1
348.00,143.09,1
316.00,145.71,1
346.00,153.97,1
392.00,166.69,1
327.00,182.86,1
404.00,201.05,1
358.00,220.60,1
399.00,240.72,1
378.00,260.74,1
347.00,279.79,1
411.00,297.26,1
272.00,312.63,1
422.00,325.34,1
288.00,335.84,1
458.00,344.75,1
150.00,351.30,1
104.00,351.77,1
197.00,345.10,1
100.00,333.58,1
174.00,318.43,1
58.00,300.59,1
102.00,280.36,1
118.00,258.81,1
84.00,237.37,1
81.00,216.26,1
151.00,196.33,1
135.00,178.98,1
195.00,164.95,1
216.00,154.98,1
112.00,148.41,1
290.00,144.54,1
297.00,145.00,1
341.00,150.73,1
331.00,160.92,1
370.00,174.68,1
704.00,194.01,1
383.00,220.23,1
437.00,248.64,1
342.00,275.22,1
437.00,299.22,1
290.00,320.01,1
225.00,335.48,1
224.00,344.13,1
284.00,347.20,1
180.00,346.11,1
204.00,340.88,1
180.00,331.93,1
127.00,319.88,1
154.00,305.00,1
84.00,287.82,1
84.00,268.58,1
56.00,247.64,1
89.00,225.81,1
104.00,204.55,1
178.00,185.56,1
168.00,170.19,1
145.00,158.32,1
190.00,149.41,1
187.00,143.60,1
379.00,142.23,1
320.00,146.90,1
370.00,157.12,1
335.00,171.19,1
362.00,187.84,1
352.00,205.92,1
393.00,224.90,1
297.00,243.74,1
383.00,261.34,1
458.00,278.65,1
298.00,295.77,1
411.00,311.12,1
280.00,324.07,1
328.00,333.94,1
133.00,339.19,1
249.00,338.96,1
198.00,334.43,1
302.00,327.75,1
253.00,320.55,1
52.00,311.61,1
191.00,299.08,1
226.00,285.10,1
56.00,270.83,1
142.00,255.01,1
83.00,238.05,1
66.00,220.39,1
101.00,202.28,1
127.00,185.09,1
150.00,170.08,1
238.00,158.54,1
282.00,152.05,1
297.00,151.17,1
286.00,155.14,1
107.00,161.10,1
440.00,168.07,1
379.00,179.17,1
451.00,195.35,1
318.00,214.42,1
391.00,234.08,1
325.00,253.07,1
383.00,270.90,1
324.00,287.19,1
396.00,301.87,1
200.00,313.93,1
284.00,321.66,1
176.00,324.64,1
166.00,322.78,1
238.00,316.89,1
254.00,309.32,1
94.00,300.27,1
100.00,287.94,1
148.00,272.69,1
56.00,255.81,1
37.00,236.97,1
148.00,217.12,1
94.00,198.38,1
127.00,181.41,1
168.00,166.78,1
170.00,155.37,1
172.00,147.20,1
185.00,141.90,1
269.00,139.88,1
285.00,142.11,1
388.00,149.25,1
418.00,161.91,1
483.00,180.30,1
257.00,201.90,1
350.00,222.78,1
410.00,242.57,1
411.00,262.66,1
343.00,282.28,1
320.00,299.56,1
275.00,313.19,1
323.00,323.04,1
316.00,330.08,1
343.00,335.25,1
266.00,338.57,1
216.00,338.90,1
204.00,335.39,1
135.00,327.88,1
74.00,315.85,1
52.00,299.07,1
146.00,279.11,1
48.00,257.96,1
52.00,235.79,1
143.00,213.56,1
136.00,193.52,1
92.00,176.08,1
136.00,160.78,1
174.00,148.28,1
220.00,139.69,1
207.00,135.34,1
309.00,135.33,1
264.00,139.86,1
290.00,148.05,1
405.00,159.72,1
375.00,175.50,1
372.00,194.38,1
383.00,214.74,1
386.00,235.71,1
469.00,257.33,1
324.00,278.85,1
406.00,298.58,1
236.00,315.04,1
314.00,326.99,1
243.00,334.43,1
301.00,338.15,1
215.00,338.55,1
108.00,334.60,1
244.00,326.15,1
158.00,315.20,1
157.00,302.33,1
48.00,286.83,1
67.00,268.24,1
39.00,247.01,1
39.00,224.22,1
75.00,201.08,1
250.00,180.46,1
149.00,164.83,1
136.00,153.15,1
311.00,145.31,1
301.00,143.27,1
266.00,146.73,1
326.00,154.07,1
171.00,163.57,1
381.00,174.05,1
367.00,186.98,1
406.00,203.17,1
337.00,221.28,1
468.00,240.53,1
336.00,260.50,1
364.00,279.51,1
247.00,295.55,1
286.00,307.41,1
296.00,315.44,1
248.00,320.43,1
306.00,322.72,1
166.00,322.28,1
223.00,318.35,1
141.00,311.08,1
212.00,301.22,1
101.00,289.28,1
145.00,275.29,1
50.00,259.23,1
87.00,241.16,1
80.00,221.93,1
104.00,202.89,1
116.00,185.04,1
160.00,169.46,1
169.00,157.02,1
108.00,147.38,1
232.00,140.29,1
357.00,137.98,1
298.00,141.96,1
388.00,151.37,1
402.00,165.79,1
435.00,184.74,1
401.00,206.87,1
374.00,230.21,1
316.00,252.46,1
358.00,272.28,1
304.00,289.39,1
352.00,303.71,1
215.00,314.66,1
245.00,321.02,1
265.00,323.25,1
274.00,322.91,1
229.00,320.58,1
114.00,315.17,1
210.00,306.14,1
43.00,293.90,1
113.00,278.23,1
75.00,259.93,1
76.00,240.26,1
120.00,220.20,1
87.00,201.02,1
119.00,183.19,1
191.00,167.86,1
265.00,157.02,1
289.00,151.93,1
314.00,152.67,1
433.00,159.41,1
337.00,171.80,1
388.00,187.99,1
312.00,205.85,1
334.00,223.76,1
384.00,241.28,1
364.00,258.73,1
426.00,276.13,1
404.00,293.64,1
268.00,309.65,1
286.00,321.71,1
198.00,328.79,1
192.00,330.46,1
206.00,327.35,1
222.00,320.98,1
183.00,312.39,1
135.00,301.50,1
206.00,288.73,1
41.00,274.37,1
86.00,257.42,1
156.00,239.06,1
68.00,221.07,1
93.00,203.24,1
188.00,186.62,1
199.00,173.35,1
160.00,163.71,1
197.00,156.89,1
245.00,153.14,1
312.00,153.49,1
304.00,158.37,1
342.00,167.31,1
356.00,179.68,1
356.00,194.83,1
383.00,211.91,1
394.00,230.41,1
459.00,250.38,1
383.00,271.27,1
447.00,292.00,1
338.00,311.45,1
280.00,327.53,1
158.00,337.65,1
303.00,341.56,1
208.00,341.29,1
187.00,337.30,1
203.00,329.63,1
45.00,318.13,1
154.00,302.58,1
132.00,284.75,1
52.00,265.66,1
54.00,244.75,1
62.00,222.61,1
140.00,201.06,1
168.00,182.25,1
133.00,166.97,1
232.00,155.34,1
331.00,149.05,1
235.00,148.70,1
131.00,151.20,1
345.00,155.07,1
345.00,162.56,1
339.00,174.20,1
160.00,187.06,1
478.00,200.07,1
355.00,215.48,1
499.00,233.97,1
412.00,254.91,1
458.00,277.11,1
387.00,298.98,1
380.00,319.04,1
346.00,336.07,1
207.00,348.48,1
283.00,355.00,1
197.00,356.25,1
256.00,353.15,1
204.00,346.61,1
225.00,337.55,1
54.00,325.31,1
186.00,309.59,1
52.00,291.36,1
38.00,270.59,1
58.00,247.34,1
94.00,223.53,1
132.00,201.17,1
44.00,180.82,1
223.00,163.05,1
195.00,149.82,1
323.00,142.62,1
283.00,141.75,1
361.00,146.72,1
375.00,157.14,1
285.00,171.41,1
402.00,187.70,1
344.00,205.71,1
340.00,224.43,1
359.00,242.66,1
385.00,260.42,1
354.00,277.57,1
309.00,293.01,1
139.00,304.23,1
328.00,310.28,1
108.00,312.10,1
225.00,309.52,1
172.00,303.39,1
154.00,294.71,1
128.00,283.40,1
86.00,269.57,1
121.00,253.65,1
44.00,236.17,1
69.00,217.40,1
43.00,197.78,1
61.00,178.11,1
89.00,159.38,1
111.00,142.78,1
156.00,129.30,1
126.00,119.33,1
224.00,113.02,1
202.00,110.87,1
303.00,113.24,1
266.00,120.17,1
310.00,130.90,1
354.00,144.97,1
314.00,161.85,1
384.00,180.69,1
419.00,201.43,1
404.00,223.97,1
345.00,246.73,1
426.00,268.43,1
382.00,289.11,1
326.00,307.80,1
215.00,322.16,1
276.00,330.93,1
202.00,334.60,1
229.00,333.80,1
102.00,328.45,1
91.00,317.79,1
145.00,302.68,1
97.00,285.09,1
113.00,266.00,1
49.00,245.76,1
58.00,224.46,1
186.00,203.76,1
35.00,185.12,1
156.00,168.24,1
148.00,153.94,1
265.00,143.94,1
212.00,138.96,1
360.00,139.30,1
398.00,146.04,1
372.00,159.03,1
382.00,176.25,1
294.00,195.35,1
305.00,213.96,1
368.00,231.57,1
368.00,248.96,1
306.00,265.60,1
325.00,280.25,1
322.00,292.68,1
305.00,302.98,1
314.00,311.09,1
225.00,316.56,1
252.00,318.61,1
127.00,316.70,1
194.00,310.56,1
56.00,300.27,1
64.00,285.59,1
90.00,267.20,1
170.00,247.75,1
45.00,228.70,1
79.00,209.47,1
44.00,189.92,1
253.00,172.25,1
180.00,159.16,1
178.00,150.48,1
54.00,143.80,1
259.00,138.48,1
284.00,136.93,1
275.00,140.39,1
308.00,147.79,1
458.00,159.66,1
223.00,175.47,1
533.00,193.59,1
438.00,215.24,1
372.00,239.29,1
247.00,261.46,1
266.00,279.03,1
339.00,292.38,1
302.00,303.16,1
233.00,311.05,1
291.00,315.50,1
180.00,316.69,1
216.00,314.29,1
232.00,309.08,1
223.00,302.34,1
76.00,293.41,1
127.00,281.06,1
132.00,266.19,1
51.00,249.69,1
67.00,231.37,1
53.00,211.75,1
62.00,191.72,1
171.00,173.05,1
121.00,157.48,1
311.00,146.46,1
266.00,141.57,1
263.00,142.35,1
414.00,148.16,1
157.00,158.04,1
346.00,169.21,1
296.00,181.58,1
356.00,195.69,1
377.00,211.39,1
406.00,228.89,1
236.00,246.42,1
374.00,261.95,1
293.00,275.65,1
431.00,288.43,1
251.00,300.23,1
310.00,309.55,1
134.00,314.72,1
189.00,314.48,1
181.00,309.67,1
141.00,301.52,1
168.00,290.50,1
68.00,277.05,1
140.00,261.31,1
63.00,244.09,1
73.00,225.69,1
116.00,206.94,1
77.00,189.01,1
164.00,172.71,1
166.00,159.34,1
251.00,150.10,1
306.00,146.19,1
262.00,147.74,1
294.00,153.35,1
306.00,162.15,1
375.00,174.07,1
215.00,187.88,1
520.00,203.16,1
380.00,221.55,1
397.00,242.08,1
365.00,262.39,1
286.00,280.83,1
239.00,295.29,1
284.00,305.18,1
275.00,311.56,1
290.00,315.40,1
188.00,316.51,1
123.00,313.42,1
191.00,305.89,1
227.00,296.13,1
169.00,285.66,1
77.00,273.57,1
106.00,258.90,1
78.00,242.25,1
44.00,224.13,1
56.00,204.78,1
44.00,184.99,1
86.00,165.74,1
192.00,149.01,1
213.00,137.05,1
208.00,130.27,1
254.00,128.15,1
147.00,129.45,1
165.00,132.06,1
364.00,136.62,1
262.00,145.16,1
333.00,156.99,1
124.00,169.47,1
335.00,180.93,1
189.00,191.78,1
371.00,202.64,1
362.00,214.90,1
490.00,230.23,1
298.00,247.82,1
356.00,264.92,1
223.00,279.35,1
245.00,289.73,1
219.00,295.71,1
99.00,296.89,1
211.00,293.19,1
83.00,285.64,1
126.00,274.63,1
44.00,260.21,1
106.00,243.28,1
65.00,224.99,1
118.00,206.56,1
106.00,189.09,1
189.00,173.86,1
275.00,162.83,1
327.00,157.88,1
338.00,159.36,1
211.00,165.33,1
255.00,172.78,1
399.00,181.98,1
328.00,194.41,1
356.00,209.14,1
222.00,223.86,1
377.00,237.36,1
396.00,251.15,1
407.00,266.35,1
276.00,281.39,1
400.00,294.75,1
276.00,306.33,1
337.00,315.66,1
296.00,322.60,1
192.00,326.48,1
187.00,325.83,1
187.00,320.76,1
282.00,313.23,1
104.00,304.23,1
136.00,292.51,1
64.00,277.49,1
103.00,259.96,1
84.00,240.93,1
58.00,221.17,1
91.00,201.25,1
79.00,182.07,1
107.00,164.41,1
195.00,149.59,1
339.00,140.28,1
317.00,138.39,1
307.00,142.96,1
283.00,151.73,1
410.00,163.98,1
346.00,179.85,1
380.00,198.26,1
262.00,217.01,1
386.00,234.74,1
395.00,252.30,1
343.00,269.84,1
371.00,286.26,1
74.00,298.83,1
318.00,305.45,1
247.00,308.31,1
197.00,308.61,1
226.00,305.78,1
116.00,299.84,1
191.00,290.78,1
47.00,278.75,1
130.00,263.85,1
79.00,247.03,1
92.00,229.21,1
60.00,210.75,1
72.00,192.09,1
107.00,174.15,1
75.00,157.72,1
174.00,143.58,1
78.00,132.24,1
297.00,124.43,1
239.00,121.88,1
294.00,124.78,1
322.00,132.34,1
252.00,143.54,1
380.00,157.26,1
379.00,173.95,1
387.00,193.47,1
322.00,214.13,1
359.00,234.22,1
334.00,253.12,1
291.00,270.00,1
273.00,283.74,1
380.00,294.86,1
42.00,302.42,1
224.00,303.86,1
227.00,300.81,1
170.00,295.56,1
208.00,288.21,1
171.00,279.36,1
152.00,269.17,1
52.00,256.82,1
67.00,241.63,1
85.00,224.37,1
37.00,206.07,1
65.00,187.23,1
92.00,168.86,1
54.00,151.82,1
93.00,136.27,1
116.00,122.89,1
182.00,112.87,1
240.00,107.47,1
260.00,107.50,1
263.00,112.43,1
256.00,121.04,1
330.00,132.73,1
300.00,147.29,1
286.00,163.56,1
323.00,180.44,1
225.00,196.87,1
411.00,212.65,1
240.00,228.25,1
306.00,242.45,1
236.00,254.22,1
302.00,263.69,1
190.00,270.68,1
154.00,273.98,1
226.00,273.42,1
305.00,271.49,1
180.00,269.43,1
88.00,265.18,1
83.00,256.77,1
47.00,244.40,1
114.00,229.35,1
105.00,213.48,1
106.00,197.89,1
64.00,182.65,1
255.00,169.07,1
157.00,159.25,1
149.00,152.46,1
224.00,147.89,1
235.00,146.47,1
298.00,148.77,1
275.00,154.78,1
264.00,163.43,1
289.00,173.65,1
327.00,185.36,1
339.00,198.76,1
306.00,213.20,1
223.00,226.83,1
271.00,238.13,1
317.00,247.80,1
246.00,256.46,1
130.00,262.29,1
241.00,264.22,1
161.00,263.34,1
135.00,259.69,1
36.00,252.17,1
92.00,240.56,1
73.00,226.11,1
62.00,210.14,1
40.00,193.04,1
39.00,175.15,1
107.00,157.63,1
44.00,141.57,1
123.00,127.31,1
188.00,116.22,1
154.00,109.35,1
196.00,106.23,1
332.00,107.59,1
201.00,113.81,1
334.00,123.62,1
398.00,137.47,1
324.00,155.55,1
380.00,175.98,1
256.00,196.76,1
391.00,216.66,1
253.00,235.29,1
319.00,251.72,1
241.00,265.24,1
290.00,275.74,1
300.00,283.87,1
240.00,290.00,1
178.00,292.95,1
189.00,291.99,1
243.00,288.23,1
175.00,282.85,1
204.00,275.99,1
101.00,267.30,1
72.00,255.82,1
52.00,241.07,1
134.00,224.44,1
112.00,207.94,1
55.00,191.92,1
135.00,176.36,1
197.00,163.02,1
193.00,153.49,1
275.00,148.24,1
308.00,148.04,1
250.00,152.44,1
346.00,160.30,1
373.00,171.82,1
221.00,185.72,1
299.00,199.37,1
307.00,212.46,1
359.00,225.88,1
366.00,240.09,1
348.00,254.89,1
328.00,269.20,1
310.00,282.04,1
258.00,292.43,1
278.00,299.77,1
153.00,303.42,1
169.00,302.31,1
191.00,297.09,1
137.00,288.99,1
140.00,278.20,1
69.00,264.80,1
98.00,249.00,1
81.00,231.54,1
103.00,213.64,1
92.00,196.11,1
157.00,179.96,1
74.00,165.71,1
63.00,152.44,1
135.00,140.08,1
294.00,131.25,1
284.00,128.49,1
258.00,131.46,1
201.00,137.69,1
328.00,146.05,1
255.00,156.75,1
265.00,168.81,1
283.00,181.21,1
347.00,194.37,1
323.00,208.69,1
257.00,223.03,1
264.00,235.65,1
410.00,247.33,1
242.00,259.00,1
295.00,269.14,1
193.00,276.40,1
195.00,279.99,1
79.00,278.96,1
204.00,273.55,1
202.00,266.09,1
136.00,257.76,1
122.00,247.83,1
89.00,235.99,1
71.00,222.25,1
55.00,206.85,1
83.00,190.48,1
54.00,174.02,1
173.00,158.76,1
143.00,146.40,1
182.00,137.48,1
229.00,132.24,1
199.00,130.80,1
162.00,131.89,1
292.00,135.07,1
197.00,140.85,1
340.00,149.09,1
203.00,159.37,1
335.00,170.87,1
296.00,183.63,1
400.00,198.21,1
163.00,213.15,1
327.00,226.16,1
326.00,238.02,1
316.00,249.85,1
104.00,259.35,1
217.00,264.12,1
181.00,264.93,1
197.00,263.17,1
101.00,258.73,1
55.00,250.55,1
148.00,239.01,1
63.00,225.73,1
188.00,212.01,1
75.00,198.82,1
75.00,185.64,1
58.00,171.84,1
79.00,157.91,1
76.00,144.53,1
92.00,132.24,1
133.00,121.78,1
124.00,113.78,1
134.00,108.18,1
276.00,105.91,1
278.00,108.63,1
288.00,116.32,1
203.00,127.08,1
356.00,139.72,1
266.00,154.43,1
364.00,170.87,1
366.00,188.95,1
384.00,208.64,1
336.00,228.86,1
427.00,248.91,1
367.00,268.78,1
372.00,287.67,1
176.00,303.16,1
239.00,312.82,1
102.00,316.08,1
216.00,313.51,1
167.00,306.93,1
103.00,297.18,1
159.00,284.33,1
45.00,269.01,1
60.00,251.04,1
41.00,230.82,1
46.00,209.36,1
73.00,187.81,1
57.00,167.28,1
162.00,149.04,1
173.00,134.83,1
219.00,125.58,1
129.00,120.49,1
185.00,118.10,1
286.00,118.87,1
248.00,123.92,1
287.00,132.49,1
298.00,143.87,1
354.00,158.05,1
179.00,173.38,1
344.00,188.02,1
326.00,202.79,1
337.00,218.33,1
308.00,233.71,1
334.00,248.33,1
153.00,260.54,1
312.00,269.08,1
165.00,274.47,1
198.00,276.39,1
236.00,275.29,1
266.00,273.08,1
128.00,269.76,1
40.00,263.00,1
64.00,251.39,1
39.00,235.96,1
122.00,218.63,1
54.00,201.02,1
94.00,183.67,1
50.00,166.79,1
143.00,151.22,1
114.00,138.11,1
132.00,127.74,1
240.00,120.74,1
224.00,118.32,1
294.00,120.74,1
308.00,127.84,1
321.00,139.21,1
306.00,153.59,1
264.00,169.38,1
367.00,185.73,1
356.00,203.20,1
356.00,221.69,1
291.00,239.64,1
371.00,256.18,1
279.00,271.14,1
325.00,283.90,1
218.00,293.70,1
196.00,299.30,1
171.00,300.11,1
206.00,296.96,1
220.00,291.40,1
78.00,283.48,1
128.00,272.25,1
54.00,257.89,1
64.00,240.90,1
77.00,222.18,1
52.00,202.84,1
63.00,183.43,1
153.00,165.36,1
103.00,150.06,1
126.00,137.48,1
110.00,127.22,1
336.00,120.83,1
244.00,120.48,1
258.00,125.13,1
309.00,133.43,1
386.00,145.72,1
250.00,161.25,1
410.00,178.45,1
325.00,197.16,1
418.00,217.05,1
345.00,237.43,1
369.00,257.28,1
172.00,274.22,1
369.00,286.96,1
230.00,296.56,1
389.00,304.13,1
175.00,309.61,1
260.00,311.81,1
258.00,311.05,1
147.00,307.84,1
150.00,301.05,1
103.00,290.47,1
121.00,276.73,1
40.00,260.34,1
74.00,241.52,1
49.00,221.16,1
94.00,200.58,1
68.00,180.84,1
58.00,162.24,1
68.00,144.83,1
173.00,129.85,1
131.00,118.68,1
212.00,111.64,1
232.00,109.14,1
150.00,110.45,1
311.00,114.80,1
347.00,123.60,1
249.00,136.53,1
322.00,151.46,1
298.00,167.67,1
346.00,184.88,1
313.00,202.59,1
242.00,219.40,1
261.00,233.67,1
372.00,246.18,1
324.00,258.55,1
272.00,270.08,1
214.00,278.85,1
256.00,284.18,1
210.00,286.55,1
189.00,286.03,1
215.00,282.80,1
158.00,277.37,1
89.00,269.20,1
38.00,257.14,1
108.00,241.69,1
54.00,224.52,1
49.00,206.21,1
161.00,188.05,1
118.00,172.08,1
175.00,158.99,1
217.00,149.45,1
223.00,144.19,1
165.00,142.28,1
312.00,143.26,1
383.00,148.95,1
351.00,160.18,1
275.00,174.62,1
391.00,190.48,1
402.00,208.37,1
202.00,226.64,1
354.00,242.62,1
169.00,255.65,1
300.00,265.31,1
226.00,272.12,1
260.00,276.64,1
216.00,278.85,1
524.00,281.37,1
216.00,286.23,1
133.00,289.48,1
196.00,287.93,1
44.00,281.95,1
132.00,271.45,1
54.00,257.52,1
124.00,241.41,1
101.00,224.51,1
88.00,207.65,1
110.00,191.18,1
142.00,176.07,1
110.00,162.94,1
216.00,152.34,1
189.00,145.29,1
236.00,141.99,1
255.00,142.35,1
308.00,146.62,1
331.00,154.95,1
315.00,166.84,1
300.00,180.76,1
366.00,195.93,1
274.00,211.75,1
280.00,226.66,1
327.00,240.09,1
334.00,252.83,1
319.00,265.02,1
305.00,276.07,1
145.00,284.22,1
305.00,288.47,1
171.00,289.81,1
186.00,288.16,1
207.00,283.58,1
188.00,277.25,1
188.00,269.61,1
68.00,260.09,1
115.00,247.88,1
70.00,233.44,1
111.00,217.79,1
64.00,201.65,1
78.00,185.31,1
121.00,169.60,1
156.00,155.99,1
153.00,145.32,1
52.00,136.66,1
178.00,129.16,1
188.00,124.12,1
262.00,122.93,1
241.00,125.82,1
264.00,132.16,1
407.00,142.30,1
292.00,156.68,1
421.00,174.12,1
298.00,193.47,1
360.00,213.18,1
259.00,231.66,1
346.00,248.17,1
265.00,262.55,1
354.00,274.97,1
240.00,285.35,1
309.00,293.25,1
147.00,297.83,1
200.00,298.09,1
139.00,294.09,1
129.00,286.35,1
156.00,275.58,1
68.00,262.51,1
112.00,247.23,1
40.00,230.13,1
122.00,212.12,1
127.00,194.82,1
73.00,178.94,1
105.00,164.08,1
151.00,150.95,1
117.00,140.30,1
171.00,132.17,1
167.00,126.79,1
264.00,124.85,1
252.00,127.08,1
348.00,133.84,1
296.00,144.87,1
337.00,159.01,1
205.00,174.24,1
349.00,189.11,1
217.00,203.40,1
405.00,217.35,1
322.00,231.94,1
250.00,246.09,1
283.00,257.84,1
386.00,268.18,1
254.00,277.99,1
256.00,285.76,1
147.00,289.77,1
300.00,290.22,1
184.00,288.67,1
130.00,284.54,1
180.00,277.11,1
44.00,266.69,1
89.00,252.90,1
51.00,236.25,1
119.00,218.33,1
152.00,201.14,1
168.00,186.32,1
176.00,174.39,1
92.00,164.61,1
246.00,156.75,1
186.00,151.99,1
287.00,150.81,1
309.00,153.77,1
355.00,161.48,1
278.00,172.74,1
343.00,185.97,1
292.00,200.32,1
200.00,213.92,1
439.00,226.54,1
300.00,240.03,1
428.00,254.45,1
223.00,268.41,1
302.00,279.85,1
146.00,287.32,1
221.00,290.22,1
182.00,289.19,1
196.00,285.28,1
200.00,279.26,1
93.00,271.14,1
101.00,260.00,1
41.00,245.71,1
42.00,228.58,1
70.00,209.55,1
46.00,190.04,1
69.00,170.84,1
86.00,152.83,1
190.00,137.67,1
116.00,126.41,1
192.00,118.75,1
342.00,116.01,1
306.00,119.87,1
336.00,129.52,1
284.00,143.09,1
387.00,159.31,1
240.00,177.08,1
374.00,195.02,1
288.00,212.77,1
329.00,229.79,1
286.00,245.31,1
370.00,259.49,1
275.00,272.45,1
320.00,283.53,1
118.00,291.10,1
220.00,293.62,1
177.00,291.88,1
232.00,287.54,1
160.00,281.37,1
121.00,272.95,1
84.00,261.51,1
60.00,247.07,1
55.00,230.05,1
75.00,211.56,1
67.00,192.70,1
127.00,174.80,1
53.00,158.50,1
216.00,144.59,1
168.00,134.65,1
196.00,128.83,1
297.00,127.20,1
216.00,130.08,1
201.00,135.67,1
258.00,142.68,1
295.00,151.70,1
266.00,162.75,1
294.00,175.01,1
302.00,188.11,1
336.00,202.07,1
162.00,215.38,1
292.00,226.24,1
167.00,234.56,1
321.00,240.96,1
256.00,246.66,1
207.00,251.44,1
218.00,254.08,1
264.00,255.18,1
118.00,254.74,1
176.00,251.58,1
245.00,246.77,1
110.00,241.36,1
229.00,235.01,1
42.00,227.43,1
47.00,217.09,1
94.00,203.98,1
62.00,189.76,1
92.00,175.21,1
68.00,160.95,1
119.00,147.65,1
175.00,136.65,1
82.00,128.32,1
270.00,122.77,1
252.00,121.77,1
232.00,125.29,1
281.00,132.06,1
246.00,141.47,1
273.00,152.57,1
328.00,165.20,1
284.00,179.36,1
311.00,194.19,1
282.00,208.86,1
266.00,222.54,1
325.00,235.00,1
254.00,246.37,1
207.00,255.46,1
239.00,261.39,1
109.00,263.83,1
172.00,262.15,1
93.00,256.70,1
62.00,247.55,1
59.00,234.72,1
55.00,219.11,1
120.00,202.36,1
56.00,185.85,1
104.00,169.93,1
112.00,155.32,1
173.00,143.21,1
87.00,133.79,1
102.00,125.91,1
144.00,119.36,1
149.00,114.90,1
266.00,113.55,1
236.00,116.38,1
312.00,123.35,1
238.00,133.68,1
320.00,146.25,1
346.00,161.17,1
292.00,177.93,1
369.00,195.49,1
238.00,212.89,1
334.00,228.82,1
322.00,243.51,1
393.00,257.97,1
226.00,271.44,1
329.00,282.41,1
222.00,290.57,1
175.00,294.99,1
140.00,294.48,1
151.00,289.37,1
72.00,280.16,1
83.00,266.99,1
155.00,251.40,1
42.00,234.83,1
111.00,217.33,1
63.00,199.56,1
39.00,181.77,1
45.00,163.78,1
84.00,146.47,1
126.00,131.27,1
159.00,119.47,1
47.00,110.63,1
164.00,103.71,1
280.00,100.44,1
250.00,102.67,1
275.00,109.73,1
292.00,120.48,1
254.00,133.85,1
473.00,150.16,1
327.00,170.17,1
378.00,192.15,1
333.00,214.23,1
314.00,235.16,1
286.00,253.60,1
303.00,269.05,1
68.00,279.81,1
235.00,284.29,1
127.00,283.81,1
224.00,279.90,1
218.00,274.25,1
132.00,267.44,1
127.00,258.42,1
246.00,248.25,1
127.00,238.48,1
53.00,227.76,1
42.00,214.31,1
77.00,198.80,1
58.00,182.53,1
130.00,166.82,1
176.00,153.45,1
193.00,143.78,1
151.00,137.57,1
241.00,134.42,1
183.00,134.31,1
153.00,136.08,1
262.00,139.16,1
206.00,144.23,1
217.00,150.67,1
344.00,158.74,1
380.00,170.25,1
243.00,184.50,1
304.00,198.88,1
268.00,212.49,1
300.00,225.23,1
331.00,237.38,1
301.00,249.24,1
87.00,258.43,1
269.00,263.01,1
181.00,264.43,1
162.00,263.34,1
118.00,258.97,1
242.00,252.40,1
122.00,245.02,1
35.00,235.63,1
75.00,222.89,1
70.00,207.89,1
54.00,191.88,1
38.00,175.12,1
140.00,158.79,1
127.00,144.80,1
207.00,134.35,1
230.00,128.35,1
385.00,128.26,1
108.00,133.06,1
145.00,138.49,1
304.00,143.83,1
349.00,152.23,1
424.00,165.33,1
216.00,181.49,1
275.00,197.15,1
416.00,212.30,1
309.00,228.54,1
336.00,244.67,1
275.00,259.23,1
323.00,271.72,1
219.00,281.63,1
217.00,287.93,1
236.00,290.55,1
179.00,290.06,1
167.00,286.42,1
180.00,279.91,1
132.00,271.12,1
50.00,259.52,1
137.00,245.16,1
73.00,229.36,1
72.00,212.68,1
38.00,195.07,1
51.00,176.82,1
51.00,158.69,1
128.00,141.99,1
94.00,127.93,1
217.00,117.41,1
267.00,112.11,1
248.00,112.60,1
179.00,117.04,1
353.00,124.45,1
348.00,136.19,1
346.00,152.21,1
265.00,170.11,1
428.00,188.89,1
318.00,208.80,1
333.00,228.59,1
338.00,247.00,1
355.00,264.10,1
218.00,278.82,1
384.00,290.49,1
219.00,299.71,1
446.00,307.30,1
156.00,313.37,1
151.00,315.13,1
82.00,310.55,1
61.00,299.92,1
96.00,284.44,1
118.00,266.37,1
184.00,248.08,1
151.00,231.22,1
45.00,215.16,1
110.00,198.73,1
219.00,183.66,1
267.00,172.90,1
135.00,166.36,1
229.00,162.25,1
293.00,161.10,1
227.00,163.53,1
380.00,169.33,1
311.00,178.89,1
440.00,192.23,1
285.00,208.27,1
383.00,225.10,1
264.00,241.33,1
430.00,256.80,1
359.00,272.35,1
293.00,287.08,1
45.00,296.93,1
226.00,299.53,1
160.00,296.93,1
106.00,290.47,1
246.00,281.05,1
54.00,269.91,1
56.00,255.88,1
46.00,238.48,1
48.00,218.89,1
57.00,198.40,1
61.00,178.08,1
39.00,158.53,1
80.00,140.25,1
208.00,125.08,1
168.00,114.98,1
259.00,110.16,1
184.00,110.00,1
246.00,113.51,1
513.00,122.23,1
330.00,138.08,1
288.00,157.67,1
242.00,176.84,1
310.00,194.51,1
339.00,211.44,1
325.00,228.16,1
308.00,244.04,1
550.00,260.34,1
286.00,278.11,1
265.00,293.87,1
97.00,303.70,1
200.00,306.56,1
158.00,303.97,1
100.00,297.03,1
92.00,285.62,1
62.00,270.28,1
80.00,252.08,1
114.00,232.70,1
111.00,213.74,1
86.00,195.75,1
154.00,179.22,1
108.00,164.88,1
120.00,152.59,1
206.00,142.79,1
148.00,136.23,1
244.00,132.93,1
261.00,133.44,1
311.00,138.31,1
277.00,147.04,1
343.00,158.78,1
237.00,172.35,1
282.00,186.03,1
410.00,200.28,1
315.00,216.19,1
413.00,233.15,1
299.00,250.23,1
354.00,266.24,1
246.00,279.96,1
236.00,290.08,1
142.00,295.32,1
238.00,295.75,1
219.00,293.21,1
163.00,288.54,1
140.00,281.08,1
110.00,270.72,1
164.00,258.22,1
92.00,244.55,1
95.00,229.72,1
59.00,213.65,1
50.00,196.54,1
85.00,179.05,1
430.00,165.21,1
166.00,158.42,1
151.00,155.56,1
181.00,153.61,1
228.00,153.18,1
252.00,155.11,1
197.00,159.17,1
263.00,164.51,1
325.00,171.79,1
296.00,181.69,1
346.00,193.65,1
333.00,207.25,1
383.00,222.24,1
304.00,237.90,1
366.00,253.15,1
289.00,267.33,1
368.00,280.11,1
233.00,290.97,1
296.00,298.95,1
247.00,303.96,1
228.00,306.13,1
172.00,304.89,1
101.00,299.34,1
161.00,289.67,1
59.00,276.73,1
86.00,260.75,1
219.00,243.69,1
114.00,227.95,1
129.00,213.23,1
56.00,198.48,1
118.00,183.69,1
71.00,169.37,1
133.00,156.13,1
174.00,145.13,1
325.00,138.64,1
238.00,137.90,1
242.00,141.40,1
331.00,148.11,1
234.00,157.74,1
325.00,169.19,1
320.00,182.26,1
342.00,196.95,1
341.00,212.76,1
371.00,229.28,1
150.00,244.44,1
279.00,255.71,1
176.00,263.11,1
245.00,267.28,1
211.00,268.83,1
237.00,268.59,1
142.00,266.36,1
100.00,260.99,1
182.00,252.57,1
93.00,242.41,1
93.00,230.49,1
159.00,217.41,1
111.00,204.60,1
69.00,191.82,1
51.00,178.21,1
76.00,164.03,1
78.00,150.16,1
80.00,137.22,1
198.00,126.46,1
291.00,120.45,1
230.00,120.24,1
262.00,124.53,1
501.00,134.03,1
267.00,149.43,1
448.00,168.54,1
318.00,189.71,1
374.00,211.58,1
385.00,233.18,1
381.00,254.52,1
209.00,273.52,1
364.00,288.52,1
316.00,300.75,1
330.00,311.05,1
271.00,318.90,1
303.00,324.03,1
186.00,325.98,1
316.00,324.87,1
180.00,321.52,1
144.00,315.08,1
181.00,305.11,1
183.00,293.12,1
62.00,279.33,1
46.00,262.56,1
162.00,243.72,1
66.00,224.92,1
63.00,206.12,1
198.00,188.23,1
262.00,174.37,1
250.00,166.13,1
236.00,162.62,1
248.00,162.58,1
338.00,166.02,1
245.00,172.79,1
317.00,181.69,1
201.00,191.35,1
326.00,201.00,1
222.00,210.57,1
383.00,220.41,1
215.00,230.55,1
332.00,240.10,1
322.00,249.33,1
203.00,257.85,1
230.00,263.70,1
300.00,267.39,1
213.00,269.97,1
147.00,270.20,1
227.00,267.51,1
224.00,263.42,1
162.00,258.53,1
46.00,251.19,1
43.00,239.70,1
52.00,224.60,1
39.00,207.22,1
57.00,188.72,1
68.00,170.26,1
71.00,152.79,1
99.00,137.02,1
176.00,124.17,1
144.00,115.21,1
245.00,110.49,1
311.00,111.05,1
339.00,117.77,1
202.00,128.85,1
253.00,141.24,1
332.00,154.56,1
310.00,169.71,1
330.00,186.22,1
340.00,203.44,1
357.00,221.08,1
88.00,236.61,1
250.00,247.07,1
340.00,254.51,1
352.00,262.33,1
134.00,269.34,1
228.00,272.75,1
107.00,272.11,1
190.00,267.85,1
165.00,261.15,1
128.00,252.79,1
115.00,242.53,1
127.00,230.70,1
186.00,218.64,1
44.00,206.74,1
93.00,193.90,1
38.00,179.92,1
40.00,165.10,1
65.00,149.90,1
75.00,135.43,1
83.00,122.41,1
135.00,111.57,1
202.00,104.23,1
187.00,101.22,1
208.00,102.07,1
214.00,106.11,1
267.00,113.11,1
366.00,123.96,1
362.00,139.32,1
317.00,157.98,1
253.00,177.31,1
364.00,195.96,1
246.00,213.79,1
360.00,230.35,1
174.00,244.74,1
289.00,255.82,1
172.00,263.43,1
294.00,268.16,1
160.00,270.48,1
196.00,269.98,1
96.00,266.04,1
147.00,258.70,1
246.00,249.84,1
73.00,240.74,1
137.00,230.21,1
41.00,217.79,1
111.00,203.88,1
56.00,189.20,1
91.00,174.39,1
140.00,160.50,1
75.00,148.32,1
99.00,137.37,1
106.00,127.65,1
123.00,119.62,1
219.00,114.32,1
313.00,113.74,1
355.00,119.41,1
250.00,130.28,1
422.00,144.79,1
355.00,162.98,1
341.00,183.54,1
356.00,204.66,1
417.00,226.07,1
364.00,247.70,1
392.00,268.64,1
214.00,286.93,1
328.00,300.85,1
85.00,309.35,1
261.00,311.80,1
130.00,309.43,1
114.00,302.63,1
255.00,292.56,1
117.00,281.31,1
189.00,269.07,1
92.00,255.73,1
102.00,241.06,1
85.00,225.12,1
76.00,208.46,1
47.00,191.27,1
68.00,173.85,1
72.00,156.99,1
155.00,142.02,1
160.00,130.43,1
136.00,122.38,1
214.00,117.56,1
282.00,117.01,1
334.00,122.00,1
274.00,131.85,1
313.00,144.87,1
361.00,160.42,1
372.00,178.61,1
520.00,199.99,1
365.00,224.26,1
364.00,248.67,1
361.00,271.00,1
460.00,291.78,1
258.00,310.65,1
298.00,325.26,1
258.00,334.81,1
260.00,339.90,1
76.00,339.52,1
225.00,333.32,1
395.00,325.18,1
98.00,317.44,1
66.00,306.46,1
55.00,290.31,1
121.00,270.79,1
46.00,249.86,1
37.00,227.77,1
48.00,204.87,1
87.00,182.50,1
85.00,161.99,1
159.00,144.49,1
208.00,131.48,1
457.00,125.77,1
349.00,129.43,1
160.00,138.80,1
126.00,147.91,1
252.00,155.42,1
360.00,164.18,1
552.00,178.03,1
413.00,198.27,1
338.00,221.34,1
135.00,241.66,1
352.00,257.06,1
335.00,269.97,1
364.00,282.30,1
247.00,293.17,1
314.00,301.43,1
216.00,306.77,1
180.00,308.37,1
195.00,305.70,1
216.00,300.07,1
158.00,292.35,1
93.00,281.98,1
205.00,269.34,1
57.00,255.45,1
161.00,240.43,1
42.00,224.56,1
46.00,207.45,1
63.00,189.22,1
69.00,171.07,1
180.00,154.78,1
192.00,142.40,1
151.00,134.19,1
210.00,129.36,1
190.00,127.69,1
308.00,129.61,1
323.00,136.18,1
321.00,147.17,1
251.00,160.71,1
334.00,175.26,1
335.00,190.88,1
420.00,208.21,1
329.00,226.93,1
439.00,246.22,1
296.00,265.14,1
357.00,282.23,1
242.00,296.23,1
340.00,306.83,1
242.00,314.36,1
234.00,318.41,1
174.00,318.22,1
182.00,313.82,1
190.00,306.11,1
90.00,295.43,1
126.00,281.65,1
121.00,265.71,1
44.00,248.15,1
71.00,228.92,1
148.00,209.49,1
98.00,191.63,1
108.00,175.46,1
196.00,161.58,1
214.00,151.60,1
232.00,146.08,1
238.00,144.62,1
223.00,146.45,1
358.00,151.66,1
273.00,160.63,1
360.00,172.59,1
300.00,186.67,1
303.00,201.63,1
344.00,216.68,1
391.00,232.35,1
341.00,248.71,1
371.00,264.88,1
216.00,279.14,1
334.00,290.16,1
190.00,297.79,1
290.00,302.07,1
195.00,303.32,1
172.00,301.27,1
216.00,296.01,1
100.00,288.05,1
129.00,276.93,1
75.00,262.90,1
70.00,246.39,1
40.00,227.73,1
44.00,207.62,1
117.00,187.47,1
121.00,169.24,1
146.00,153.98,1
189.00,142.27,1
259.00,135.17,1
262.00,133.30,1
320.00,136.54,1
535.00,146.39,1
419.00,163.96,1
355.00,186.19,1
339.00,209.06,1
370.00,231.12,1
327.00,251.85,1
430.00,271.30,1
361.00,289.91,1
374.00,307.09,1
240.00,321.15,1
341.00,331.10,1
226.00,337.22,1
319.00,339.91,1
199.00,339.53,1
207.00,335.63,1
137.00,327.73,1
155.00,316.18,1
204.00,302.32,1
194.00,288.04,1
111.00,273.48,1
47.00,257.20,1
117.00,238.99,1
77.00,220.21,1
56.00,201.36,1
72.00,182.52,1
43.00,164.19,1
44.00,146.50,1
218.00,131.10,1
192.00,120.62,1
170.00,115.11,1
202.00,113.19,1
224.00,114.57,1
365.00,120.23,1
310.00,131.00,1
366.00,145.98,1
375.00,164.22,1
320.00,184.53,1
330.00,205.01,1
361.00,224.86,1
302.00,243.71,1
344.00,260.80,1
301.00,275.83,1
292.00,288.37,1
326.00,298.35,1
171.00,305.28,1
188.00,307.51,1
160.00,304.82,1
108.00,297.78,1
106.00,286.57,1
123.00,272.18,1
59.00,255.64,1
100.00,237.41,1
55.00,218.25,1
65.00,198.74,1
218.00,180.68,1
194.00,166.72,1
136.00,156.73,1
188.00,149.37,1
104.00,143.93,1
340.00,141.16,1
341.00,143.64,1
204.00,150.96,1
483.00,161.75,1
346.00,177.16,1
80.00,193.39,1
275.00,205.79,1
245.00,215.63,1
329.00,225.02,1
393.00,235.41,1
214.00,246.53,1
192.00,255.21,1
272.00,260.58,1
88.00,262.84,1
472.00,263.47,1
90.00,264.51,1
371.00,265.02,1
315.00,266.13,1
233.00,268.38,1
58.00,268.13,1
257.00,264.11,1
120.00,258.03,1
81.00,249.64,1
78.00,238.01,1
80.00,223.87,1
144.00,208.87,1
670.00,199.13,1
205.00,199.18,1
177.00,203.04,1
238.00,205.85,1
107.00,207.46,1
71.00,206.12,1
140.00,201.50,1
214.00,196.01,1
808.00,196.72,1
155.00,207.09,1
239.00,219.36,1
127.00,227.73,1
596.00,235.56,1
62.00,245.15,1
614.00,255.35,1
702.00,271.16,1
271.00,293.19,1
362.00,313.51,1
533.00,331.21,1
124.00,346.54,1
149.00,354.46,1
264.00,354.49,1
109.00,349.28,1
164.00,339.07,1
72.00,324.27,1
60.00,305.29,1
373.00,285.38,1
138.00,268.61,1
72.00,252.94,1
246.00,237.00,1
259.00,223.86,1
125.00,213.83,1
49.00,203.74,1
89.00,191.89,1
282.00,180.75,1
290.00,174.08,1
477.00,174.36,1
76.00,179.77,1
60.00,183.63,1
605.00,187.12,1
429.00,197.67,1
356.00,214.17,1
808.00,235.82,1
419.00,264.23,1
280.00,292.98,1
456.00,317.01,1
174.00,336.07,1
340.00,348.93,1
252.00,356.33,1
140.00,358.21,1
154.00,353.48,1
246.00,343.92,1
254.00,332.71,1
52.00,319.88,1
395.00,305.80,1
50.00,292.37,1
51.00,277.01,1
109.00,258.33,1
55.00,238.24,1
135.00,218.05,1
465.00,202.02,1
260.00,194.07,1
153.00,190.99,1
224.00,188.86,1
356.00,188.90,1
63.00,190.95,1
366.00,193.19,1
460.00,198.96,1
453.00,211.08,1
453.00,228.33,1
415.00,248.60,1
78.00,267.05,1
70.00,277.53,1
190.00,279.63,1
396.00,278.93,1
344.00,280.14,1
499.00,284.88,1
73.00,290.75,1
182.00,292.44,1
224.00,289.48,1
238.00,284.80,1
144.00,278.82,1
188.00,270.94,1
220.00,262.07,1
54.00,252.29,1
87.00,239.93,1
85.00,225.11,1
156.00,209.80,1
103.00,195.36,1
73.00,181.50,1
173.00,168.47,1
308.00,159.01,1
230.00,154.99,1
167.00,154.57,1
69.00,154.38,1
252.00,153.73,1
492.00,157.01,1
491.00,168.66,1
156.00,185.47,1
383.00,201.93,1
272.00,217.64,1
284.00,232.39,1
135.00,243.97,1
208.00,250.98,1
217.00,254.38,1
302.00,256.35,1
58.00,256.61,1
300.00,254.25,1
274.00,251.76,1
225.00,250.42,1
94.00,247.90,1
211.00,242.92,1
108.00,236.25,1
98.00,227.70,1
63.00,216.74,1
68.00,203.63,1
42.00,188.93,1
69.00,173.36,1
236.00,159.23,1
182.00,149.23,1
165.00,143.01,1
278.00,140.09,1
311.00,141.83,1
238.00,147.87,1
352.00,157.00,1
262.00,168.71,1
372.00,182.37,1
285.00,197.42,1
208.00,211.83,1
228.00,223.44,1
330.00,233.09,1
239.00,242.03,1
377.00,250.61,1
185.00,258.59,1
139.00,263.43,1
294.00,264.68,1
155.00,264.14,1
175.00,261.46,1
216.00,256.75,1
137.00,250.79,1
197.00,243.65,1
258.00,236.70,1
83.00,230.16,1
93.00,221.87,1
58.00,210.96,1
71.00,198.04,1
125.00,184.32,1
86.00,171.16,1
103.00,158.81,1
229.00,148.48,1
210.00,142.10,1
46.00,138.30,1
497.00,137.48,1
187.00,142.41,1
370.00,151.76,1
315.00,164.09,1
293.00,178.72,1
310.00,193.93,1
221.00,208.46,1
715.00,224.80,1
241.00,245.45,1
518.00,267.22,1
363.00,288.51,1
805.00,312.08,1
212.00,337.70,1
260.00,358.30,1
163.00,369.37,1
53.00,370.91,1
109.00,362.93,1
41.00,347.34,1
107.00,326.51,1
132.00,303.04,1
43.00,278.56,1
132.00,253.65,1
122.00,229.87,1
114.00,208.25,1
151.00,189.07,1
209.00,173.41,1
115.00,161.42,1
319.00,153.23,1
237.00,150.12,1
296.00,151.83,1
282.00,157.29,1
45.00,163.72,1
256.00,168.38,1
410.00,174.35,1
416.00,185.56,1
389.00,201.46,1
376.00,219.88,1
332.00,238.83,1
299.00,256.41,1
413.00,272.38,1
184.00,286.34,1
356.00,296.87,1
306.00,304.99,1
85.00,309.78,1
227.00,309.02,1
73.00,303.33,1
146.00,293.22,1
94.00,279.52,1
86.00,263.38,1
196.00,246.25,1
50.00,229.42,1
91.00,212.26,1
53.00,194.58,1
109.00,177.23,1
68.00,160.98,1
188.00,146.89,1
218.00,136.82,1
233.00,131.78,1
284.00,131.60,1
221.00,135.57,1
385.00,143.38,1
306.00,155.28,1
304.00,170.00,1
411.00,186.51,1
303.00,204.72,1
415.00,223.65,1
303.00,242.51,1
620.00,262.42,1
383.00,284.79,1
347.00,306.68,1
375.00,325.16,1
265.00,339.72,1
131.00,348.09,1
426.00,350.77,1
292.00,351.74,1
144.00,350.39,1
256.00,344.62,1
150.00,335.50,1
85.00,322.81,1
41.00,305.47,1
52.00,284.01,1
152.00,260.77,1
41.00,237.73,1
56.00,214.72,1
127.00,192.44,1
205.00,173.41,1
195.00,159.28,1
166.00,149.55,1
338.00,144.36,1
266.00,144.82,1
308.00,150.14,1
347.00,159.41,1
361.00,172.41,1
295.00,187.96,1
333.00,204.17,1
409.00,221.06,1
372.00,239.25,1
236.00,256.64,1
353.00,271.27,1
266.00,283.40,1
373.00,293.65,1
282.00,302.42,1
267.00,309.05,1
180.00,312.08,1
161.00,310.58,1
46.00,303.71,1
354.00,293.49,1
67.00,282.78,1
154.00,270.61,1
54.00,255.97,1
51.00,238.92,1
102.00,220.21,1
127.00,201.87,1
130.00,185.27,1
60.00,170.22,1
195.00,156.84,1
393.00,148.43,1
208.00,147.02,1
344.00,150.63,1
268.00,158.00,1
303.00,168.20,1
492.00,181.72,1
372.00,199.73,1
352.00,219.97,1
359.00,239.93,1
396.00,259.26,1
428.00,278.43,1
378.00,297.28,1
305.00,314.09,1
233.00,326.55,1
165.00,332.89,1
444.00,335.01,1
178.00,335.72,1
124.00,332.71,1
232.00,324.87,1
69.00,313.61,1
86.00,298.37,1
60.00,279.42,1
44.00,257.88,1
88.00,234.90,1
40.00,211.81,1
93.00,189.41,1
165.00,169.35,1
161.00,153.34,1
329.00,142.89,1
202.00,138.70,1
461.00,140.85,1
314.00,149.74,1
322.00,163.25,1
324.00,178.76,1
391.00,195.86,1
408.00,214.88,1
256.00,234.33,1
438.00,252.58,1
361.00,270.45,1
303.00,287.18,1
383.00,301.56,1
241.00,313.34,1
281.00,321.41,1
308.00,326.08,1
286.00,328.62,1
269.00,329.18,1
92.00,326.27,1
131.00,318.12,1
60.00,304.85,1
120.00,287.77,1
117.00,268.67,1
37.00,248.51,1
44.00,226.94,1
58.00,204.57,1
86.00,182.86,1
61.00,162.73,1
108.00,144.66,1
200.00,130.09,1
207.00,120.60,1
260.00,116.66,1
324.00,118.48,1
995.00,131.78,1
300.00,159.00,1
276.00,189.84,1
368.00,217.09,1
343.00,241.81,1
275.00,263.58,1
448.00,282.50,1
307.00,299.76,1
392.00,314.99,1
332.00,327.91,1
518.00,339.90,1
244.00,351.11,1
344.00,359.18,1
274.00,363.40,1
152.00,363.16,1
213.00,357.47,1
163.00,347.44,1
299.00,335.20,1
226.00,322.97,1
107.00,310.08,1
56.00,294.06,1
111.00,274.87,1
100.00,254.29,1
252.00,234.88,1
126.00,218.40,1
138.00,203.96,1
192.00,191.15,1
241.00,181.40,1
302.00,176.05,1
236.00,175.10,1
356.00,177.95,1
371.00,185.16,1
460.00,197.40,1
594.00,215.86,1
370.00,239.39,1
409.00,263.74,1
372.00,286.40,1
678.00,309.34,1
459.00,334.62,1
471.00,359.84,1
361.00,381.68,1
246.00,397.53,1
264.00,405.68,1
210.00,406.42,1
81.00,399.93,1
80.00,385.41,1
242.00,365.48,1
337.00,345.72,1
195.00,328.45,1
42.00,310.81,1
38.00,289.65,1
65.00,265.49,1
115.00,240.68,1
93.00,217.06,1
98.00,195.24,1
188.00,176.14,1
200.00,161.40,1
323.00,152.39,1
283.00,149.85,1
216.00,152.11,1
461.00,158.51,1
331.00,170.23,1
384.00,185.98,1
79.00,201.56,1
485.00,215.22,1
374.00,230.23,1
551.00,248.73,1
416.00,270.23,1
490.00,293.11,1
279.00,314.63,1
367.00,332.28,1
222.00,344.91,1
268.00,352.05,1
145.00,353.27,1
147.00,348.25,1
391.00,339.81,1
101.00,330.67,1
83.00,318.31,1
276.00,302.85,1
79.00,286.99,1
41.00,269.31,1
99.00,249.15,1
40.00,227.88,1
84.00,206.32,1
194.00,186.45,1
128.00,170.14,1
51.00,156.26,1
300.00,144.93,1
314.00,139.53,1
322.00,141.16,1
384.00,148.82,1
486.00,162.77,1
414.00,182.61,1
437.00,206.08,1
477.00,231.77,1
329.00,257.86,1
327.00,281.25,1
329.00,300.54,1
359.00,316.37,1
262.00,328.76,1
250.00,336.64,1
248.00,339.87,1
173.00,338.70,1
238.00,333.41,1
247.00,325.80,1
311.00,317.87,1
228.00,310.41,1
42.00,301.15,1
280.00,289.06,1
153.00,276.53,1
39.00,263.05,1
59.00,246.49,1
116.00,228.05,1
44.00,209.27,1
163.00,191.13,1
211.00,175.83,1
235.00,165.14,1
228.00,159.05,1
423.00,158.45,1
325.00,164.30,1
264.00,174.33,1
347.00,186.14,1
400.00,200.16,1
446.00,217.33,1
388.00,237.09,1
295.00,256.80,1
356.00,274.31,1
335.00,289.65,1
491.00,304.25,1
371.00,319.25,1
451.00,334.03,1
272.00,346.99,1
289.00,355.96,1
208.00,359.71,1
104.00,357.31,1
174.00,348.46,1
201.00,335.57,1
154.00,320.71,1
64.00,303.48,1
207.00,284.36,1
152.00,265.62,1
88.00,247.52,1
156.00,229.56,1
166.00,212.97,1
188.00,198.91,1
443.00,189.81,1
344.00,188.48,1
374.00,193.69,1
289.00,202.72,1
453.00,214.49,1
381.00,229.38,1
427.00,246.73,1
428.00,265.59,1
311.00,284.33,1
485.00,301.87,1
365.00,318.85,1
298.00,333.72,1
386.00,345.13,1
247.00,353.26,1
242.00,357.00,1
158.00,355.37,1
96.00,347.80,1
110.00,334.28,1
162.00,316.91,1
155.00,298.10,1
86.00,278.51,1
96.00,257.93,1
72.00,236.63,1
234.00,216.52,1
113.00,199.47,1
150.00,184.96,1
74.00,171.84,1
206.00,160.36,1
343.00,153.17,1
295.00,152.46,1
523.00,158.97,1
526.00,174.18,1
351.00,195.89,1
379.00,219.28,1
372.00,242.07,1
591.00,265.57,1
432.00,291.15,1
466.00,316.83,1
362.00,340.14,1
327.00,359.13,1
236.00,372.05,1
258.00,378.32,1
220.00,378.58,1
225.00,373.88,1
246.00,365.49,1
185.00,354.51,1
79.00,340.16,1
77.00,321.52,1
212.00,300.40,1
68.00,279.11,1
40.00,256.89,1
230.00,234.64,1
127.00,215.15,1
128.00,198.28,1
55.00,182.54,1
131.00,167.60,1
90.00,154.08,1
146.00,142.48,1
224.00,133.96,1
239.00,129.94,1
291.00,130.83,1
368.00,136.98,1
342.00,148.50,1
445.00,164.67,1
530.00,186.08,1
421.00,212.16,1
484.00,240.27,1
314.00,267.76,1
543.00,293.49,1
430.00,318.46,1
594.00,343.47,1
295.00,366.95,1
285.00,384.82,1
160.00,394.17,1
289.00,395.59,1
316.00,392.29,1
78.00,385.09,1
56.00,371.14,1
127.00,350.91,1
248.00,328.58,1
154.00,307.16,1
105.00,286.17,1
113.00,264.69,1
81.00,243.00,1
77.00,221.38,1
188.00,201.13,1
154.00,184.12,1
232.00,171.13,1
267.00,162.91,1
323.00,160.26,1
191.00,162.05,1
446.00,167.59,1
338.00,178.07,1
489.00,193.46,1
258.00,211.80,1
341.00,229.86,1
184.00,245.27,1
281.00,257.07,1
277.00,265.98,1
344.00,273.70,1
189.00,280.05,1
270.00,283.83,1
56.00,283.82,1
445.00,281.25,1
162.00,279.16,1
175.00,276.14,1
197.00,270.55,1
147.00,263.24,1
78.00,253.65,1
83.00,241.18,1
211.00,227.46,1
121.00,214.69,1
142.00,202.80,1
172.00,191.83,1
112.00,182.09,1
127.00,173.00,1
149.00,164.62,1
288.00,158.72,1
340.00,157.77,1
346.00,162.69,1
282.00,171.94,1
422.00,184.26,1
328.00,199.52,1
492.00,217.46,1
253.00,236.86,1
271.00,254.26,1
513.00,269.88,1
405.00,286.87,1
497.00,305.34,1
326.00,323.54,1
252.00,338.24,1
156.00,346.34,1
276.00,347.95,1
136.00,344.64,1
185.00,336.77,1
268.00,326.08,1
44.00,313.51,1
128.00,297.59,1
68.00,278.63,1
112.00,258.11,1
149.00,237.63,1
41.00,217.90,1
72.00,198.18,1
95.00,178.94,1
144.00,161.74,1
356.00,149.43,1
185.00,143.78,1
367.00,143.84,1
313.00,149.35,1
291.00,159.19,1
320.00,171.48,1
273.00,185.13,1
336.00,199.30,1
318.00,213.93,1
349.00,228.92,1
430.00,244.72,1
177.00,260.12,1
302.00,272.20,1
274.00,281.09,1
162.00,286.90,1
166.00,288.12,1
177.00,285.07,1
294.00,280.06,1
156.00,274.59,1
161.00,267.70,1
78.00,258.22,1
139.00,246.20,1
59.00,232.36,1
61.00,216.79,1
48.00,199.63,1
95.00,182.05,1
113.00,165.56,1
181.00,151.71,1
367.00,143.16,1
206.00,141.24,1
391.00,144.88,1
264.00,153.26,1
220.00,163.98,1
360.00,175.53,1
331.00,189.05,1
323.00,204.20,1
421.00,220.59,1
392.00,238.64,1
271.00,256.68,1
302.00,272.12,1
220.00,283.89,1
277.00,291.87,1
114.00,295.57,1
84.00,293.43,1
41.00,284.71,1
63.00,270.49,1
152.00,253.36,1
55.00,235.44,1
143.00,217.39,1
116.00,200.26,1
292.00,186.13,1
83.00,175.75,1
108.00,166.73,1
203.00,158.52,1
309.00,153.88,1
243.00,154.10,1
387.00,158.99,1
278.00,168.24,1
402.00,180.84,1
323.00,196.09,1
315.00,212.52,1
305.00,228.39,1
411.00,243.96,1
392.00,260.30,1
320.00,276.66,1
322.00,291.13,1
346.00,303.34,1
206.00,312.65,1
308.00,318.18,1
144.00,319.80,1
343.00,318.18,1
293.00,315.71,1
130.00,312.13,1
83.00,304.31,1
75.00,291.23,1
81.00,274.18,1
46.00,254.48,1
50.00,232.84,1
195.00,211.50,1
146.00,193.13,1
255.00,178.96,1
350.00,170.56,1
241.00,168.50,1
183.00,169.74,1
319.00,172.74,1
232.00,178.02,1
267.00,184.86,1
542.00,194.81,1
253.00,209.23,1
321.00,224.62,1
264.00,238.47,1
427.00,251.66,1
168.00,264.01,1
329.00,273.69,1
393.00,282.08,1
110.00,289.25,1
244.00,292.17,1
272.00,291.92,1
165.00,289.94,1
42.00,284.11,1
105.00,273.18,1
103.00,258.76,1
201.00,243.44,1
74.00,228.54,1
97.00,213.33,1
111.00,197.83,1
123.00,183.16,1
176.00,170.36,1
257.00,161.07,1
346.00,157.26,1
336.00,159.82,1
254.00,166.96,1
370.00,176.92,1
325.00,189.56,1
353.00,204.24,1
319.00,219.85,1
408.00,236.03,1
256.00,252.03,1
422.00,266.96,1
249.00,280.63,1
361.00,292.33,1
209.00,301.31,1
191.00,306.18,1
279.00,306.95,1
218.00,305.40,1
158.00,301.33,1
88.00,293.44,1
218.00,282.29,1
74.00,269.40,1
77.00,254.36,1
46.00,236.83,1
50.00,217.41,1
135.00,197.80,1
178.00,180.48,1
105.00,166.27,1
260.00,155.35,1
300.00,149.53,1
194.00,148.86,1
338.00,151.96,1
270.00,158.71,1
161.00,167.18,1
334.00,175.76,1
247.00,185.37,1
328.00,196.11,1
326.00,207.92,1
413.00,221.56,1
442.00,237.82,1
365.00,256.03,1
342.00,273.92,1
446.00,290.82,1
154.00,305.51,1
387.00,316.03,1
287.00,323.61,1
281.00,328.95,1
187.00,330.69,1
246.00,328.50,1
171.00,322.99,1
89.00,313.75,1
102.00,300.06,1
51.00,282.47,1
68.00,262.05,1
99.00,240.21,1
70.00,218.39,1
68.00,197.15,1
116.00,177.14,1
232.00,160.49,1
179.00,148.81,1
236.00,141.87,1
329.00,140.04,1
220.00,143.20,1
296.00,149.69,1
380.00,159.50,1
531.00,174.90,1
384.00,195.97,1
453.00,219.93,1
296.00,244.02,1
366.00,265.92,1
242.00,284.27,1
412.00,299.25,1
347.00,312.41,1
230.00,323.13,1
279.00,329.57,1
178.00,331.48,1
256.00,329.31,1
235.00,324.43,1
56.00,316.42,1
46.00,303.14,1
134.00,285.34,1
58.00,265.40,1
38.00,243.83,1
57.00,220.98,1
45.00,197.90,1
116.00,176.01,1
112.00,156.77,1
99.00,140.60,1
146.00,127.43,1
271.00,118.66,1
226.00,115.63,1
142.00,116.65,1
338.00,120.63,1
307.00,128.98,1
321.00,141.58,1
228.00,156.21,1
405.00,171.92,1
344.00,189.60,1
361.00,208.86,1
264.00,227.60,1
304.00,244.17,1
342.00,258.73,1
316.00,272.02,1
318.00,283.80,1
202.00,292.91,1
288.00,298.49,1
194.00,300.91,1
268.00,300.59,1
122.00,297.42,1
182.00,290.94,1
383.00,283.57,1
202.00,278.11,1
45.00,271.63,1
87.00,260.87,1
192.00,247.44,1
67.00,233.49,1
102.00,218.69,1
198.00,204.09,1
106.00,191.23,1
319.00,181.15,1
168.00,175.07,1
343.00,172.96,1
359.00,175.69,1
515.00,185.01,1
350.00,200.44,1
426.00,219.12,1
375.00,239.15,1
313.00,258.79,1
468.00,277.30,1
283.00,294.88,1
273.00,309.26,1
276.00,319.09,1
318.00,325.44,1
243.00,329.02,1
151.00,328.74,1
60.00,322.60,1
55.00,309.87,1
222.00,293.19,1
106.00,275.80,1
45.00,257.45,1
115.00,237.52,1
86.00,217.49,1
64.00,197.97,1
40.00,178.65,1
127.00,160.29,1
227.00,145.35,1
212.00,135.82,1
293.00,131.91,1
221.00,132.98,1
349.00,138.41,1
334.00,148.36,1
367.00,162.42,1
374.00,179.76,1
245.00,198.26,1
491.00,216.98,1
429.00,237.81,1
490.00,260.98,1
82.00,282.29,1
319.00,297.13,1
206.00,306.19,1
179.00,310.46,1
145.00,309.20,1
142.00,303.03,1
82.00,292.53,1
97.00,278.16,1
108.00,261.19,1
206.00,243.93,1
56.00,227.48,1
120.00,211.06,1
102.00,194.88,1
172.00,180.23,1
180.00,168.32,1
307.00,160.65,1
359.00,159.12,1
298.00,163.63,1
396.00,172.88,1
347.00,186.14,1
438.00,202.73,1
274.00,221.06,1
448.00,239.55,1
342.00,258.19,1
427.00,276.71,1
297.00,293.99,1
349.00,308.72,1
255.00,320.03,1
244.00,327.12,1
261.00,329.95,1
396.00,330.77,1
309.00,331.71,1
145.00,331.02,1
125.00,325.42,1
84.00,314.30,1
71.00,298.41,1
53.00,278.65,1
73.00,256.48,1
203.00,234.45,1
144.00,215.10,1
186.00,198.89,1
184.00,185.77,1
264.00,176.48,1
277.00,171.76,1
283.00,171.64,1
384.00,176.11,1
393.00,185.63,1
454.00,200.21,1
347.00,218.31,1
358.00,237.33,1
291.00,255.14,1
470.00,271.92,1
325.00,288.54,1
408.00,304.26,1
216.00,317.36,1
245.00,325.76,1
190.00,328.77,1
188.00,326.84,1
174.00,320.68,1
153.00,311.08,1
169.00,298.77,1
54.00,284.04,1
60.00,266.20,1
155.00,246.53,1
89.00,227.24,1
89.00,208.54,1
79.00,190.30,1
157.00,173.49,1
146.00,159.44,1
221.00,149.04,1
286.00,143.48,1
306.00,143.62,1
346.00,149.22,1
383.00,159.98,1
362.00,175.10,1
327.00,192.65,1
508.00,212.21,1
348.00,234.06,1
374.00,255.98,1
322.00,275.89,1
466.00,294.16,1
208.00,310.40,1
328.00,322.50,1
250.00,330.21,1
325.00,334.68,1
264.00,336.64,1
