.00,74.27,0
70.00,73.70,0
37.00,72.73,0
77.00,71.42,0
78.00,70.29,0
69.00,69.60,0
51.00,68.98,0
104.00,68.50,0
53.00,68.45,0
95.00,68.67,0
138.00,69.71,0
77.00,71.90,0
136.00,74.71,0
75.00,77.89,0
134.00,81.20,0
124.00,84.89,0
54.00,88.50,0
90.00,90.98,0
66.00,92.34,0
81.00,92.81,0
35.00,92.27,0
87.00,90.79,0
46.00,88.77,0
81.00,86.44,0
53.00,83.98,0
90.00,81.62,0
35.00,79.34,0
53.00,76.75,0
82.00,74.09,0
104.00,72.27,0
89.00,71.64,0
34.00,71.40,0
55.00,70.61,0
48.00,69.26,0
68.00,67.76,0
44.00,66.25,0
68.00,64.77,0
111.00,63.92,0
71.00,64.14,0
92.00,65.04,0
80.00,66.35,0
127.00,68.29,0
37.00,70.56,0
80.00,72.28,0
72.00,73.42,0
69.00,74.28,0
112.00,75.14,0
89.00,76.47,0
66.00,77.89,0
51.00,78.65,0
92.00,78.77,0
67.00,78.75,0
68.00,78.56,0
52.00,77.93,0
35.00,76.59,0
41.00,74.39,0
109.00,72.12,0
36.00,70.45,0
34.00,68.63,0
38.00,66.16,0
114.00,63.93,0
93.00,63.10,0
257.00,64.98,0
60.00,69.83,0
115.00,75.27,0
57.00,79.78,0
38.00,82.76,0
77.00,84.04,0
65.00,84.35,0
83.00,84.19,0
91.00,83.94,0
50.00,83.59,0
100.00,82.96,0
43.00,82.16,0
80.00,81.04,0
93.00,79.95,0
55.00,79.14,0
86.00,78.29,0
79.00,77.58,0
84.00,77.19,0
76.00,77.02,0
88.00,77.02,0
50.00,76.97,0
42.00,76.27,0
168.00,75.72,0
64.00,76.44,0
127.00,77.96,0
110.00,80.08,0
105.00,82.79,0
67.00,85.30,0
288.00,88.76,0
195.00,95.35,0
98.00,103.60,0
95.00,110.46,0
105.00,115.28,0
48.00,118.03,0
103.00,118.74,0
57.00,117.93,0
191.00,116.79,0
47.00,116.07,0
90.00,114.79,0
183.00,113.41,0
58.00,112.86,0
210.00,112.91,0
105.00,114.03,0
105.00,115.46,0
127.00,116.37,0
36.00,116.49,0
98.00,115.17,0
58.00,112.75,0
67.00,109.50,0
40.00,105.32,0
84.00,100.56,0
39.00,95.67,0
44.00,90.50,0
53.00,85.06,0
56.00,79.82,0
72.00,75.16,0
57.00,71.26,0
37.00,67.78,0
162.00,65.32,0
48.00,64.67,0
88.00,64.89,0
59.00,65.25,0
59.00,65.56,0
144.00,66.28,0
40.00,67.83,0
70.00,69.20,0
81.00,70.11,0
45.00,70.78,0
127.00,71.41,0
54.00,72.44,0
76.00,73.40,0
76.00,74.03,0
70.00,74.53,0
67.00,74.78,0
127.00,75.24,0
86.00,76.47,0
63.00,77.88,0
75.00,78.74,0
50.00,78.97,0
69.00,78.55,0
60.00,77.69,0
84.00,76.73,0
58.00,75.82,0
74.00,74.89,0
49.00,73.82,0
39.00,72.29,0
65.00,70.34,0
49.00,68.33,0
179.00,67.36,0
41.00,68.12,0
127.00,69.65,0
103.00,71.80,0
132.00,74.91,0
76.00,78.46,0
50.00,81.32,0
44.00,82.62,0
93.00,82.78,0
106.00,82.94,0
86.00,83.54,0
53.00,83.98,0
124.00,84.15,0
82.00,84.66,0
104.00,85.49,0
73.00,86.29,0
88.00,86.84,0
68.00,87.01,0
83.00,86.80,0
54.00,86.15,0
107.00,85.27,0
47.00,84.39,0
116.00,83.54,0
41.00,82.79,0
144.00,82.30,0
36.00,82.23,0
83.00,81.92,0
36.00,80.95,0
70.00,79.39,0
46.00,77.42,0
41.00,75.05,0
35.00,72.12,0
68.00,68.99,0
78.00,66.38,0
87.00,64.78,0
114.00,64.44,0
106.00,65.53,0
140.00,68.05,0
66.00,71.45,0
127.00,74.97,0
46.00,78.19,0
76.00,80.49,0
46.00,81.59,0
78.00,81.78,0
89.00,81.62,0
133.00,82.01,0
82.00,83.21,0
67.00,84.38,0
56.00,84.71,0
115.00,84.60,0
181.00,85.57,0
127.00,88.49,0
43.00,91.72,0
85.00,93.61,0
44.00,94.08,0
90.00,93.51,0
88.00,92.56,0
85.00,91.68,0
42.00,90.46,0
43.00,88.30,0
54.00,85.25,0
84.00,82.06,0
35.00,79.04,0
87.00,76.13,0
48.00,73.52,0
46.00,71.01,0
54.00,68.35,0
87.00,66.07,0
68.00,64.59,0
86.00,63.88,0
63.00,63.74,0
66.00,63.82,0
84.00,64.08,0
54.00,64.54,0
84.00,65.03,0
154.00,66.36,0
42.00,68.77,0
66.00,70.83,0
72.00,72.10,0
109.00,73.31,0
50.00,74.63,0
117.00,75.85,0
77.00,77.26,0
75.00,78.63,0
72.00,79.54,0
39.00,79.74,0
80.00,79.16,0
81.00,78.42,0
79.00,77.91,0
51.00,77.35,0
74.00,76.47,0
42.00,75.27,0
52.00,73.61,0
36.00,71.42,0
39.00,68.74,0
62.00,65.90,0
40.00,63.23,0
110.00,61.19,0
38.00,60.10,0
47.00,59.21,0
49.00,58.07,0
74.00,57.09,0
64.00,56.63,0
48.00,56.46,0
66.00,56.34,0
40.00,56.20,0
145.00,56.64,0
80.00,58.48,0
73.00,61.07,0
44.00,63.24,0
89.00,64.88,0
67.00,66.36,0
155.00,68.41,0
54.00,71.28,0
64.00,73.81,0
77.00,75.43,0
66.00,76.52,0
73.00,77.14,0
82.00,77.50,0
65.00,77.70,0
48.00,77.44,0
78.00,76.66,0
46.00,75.59,0
44.00,74.06,0
78.00,72.20,0
95.00,70.83,0
43.00,70.03,0
60.00,69.09,0
42.00,67.79,0
38.00,66.06,0
77.00,64.18,0
43.00,62.57,0
47.00,61.01,0
48.00,59.34,0
44.00,57.66,0
71.00,56.18,0
60.00,55.24,0
71.00,54.86,0
70.00,55.01,0
86.00,55.76,0
254.00,58.58,0
93.00,64.45,0
74.00,71.03,0
115.00,76.62,0
96.00,81.64,0
74.00,85.91,0
70.00,88.91,0
73.00,90.62,0
66.00,91.26,0
75.00,91.04,0
76.00,90.27,0
74.00,89.19,0
77.00,87.91,0
43.00,86.27,0
71.00,84.10,0
64.00,81.74,0
38.00,79.19,0
42.00,76.13,0
48.00,72.70,0
38.00,69.14,0
37.00,65.49,0
65.00,62.01,0
37.00,59.00,0
60.00,56.41,0
44.00,54.24,0
53.00,52.46,0
62.00,51.12,0
59.00,50.36,0
87.00,50.33,0
80.00,51.23,0
69.00,52.83,0
43.00,54.46,0
110.00,56.09,0
141.00,58.83,0
43.00,62.57,0
75.00,65.84,0
92.00,68.50,0
72.00,71.00,0
80.00,73.16,0
69.00,74.87,0
37.00,75.79,0
75.00,75.80,0
59.00,75.33,0
65.00,74.61,0
38.00,73.48,0
74.00,71.97,0
71.00,70.56,0
42.00,69.30,0
62.00,67.84,0
62.00,66.37,0
52.00,65.03,0
49.00,63.64,0
36.00,62.01,0
90.00,60.47,0
56.00,59.55,0
43.00,58.91,0
61.00,58.15,0
80.00,57.68,0
54.00,57.69,0
75.00,57.96,0
54.00,58.38,0
76.00,58.91,0
98.00,59.88,0
107.00,61.77,0
70.00,64.31,0
130.00,67.24,0
70.00,70.55,0
57.00,73.44,0
80.00,75.39,0
127.00,77.23,0
52.00,79.26,0
70.00,80.67,0
75.00,81.28,0
64.00,81.40,0
91.00,81.24,0
130.00,81.53,0
112.00,82.90,0
52.00,84.56,0
69.00,85.38,0
127.00,85.80,0
64.00,86.49,0
159.00,87.56,0
52.00,89.08,0
80.00,90.12,0
94.00,90.45,0
74.00,90.55,0
60.00,90.12,0
121.00,89.42,0
58.00,88.90,0
179.00,89.01,0
189.00,91.16,0
78.00,95.04,0
141.00,98.86,0
107.00,102.36,0
61.00,105.07,0
69.00,106.12,0
245.00,107.08,0
100.00,109.71,0
89.00,112.50,0
71.00,113.79,0
65.00,113.46,0
102.00,111.96,0
75.00,109.96,0
138.00,108.03,0
40.00,106.23,0
74.00,103.76,0
121.00,101.01,0
74.00,98.80,0
208.00,97.80,0
87.00,98.57,0
46.00,99.43,0
75.00,98.89,0
33.00,97.10,0
63.00,94.21,0
74.00,90.82,0
53.00,87.43,0
48.00,83.85,0
74.00,80.20,0
111.00,77.32,0
37.00,75.32,0
69.00,73.41,0
65.00,71.52,0
112.00,70.29,0
194.00,71.01,0
105.00,74.21,0
82.00,78.20,0
99.00,81.68,0
68.00,84.51,0
72.00,86.40,0
127.00,87.78,0
67.00,89.18,0
82.00,90.13,0
72.00,90.37,0
58.00,89.92,0
68.00,88.72,0
78.00,87.12,0
96.00,85.67,0
50.00,84.38,0
68.00,82.80,0
40.00,80.73,0
35.00,78.00,0
130.00,75.33,0
55.00,73.71,0
116.00,72.98,0
54.00,72.83,0
66.00,72.71,0
35.00,72.03,0
76.00,70.89,0
41.00,69.56,0
41.00,67.90,0
66.00,65.95,0
80.00,64.38,0
77.00,63.56,0
68.00,63.33,0
82.00,63.50,0
39.00,63.76,0
87.00,63.90,0
76.00,64.28,0
89.00,65.16,0
109.00,66.67,0
79.00,68.80,0
79.00,71.01,0
76.00,72.93,0
88.00,74.62,0
35.00,75.81,0
59.00,75.99,0
79.00,75.55,0
100.00,75.33,0
44.00,75.34,0
77.00,75.05,0
37.00,74.29,0
45.00,72.88,0
194.00,72.06,0
51.00,73.06,0
86.00,74.56,0
55.00,75.54,0
35.00,75.70,0
36.00,74.65,0
79.00,72.93,0
41.00,71.15,0
64.00,69.31,0
102.00,67.86,0
95.00,67.51,0
77.00,68.06,0
65.00,68.82,0
36.00,69.13,0
72.00,68.80,0
79.00,68.42,0
66.00,68.31,0
136.00,68.84,0
127.00,70.81,0
129.00,74.24,0
120.00,78.56,0
78.00,82.94,0
92.00,86.58,0
42.00,88.99,0
95.00,90.12,0
154.00,91.19,0
107.00,93.20,0
51.00,95.10,0
107.00,96.02,0
35.00,96.03,0
84.00,95.02,0
53.00,93.23,0
128.00,91.41,0
192.00,91.16,0
154.00,93.43,0
54.00,96.65,0
118.00,99.04,0
73.00,100.58,0
52.00,101.04,0
79.00,100.15,0
44.00,98.27,0
61.00,95.49,0
44.00,91.96,0
73.00,88.07,0
42.00,84.12,0
65.00,80.17,0
132.00,77.03,0
110.00,75.75,0
136.00,76.32,0
81.00,78.05,0
165.00,80.63,0
55.00,83.77,0
152.00,86.91,0
99.00,90.22,0
46.00,93.03,0
109.00,94.57,0
47.00,95.19,0
98.00,94.99,0
44.00,94.07,0
79.00,92.45,0
36.00,90.12,0
58.00,87.11,0
92.00,83.95,0
69.00,81.35,0
85.00,79.28,0
103.00,77.91,0
94.00,77.48,0
87.00,77.72,0
81.00,78.21,0
46.00,78.44,0
91.00,78.20,0
43.00,77.66,0
85.00,76.86,0
40.00,75.80,0
153.00,75.12,0
59.00,75.46,0
79.00,76.11,0
56.00,76.35,0
72.00,76.18,0
118.00,76.16,0
86.00,76.89,0
127.00,78.35,0
65.00,80.22,0
215.00,82.89,0
73.00,86.86,0
106.00,90.86,0
90.00,94.00,0
81.00,96.32,0
126.00,98.01,0
72.00,99.40,0
125.00,100.44,0
75.00,101.19,0
40.00,101.01,0
115.00,99.77,0
90.00,98.50,0
43.00,97.07,0
61.00,94.74,0
105.00,92.07,0
54.00,89.68,0
62.00,87.17,0
95.00,84.64,0
78.00,82.64,0
85.00,81.17,0
174.00,80.86,0
62.00,82.04,0
95.00,83.47,0
42.00,84.23,0
90.00,84.25,0
60.00,83.80,0
119.00,83.42,0
97.00,83.63,0
75.00,84.23,0
112.00,84.87,0
91.00,85.78,0
117.00,87.02,0
131.00,88.86,0
138.00,91.61,0
100.00,94.85,0
67.00,97.52,0
70.00,98.84,0
86.00,98.99,0
95.00,98.63,0
35.00,97.66,0
70.00,95.64,0
38.00,92.71,0
67.00,89.17,0
36.00,85.26,0
60.00,81.11,0
46.00,76.95,0
44.00,72.87,0
65.00,69.00,0
132.00,66.31,0
120.00,65.77,0
115.00,67.22,0
72.00,69.60,0
75.00,71.87,0
49.00,73.46,0
44.00,74.04,0
92.00,73.92,0
70.00,73.85,0
88.00,74.00,0
65.00,74.24,0
78.00,74.41,0
70.00,74.49,0
115.00,74.84,0
89.00,75.85,0
66.00,77.07,0
187.00,78.83,0
105.00,82.08,0
122.00,86.13,0
67.00,89.80,0
64.00,92.26,0
89.00,93.44,0
182.00,94.74,0
91.00,97.09,0
36.00,98.97,0
72.00,99.08,0
206.00,99.07,0
60.00,100.30,0
42.00,100.95,0
65.00,99.84,0
133.00,98.22,0
187.00,98.03,0
149.00,100.06,0
42.00,102.65,0
71.00,103.75,0
50.00,103.07,0
88.00,101.28,0
59.00,98.93,0
109.00,96.47,0
153.00,94.96,0
65.00,94.64,0
128.00,94.66,0
90.00,94.94,0
43.00,94.92,0
71.00,93.82,0
204.00,93.09,0
46.00,93.81,0
181.00,95.19,0
90.00,97.21,0
87.00,99.23,0
71.00,100.26,0
44.00,99.98,0
60.00,98.27,0
53.00,95.51,0
94.00,92.41,0
39.00,89.32,0
87.00,86.15,0
40.00,82.98,0
44.00,79.58,0
66.00,75.97,0
99.00,72.99,0
147.00,71.70,0
162.00,72.92,0
99.00,76.16,0
40.00,79.42,0
87.00,81.47,0
66.00,82.64,0
75.00,83.23,0
200.00,84.37,0
185.00,87.89,0
59.00,92.88,0
77.00,96.74,0
52.00,98.68,0
120.00,99.39,0
138.00,100.20,0
109.00,101.67,0
156.00,103.65,0
79.00,105.87,0
53.00,107.09,0
60.00,106.50,0
44.00,104.33,0
39.00,100.77,0
172.00,97.16,0
77.00,95.01,0
37.00,93.23,0
76.00,90.68,0
76.00,87.93,0
86.00,85.54,0
50.00,83.35,0
75.00,81.09,0
157.00,79.64,0
116.00,80.07,0
133.00,82.06,0
118.00,84.98,0
119.00,88.42,0
36.00,91.35,0
97.00,92.95,0
42.00,93.34,0
106.00,92.93,0
53.00,92.07,0
87.00,90.85,0
62.00,89.31,0
112.00,87.85,0
79.00,86.86,0
107.00,86.35,0
147.00,86.73,0
91.00,88.22,0
152.00,90.41,0
96.00,93.14,0
59.00,95.47,0
109.00,96.75,0
41.00,97.16,0
116.00,96.79,0
38.00,95.89,0
68.00,94.17,0
94.00,91.97,0
87.00,90.09,0
40.00,88.23,0
76.00,85.90,0
127.00,83.93,0
51.00,82.81,0
178.00,82.60,0
83.00,83.75,0
161.00,86.02,0
56.00,88.72,0
118.00,91.06,0
36.00,92.55,0
138.00,93.33,0
121.00,94.41,0
101.00,96.08,0
55.00,97.30,0
90.00,97.49,0
178.00,97.83,0
186.00,100.06,0
64.00,103.51,0
56.00,105.75,0
110.00,106.34,0
154.00,106.82,0
128.00,108.18,0
123.00,110.04,0
70.00,111.49,0
70.00,111.65,0
86.00,110.54,0
64.00,108.57,0
41.00,105.60,0
71.00,101.65,0
40.00,97.11,0
84.00,92.40,0
46.00,87.86,0
48.00,83.36,0
39.00,78.67,0
65.00,74.09,0
35.00,69.84,0
44.00,65.79,0
61.00,62.05,0
43.00,58.89,0
70.00,56.33,0
53.00,54.48,0
55.00,53.18,0
130.00,52.85,0
61.00,53.98,0
38.00,55.44,0
67.00,56.41,0
76.00,57.33,0
161.00,59.27,0
105.00,62.94,0
181.00,68.21,0
37.00,74.14,0
83.00,79.00,0
82.00,82.44,0
122.00,85.37,0
78.00,88.12,0
61.00,90.10,0
64.00,90.81,0
75.00,90.52,0
70.00,89.66,0
131.00,88.90,0
42.00,88.48,0
66.00,87.55,0
122.00,86.40,0
72.00,85.83,0
52.00,85.18,0
37.00,83.64,0
56.00,81.21,0
51.00,78.33,0
41.00,75.20,0
60.00,71.93,0
65.00,68.94,0
36.00,66.25,0
64.00,63.68,0
67.00,61.53,0
73.00,60.10,0
69.00,59.36,0
76.00,59.21,0
76.00,59.58,0
109.00,60.69,0
127.00,63.01,0
84.00,66.38,0
61.00,69.69,0
99.00,72.43,0
59.00,74.74,0
85.00,76.53,0
164.00,78.60,0
84.00,81.69,0
75.00,84.69,0
79.00,86.77,0
66.00,87.94,0
85.00,88.37,0
155.00,89.01,0
60.00,90.32,0
46.00,90.99,0
75.00,90.37,0
70.00,89.12,0
55.00,87.45,0
50.00,85.19,0
40.00,82.27,0
48.00,78.81,0
47.00,75.08,0
64.00,71.47,0
37.00,68.11,0
66.00,65.00,0
57.00,62.35,0
52.00,60.19,0
98.00,58.70,0
69.00,58.24,0
38.00,58.23,0
161.00,58.83,0
94.00,61.07,0
82.00,64.33,0
95.00,67.60,0
74.00,70.71,0
77.00,73.38,0
49.00,75.28,0
43.00,76.03,0
91.00,75.96,0
157.00,76.56,0
90.00,78.58,0
58.00,80.78,0
96.00,82.28,0
140.00,83.91,0
50.00,85.90,0
79.00,87.21,0
85.00,87.74,0
46.00,87.68,0
75.00,86.82,0
82.00,85.59,0
58.00,84.29,0
80.00,82.81,0
47.00,81.13,0
72.00,79.20,0
128.00,77.75,0
114.00,77.74,0
47.00,78.50,0
82.00,78.87,0
70.00,78.87,0
92.00,78.86,0
63.00,78.86,0
66.00,78.60,0
142.00,78.60,0
106.00,79.77,0
50.00,81.37,0
86.00,82.30,0
44.00,82.49,0
91.00,82.10,0
186.00,82.49,0
110.00,84.82,0
54.00,87.58,0
92.00,89.36,0
131.00,90.80,0
93.00,92.59,0
55.00,93.96,0
82.00,94.25,0
143.00,94.34,0
92.00,95.09,0
91.00,95.97,0
80.00,96.40,0
69.00,96.17,0
54.00,95.07,0
78.00,93.18,0
82.00,91.08,0
72.00,89.07,0
95.00,87.24,0
88.00,85.86,0
102.00,85.06,0
88.00,84.78,0
71.00,84.65,0
74.00,84.27,0
80.00,83.66,0
100.00,83.20,0
113.00,83.34,0
70.00,83.97,0
111.00,84.68,0
127.00,85.88,0
67.00,87.53,0
127.00,89.09,0
61.00,90.49,0
66.00,91.17,0
277.00,92.55,0
128.00,96.76,0
108.00,102.06,0
104.00,106.42,0
75.00,109.43,0
93.00,110.97,0
41.00,110.96,0
67.00,109.29,0
47.00,106.25,0
47.00,102.15,0
48.00,97.23,0
96.00,92.26,0
69.00,87.99,0
204.00,85.44,0
76.00,85.24,0
224.00,87.08,0
96.00,90.74,0
208.00,95.67,0
108.00,101.37,0
35.00,106.14,0
89.00,108.48,0
44.00,108.81,0
104.00,107.78,0
127.00,106.58,0
98.00,105.90,0
55.00,105.01,0
73.00,103.19,0
79.00,100.71,0
150.00,98.64,0
49.00,97.34,0
137.00,96.32,0
182.00,96.53,0
81.00,98.29,0
141.00,100.39,0
122.00,102.67,0
41.00,104.53,0
96.00,104.97,0
50.00,104.17,0
42.00,102.09,0
46.00,98.63,0
35.00,94.15,0
47.00,88.96,0
61.00,83.66,0
42.00,78.60,0
61.00,73.86,0
77.00,69.81,0
245.00,68.22,0
82.00,70.11,0
207.00,74.36,0
100.00,80.04,0
35.00,85.37,0
80.00,88.66,0
72.00,90.43,0
106.00,91.51,0
56.00,92.12,0
124.00,92.36,0
53.00,92.44,0
100.00,92.17,0
69.00,91.59,0
110.00,90.99,0
59.00,90.40,0
129.00,89.92,0
34.00,89.48,0
168.00,89.20,0
74.00,89.71,0
96.00,90.54,0
67.00,90.92,0
72.00,90.71,0
94.00,90.07,0
82.00,89.43,0
52.00,88.56,0
76.00,87.13,0
70.00,85.42,0
56.00,83.55,0
76.00,81.50,0
79.00,79.62,0
69.00,78.07,0
139.00,77.25,0
90.00,77.67,0
81.00,78.73,0
110.00,79.93,0
93.00,81.44,0
72.00,82.95,0
47.00,83.69,0
84.00,83.56,0
55.00,82.93,0
106.00,82.20,0
62.00,81.64,0
67.00,80.97,0
72.00,80.01,0
74.00,78.98,0
102.00,78.25,0
91.00,78.16,0
202.00,79.53,0
120.00,83.06,0
46.00,87.02,0
103.00,89.76,0
60.00,91.46,0
97.00,92.36,0
119.00,93.08,0
71.00,93.90,0
37.00,93.89,0
117.00,92.94,0
48.00,91.78,0
46.00,90.01,0
35.00,87.13,0
100.00,83.85,0
46.00,80.91,0
94.00,78.36,0
93.00,76.54,0
45.00,75.31,0
66.00,73.94,0
96.00,72.71,0
54.00,71.95,0
71.00,71.27,0
84.00,70.71,0
89.00,70.66,0
56.00,70.90,0
100.00,71.24,0
91.00,72.01,0
67.00,73.09,0
95.00,74.15,0
135.00,75.74,0
62.00,77.98,0
80.00,79.91,0
72.00,81.16,0
40.00,81.60,0
88.00,81.23,0
43.00,80.41,0
36.00,78.86,0
49.00,76.43,0
73.00,73.76,0
40.00,71.24,0
48.00,68.63,0
36.00,65.80,0
34.00,62.75,0
63.00,59.74,0
215.00,58.58,0
60.00,60.32,0
129.00,63.48,0
78.00,67.07,0
59.00,70.43,0
80.00,72.93,0
61.00,74.74,0
41.00,75.65,0
74.00,75.63,0
146.00,75.88,0
51.00,77.01,0
56.00,77.85,0
66.00,77.80,0
74.00,77.36,0
99.00,77.06,0
46.00,76.91,0
134.00,76.94,0
68.00,77.57,0
72.00,78.31,0
78.00,78.68,0
127.00,79.30,0
109.00,80.79,0
63.00,82.63,0
106.00,84.11,0
42.00,85.07,0
55.00,85.02,0
136.00,84.55,0
44.00,84.47,0
44.00,83.82,0
44.00,82.02,0
55.00,79.49,0
67.00,76.77,0
66.00,74.27,0
63.00,72.08,0
67.00,70.18,0
70.00,68.61,0
89.00,67.60,0
84.00,67.34,0
54.00,67.49,0
95.00,67.74,0
107.00,68.59,0
54.00,69.97,0
116.00,71.44,0
104.00,73.41,0
41.00,75.51,0
122.00,77.14,0
100.00,79.02,0
75.00,81.12,0
71.00,82.69,0
93.00,83.71,0
119.00,84.83,0
61.00,86.11,0
59.00,86.72,0
58.00,86.28,0
69.00,85.11,0
36.00,83.33,0
46.00,80.77,0
85.00,77.91,0
99.00,75.76,0
31.00,74.22,0
113.00,72.85,0
70.00,72.12,0
48.00,71.67,0
72.00,70.92,0
52.00,70.02,0
60.00,68.97,0
45.00,67.69,0
58.00,66.19,0
38.00,64.51,0
86.00,62.92,0
52.00,61.79,0
54.00,60.91,0
88.00,60.27,0
59.00,60.19,0
133.00,60.93,0
83.00,62.86,0
121.00,65.72,0
60.00,68.91,0
98.00,71.85,0
120.00,74.82,0
77.00,78.03,0
77.00,80.79,0
61.00,82.62,0
56.00,83.39,0
52.00,83.07,0
102.00,82.24,0
58.00,81.48,0
86.00,80.73,0
58.00,79.87,0
58.00,78.72,0
50.00,77.10,0
62.00,75.14,0
86.00,73.31,0
83.00,72.12,0
64.00,71.44,0
93.00,71.08,0
47.00,70.91,0
80.00,70.64,0
98.00,70.62,0
56.00,71.02,0
48.00,71.10,0
95.00,70.86,0
102.00,71.14,0
88.00,72.20,0
52.00,73.34,0
64.00,73.90,0
45.00,73.74,0
164.00,73.81,0
95.00,75.28,0
47.00,77.21,0
103.00,78.54,0
80.00,79.71,0
102.00,80.98,0
47.00,82.00,0
72.00,82.28,0
43.00,81.71,0
89.00,80.62,0
215.00,80.73,0
95.00,83.21,0
37.00,85.99,0
83.00,87.35,0
46.00,87.53,0
40.00,86.56,0
85.00,84.72,0
48.00,82.64,0
77.00,80.47,0
69.00,78.40,0
80.00,76.67,0
36.00,75.01,0
58.00,73.01,0
74.00,70.94,0
36.00,69.02,0
44.00,66.86,0
120.00,65.02,0
73.00,64.42,0
39.00,64.36,0
128.00,64.49,0
44.00,65.26,0
81.00,66.14,0
84.00,67.02,0
82.00,68.21,0
69.00,69.48,0
52.00,70.40,0
57.00,70.67,0
62.00,70.42,0
76.00,70.04,0
43.00,69.55,0
220.00,70.04,0
55.00,72.52,0
54.00,75.18,0
45.00,76.44,0
51.00,76.49,0
37.00,75.52,0
36.00,73.60,0
144.00,71.81,0
36.00,71.04,0
49.00,70.30,0
56.00,68.99,0
56.00,67.51,0
116.00,66.49,0
51.00,66.34,0
56.00,66.30,0
54.00,65.87,0
90.00,65.46,0
66.00,65.47,0
77.00,65.79,0
74.00,66.28,0
87.00,67.04,0
61.00,67.96,0
72.00,68.74,0
83.00,69.43,0
96.00,70.42,0
80.00,71.78,0
94.00,73.33,0
71.00,74.89,0
66.00,76.09,0
64.00,76.70,0
70.00,76.80,0
82.00,76.70,0
37.00,76.33,0
63.00,75.34,0
52.00,73.87,0
36.00,71.99,0
36.00,69.50,0
53.00,66.64,0
37.00,63.74,0
35.00,60.77,0
70.00,57.97,0
35.00,55.66,0
76.00,53.85,0
59.00,52.73,0
54.00,52.19,0
71.00,52.02,0
58.00,52.27,0
92.00,53.04,0
75.00,54.50,0
86.00,56.51,0
76.00,58.85,0
137.00,61.78,0
76.00,65.49,0
84.00,69.22,0
42.00,72.13,0
66.00,73.89,0
93.00,74.98,0
100.00,76.25,0
57.00,77.58,0
55.00,78.25,0
76.00,78.18,0
57.00,77.72,0
52.00,76.80,0
102.00,75.74,0
59.00,75.03,0
36.00,74.13,0
82.00,72.75,0
59.00,71.44,0
54.00,70.18,0
62.00,68.80,0
37.00,67.25,0
50.00,65.38,0
83.00,63.63,0
75.00,62.59,0
45.00,62.03,0
61.00,61.43,0
50.00,60.73,0
78.00,60.17,0
107.00,60.34,0
55.00,61.34,0
75.00,62.49,0
68.00,63.55,0
77.00,64.64,0
88.00,65.89,0
140.00,67.92,0
58.00,70.73,0
76.00,73.27,0
73.00,75.13,0
88.00,76.61,0
75.00,77.89,0
111.00,79.17,0
68.00,80.54,0
79.00,81.62,0
127.00,82.65,0
60.00,83.95,0
49.00,84.61,0
38.00,83.94,0
49.00,82.09,0
44.00,79.47,0
38.00,76.30,0
57.00,72.84,0
157.00,70.36,0
42.00,69.57,0
56.00,69.13,0
80.00,68.43,0
56.00,67.89,0
78.00,67.47,0
71.00,67.26,0
80.00,67.35,0
73.00,67.71,0
98.00,68.41,0
83.00,69.60,0
70.00,70.95,0
68.00,72.04,0
81.00,72.86,0
166.00,74.35,0
121.00,77.43,0
80.00,81.23,0
50.00,84.17,0
63.00,85.62,0
85.00,86.05,0
98.00,86.26,0
78.00,86.54,0
78.00,86.64,0
56.00,86.24,0
60.00,85.16,0
44.00,83.34,0
114.00,81.36,0
47.00,79.80,0
37.00,78.01,0
43.00,75.41,0
40.00,72.28,0
43.00,68.89,0
70.00,65.66,0
37.00,62.85,0
84.00,60.52,0
40.00,58.77,0
70.00,57.43,0
48.00,56.40,0
39.00,55.45,0
124.00,54.96,0
63.00,55.66,0
71.00,57.01,0
82.00,58.51,0
127.00,60.73,0
79.00,63.84,0
43.00,66.80,0
36.00,68.49,0
118.00,69.44,0
86.00,70.82,0
78.00,72.57,0
73.00,74.10,0
49.00,75.07,0
67.00,75.30,0
72.00,75.08,0
51.00,74.61,0
81.00,73.88,0
56.00,73.11,0
50.00,72.12,0
46.00,70.65,0
49.00,68.78,0
37.00,66.57,0
61.00,64.21,0
79.00,62.26,0
65.00,61.06,0
45.00,60.24,0
84.00,59.59,0
76.00,59.52,0
43.00,59.80,0
103.00,60.23,0
70.00,61.19,0
98.00,62.72,0
66.00,64.56,0
43.00,66.08,0
75.00,66.93,0
64.00,67.49,0
90.00,68.10,0
60.00,68.83,0
93.00,69.61,0
80.00,70.59,0
83.00,71.79,0
72.00,72.95,0
60.00,73.79,0
57.00,74.05,0
44.00,73.60,0
100.00,72.85,0
69.00,72.46,0
92.00,72.50,0
81.00,72.89,0
35.00,73.17,0
75.00,72.83,0
100.00,72.51,0
42.00,72.50,0
43.00,71.96,0
43.00,70.58,0
93.00,69.04,0
84.00,68.17,0
61.00,67.92,0
59.00,67.67,0
40.00,67.06,0
48.00,65.91,0
57.00,64.46,0
89.00,63.30,0
82.00,62.95,0
91.00,63.44,0
96.00,64.69,0
47.00,66.23,0
67.00,67.34,0
106.00,68.32,0
93.00,69.88,0
99.00,71.98,0
87.00,74.32,0
100.00,76.73,0
70.00,78.97,0
55.00,80.50,0
118.00,81.46,0
40.00,82.23,0
77.00,82.37,0
72.00,81.95,0
96.00,81.54,0
36.00,81.02,0
46.00,79.69,0
46.00,77.49,0
53.00,74.84,0
50.00,72.01,0
114.00,69.69,0
72.00,68.51,0
102.00,68.31,0
70.00,68.77,0
82.00,69.52,0
39.00,70.05,0
51.00,69.88,0
73.00,69.21,0
75.00,68.66,0
86.00,68.52,0
182.00,69.71,0
92.00,72.78,0
74.00,76.34,0
77.00,79.13,0
93.00,81.30,0
63.00,82.95,0
98.00,84.08,0
52.00,84.73,0
128.00,85.15,0
64.00,85.73,0
43.00,85.80,0
86.00,84.98,0
42.00,83.67,0
80.00,81.98,0
45.00,80.03,0
38.00,77.62,0
61.00,74.74,0
64.00,71.93,0
43.00,69.33,0
73.00,66.91,0
37.00,64.72,0
131.00,63.22,0
60.00,62.96,0
72.00,63.36,0
42.00,63.60,0
112.00,63.89,0
68.00,64.77,0
58.00,65.82,0
80.00,66.62,0
67.00,67.38,0
63.00,68.02,0
108.00,68.75,0
43.00,69.69,0
82.00,70.39,0
63.00,70.82,0
89.00,71.26,0
72.00,71.83,0
88.00,72.54,0
79.00,73.38,0
85.00,74.33,0
48.00,75.05,0
95.00,75.40,0
69.00,75.70,0
65.00,75.90,0
42.00,75.53,0
38.00,74.31,0
62.00,72.41,0
35.00,70.20,0
60.00,67.79,0
52.00,65.42,0
213.00,64.58,0
58.00,66.22,0
60.00,68.50,0
78.00,70.07,0
66.00,71.29,0
59.00,72.08,0
55.00,72.27,0
58.00,71.90,0
64.00,71.18,0
66.00,70.37,0
138.00,70.18,0
90.00,71.29,0
98.00,73.21,0
79.00,75.27,0
76.00,77.09,0
88.00,78.56,0
127.00,80.22,0
115.00,82.61,0
62.00,85.15,0
76.00,86.88,0
90.00,87.83,0
69.00,88.34,0
55.00,88.15,0
92.00,87.34,0
50.00,86.22,0
49.00,84.51,0
61.00,82.15,0
71.00,79.64,0
35.00,77.07,0
41.00,74.06,0
36.00,70.59,0
40.00,66.88,0
46.00,63.19,0
36.00,59.68,0
39.00,56.34,0
60.00,53.38,0
92.00,51.43,0
35.00,50.56,0
48.00,49.96,0
124.00,49.96,0
46.00,51.13,0
60.00,52.60,0
73.00,53.96,0
52.00,55.34,0
80.00,56.68,0
77.00,58.22,0
94.00,60.17,0
81.00,62.52,0
125.00,65.38,0
55.00,68.59,0
64.00,71.23,0
61.00,72.91,0
95.00,74.09,0
135.00,75.74,0
67.00,78.05,0
42.00,79.80,0
69.00,80.31,0
70.00,80.11,0
43.00,79.40,0
58.00,78.00,0
191.00,77.26,0
101.00,78.61,0
83.00,80.98,0
38.00,82.62,0
38.00,82.77,0
50.00,81.52,0
44.00,79.37,0
52.00,76.68,0
39.00,73.66,0
56.00,70.46,0
93.00,67.72,0
62.00,65.92,0
113.00,65.09,0
39.00,65.01,0
76.00,65.01,0
60.00,64.93,0
64.00,64.88,0
86.00,64.95,0
90.00,65.56,0
73.00,66.65,0
87.00,67.94,0
99.00,69.54,0
106.00,71.69,0
82.00,74.20,0
67.00,76.45,0
82.00,78.08,0
52.00,79.09,0
67.00,79.33,0
36.00,78.72,0
37.00,77.10,0
52.00,74.67,0
42.00,71.87,0
36.00,68.77,0
57.00,65.56,0
36.00,62.49,0
48.00,59.55,0
36.00,56.74,0
41.00,54.06,0
79.00,51.86,0
46.00,50.50,0
38.00,49.53,0
67.00,48.71,0
61.00,48.40,0
61.00,48.64,0
37.00,49.02,0
72.00,49.41,0
64.00,50.09,0
72.00,51.21,0
85.00,52.78,0
71.00,54.82,0
87.00,57.15,0
110.00,59.96,0
80.00,63.31,0
90.00,66.74,0
70.00,69.87,0
64.00,72.37,0
67.00,74.06,0
54.00,74.98,0
70.00,75.23,0
42.00,74.88,0
41.00,73.74,0
134.00,72.57,0
80.00,72.49,0
43.00,72.83,0
104.00,72.90,0
37.00,72.93,0
58.00,72.50,0
39.00,71.35,0
46.00,69.62,0
57.00,67.57,0
78.00,65.74,0
66.00,64.48,0
61.00,63.63,0
80.00,63.10,0
56.00,62.90,0
68.00,62.81,0
77.00,62.89,0
68.00,63.27,0
85.00,63.94,0
91.00,65.04,0
78.00,66.58,0
80.00,68.25,0
50.00,69.65,0
64.00,70.43,0
157.00,71.46,0
113.00,73.94,0
35.00,76.84,0
78.00,78.66,0
107.00,79.91,0
117.00,81.60,0
144.00,84.19,0
54.00,87.17,0
38.00,88.95,0
43.00,88.78,0
47.00,87.15,0
45.00,84.54,0
65.00,81.43,0
48.00,78.22,0
40.00,74.85,0
45.00,71.26,0
67.00,67.80,0
95.00,65.19,0
77.00,63.82,0
127.00,63.77,0
45.00,64.74,0
80.00,65.79,0
70.00,66.68,0
77.00,67.61,0
62.00,68.45,0
119.00,69.47,0
55.00,70.87,0
77.00,72.13,0
79.00,73.08,0
68.00,73.89,0
64.00,74.37,0
119.00,74.87,0
58.00,75.76,0
73.00,76.48,0
73.00,76.78,0
56.00,76.74,0
68.00,76.27,0
62.00,75.49,0
54.00,74.44,0
86.00,73.29,0
57.00,72.33,0
45.00,71.24,0
41.00,69.61,0
41.00,67.47,0
48.00,65.02,0
37.00,62.45,0
36.00,59.74,0
42.00,56.95,0
39.00,54.26,0
46.00,51.79,0
58.00,49.77,0
61.00,48.43,0
47.00,47.69,0
55.00,47.28,0
68.00,47.27,0
85.00,47.98,0
81.00,49.57,0
55.00,51.63,0
86.00,53.78,0
67.00,56.07,0
65.00,58.31,0
74.00,60.32,0
180.00,63.10,0
147.00,67.94,0
105.00,74.15,0
114.00,80.31,0
50.00,85.49,0
41.00,88.73,0
58.00,89.82,0
95.00,89.76,0
34.00,89.08,0
71.00,87.54,0
35.00,85.22,0
63.00,82.32,0
70.00,79.30,0
106.00,76.93,0
105.00,75.80,0
74.00,75.66,0
97.00,75.93,0
70.00,76.43,0
60.00,76.74,0
70.00,76.58,0
62.00,76.10,0
64.00,75.34,0
55.00,74.30,0
134.00,73.60,0
46.00,73.69,0
82.00,73.86,0
77.00,73.92,0
80.00,74.14,0
66.00,74.35,0
130.00,74.89,0
77.00,76.14,0
77.00,77.57,0
72.00,78.59,0
37.00,78.90,0
61.00,78.25,0
123.00,77.49,0
86.00,77.60,0
58.00,78.03,0
47.00,77.84,0
42.00,76.73,0
56.00,74.90,0
38.00,72.62,0
58.00,70.06,0
48.00,67.47,0
61.00,65.04,0
49.00,62.86,0
48.00,60.83,0
39.00,58.80,0
38.00,56.66,0
46.00,54.50,0
89.00,52.85,0
64.00,52.24,0
42.00,52.18,0
65.00,52.18,0
83.00,52.56,0
104.00,53.87,0
102.00,56.35,0
101.00,59.74,0
66.00,63.40,0
64.00,66.54,0
138.00,69.47,0
51.00,72.63,0
124.00,75.63,0
86.00,78.60,0
102.00,81.54,0
100.00,84.30,0
110.00,87.02,0
59.00,89.34,0
38.00,90.35,0
70.00,89.83,0
37.00,88.24,0
57.00,85.77,0
65.00,82.85,0
64.00,79.96,0
66.00,77.27,0
109.00,75.18,0
40.00,73.79,0
133.00,72.95,0
39.00,72.75,0
59.00,72.43,0
98.00,71.90,0
36.00,71.52,0
90.00,71.02,0
56.00,70.54,0
64.00,70.04,0
79.00,69.52,0
45.00,69.03,0
72.00,68.37,0
68.00,67.73,0
86.00,67.44,0
75.00,67.58,0
70.00,67.99,0
71.00,68.41,0
67.00,68.78,0
71.00,69.07,0
67.00,69.28,0
67.00,69.40,0
89.00,69.60,0
83.00,70.15,0
58.00,70.84,0
62.00,71.18,0
52.00,71.02,0
54.00,70.37,0
92.00,69.63,0
49.00,69.14,0
66.00,68.59,0
54.00,67.86,0
46.00,66.87,0
43.00,65.47,0
46.00,63.71,0
48.00,61.79,0
54.00,59.90,0
55.00,58.23,0
67.00,56.94,0
74.00,56.26,0
68.00,56.23,0
52.00,56.50,0
69.00,56.84,0
91.00,57.54,0
64.00,58.77,0
126.00,60.60,0
71.00,63.20,0
120.00,66.29,0
90.00,69.76,0
141.00,73.72,0
65.00,77.92,0
61.00,81.27,0
76.00,83.32,0
74.00,84.49,0
81.00,85.11,0
78.00,85.36,0
87.00,85.41,0
39.00,85.02,0
81.00,83.95,0
38.00,82.34,0
68.00,80.24,0
96.00,78.24,0
132.00,77.37,0
76.00,77.76,0
103.00,78.68,0
57.00,79.58,0
34.00,79.71,0
47.00,78.58,0
53.00,76.62,0
56.00,74.33,0
51.00,71.92,0
80.00,69.67,0
41.00,67.74,0
61.00,65.88,0
82.00,64.32,0
99.00,63.68,0
78.00,64.04,0
88.00,65.04,0
150.00,67.00,0
57.00,69.95,0
93.00,72.84,0
72.00,75.22,0
78.00,77.15,0
96.00,78.75,0
124.00,80.62,0
90.00,82.96,0
57.00,84.98,0
65.00,85.94,0
37.00,85.67,0
45.00,84.16,0
90.00,82.02,0
43.00,79.89,0
46.00,77.47,0
85.00,74.88,0
35.00,72.52,0
37.00,69.91,0
50.00,66.93,0
35.00,63.87,0
69.00,60.99,0
52.00,58.65,0
58.00,56.84,0
80.00,55.63,0
72.00,55.28,0
83.00,55.72,0
77.00,56.82,0
96.00,58.52,0
56.00,60.57,0
90.00,62.59,0
79.00,64.66,0
80.00,66.81,0
75.00,68.82,0
62.00,70.49,0
79.00,71.73,0
121.00,73.12,0
84.00,75.11,0
51.00,76.95,0
81.00,78.01,0
48.00,78.40,0
68.00,78.12,0
63.00,77.37,0
127.00,76.89,0
44.00,76.97,0
66.00,76.82,0
36.00,75.91,0
37.00,74.17,0
83.00,71.99,0
47.00,70.02,0
44.00,68.03,0
102.00,66.23,0
42.00,65.07,0
54.00,64.02,0
121.00,63.35,0
87.00,63.92,0
64.00,65.21,0
146.00,67.01,0
70.00,69.68,0
65.00,72.31,0
75.00,74.18,0
56.00,75.40,0
93.00,76.14,0
153.00,77.45,0
78.00,79.83,0
86.00,82.26,0
68.00,84.02,0
64.00,84.94,0
51.00,84.87,0
72.00,83.96,0
61.00,82.62,0
44.00,80.83,0
40.00,78.35,0
65.00,75.44,0
46.00,72.51,0
46.00,69.57,0
35.00,66.46,0
44.00,63.23,0
40.00,60.02,0
82.00,57.31,0
106.00,55.90,0
74.00,56.03,0
61.00,56.89,0
75.00,57.89,0
55.00,58.94,0
77.00,59.96,0
133.00,61.58,0
62.00,64.12,0
76.00,66.68,0
74.00,68.81,0
82.00,70.67,0
61.00,72.23,0
133.00,73.81,0
71.00,75.86,0
83.00,77.87,0
62.00,79.29,0
127.00,80.52,0
73.00,82.00,0
80.00,83.34,0
72.00,84.11,0
42.00,84.12,0
72.00,83.23,0
67.00,81.90,0
62.00,80.39,0
81.00,78.83,0
42.00,77.24,0
39.00,75.17,0
92.00,72.86,0
40.00,70.88,0
44.00,68.81,0
41.00,66.36,0
53.00,63.78,0
63.00,61.45,0
37.00,59.43,0
48.00,57.46,0
45.00,55.54,0
46.00,53.76,0
127.00,52.81,0
67.00,53.38,0
73.00,54.80,0
73.00,56.43,0
82.00,58.30,0
40.00,60.08,0
107.00,61.67,0
111.00,63.86,0
101.00,66.97,0
66.00,70.25,0
70.00,72.93,0
66.00,74.81,0
75.00,76.05,0
99.00,77.08,0
69.00,78.14,0
62.00,78.83,0
41.00,78.69,0
51.00,77.60,0
92.00,76.14,0
41.00,74.80,0
37.00,73.06,0
73.00,70.88,0
50.00,68.80,0
35.00,66.67,0
78.00,64.49,0
53.00,62.71,0
44.00,61.17,0
35.00,59.44,0
82.00,57.77,0
54.00,56.69,0
45.00,55.93,0
124.00,55.72,0
68.00,56.69,0
90.00,58.45,0
72.00,60.50,0
113.00,62.92,0
64.00,65.67,0
115.00,68.53,0
100.00,71.69,0
90.00,75.07,0
73.00,78.07,0
108.00,80.62,0
86.00,82.98,0
114.00,85.29,0
73.00,87.43,0
63.00,88.83,0
83.00,89.29,0
57.00,89.05,0
72.00,88.16,0
41.00,86.56,0
59.00,84.26,0
36.00,81.32,0
44.00,77.85,0
47.00,74.05,0
44.00,70.22,0
34.00,66.39,0
66.00,62.75,0
37.00,59.59,0
50.00,56.79,0
66.00,54.46,0
56.00,52.85,0
39.00,51.68,0
113.00,51.11,0
103.00,52.05,0
110.00,54.60,0
67.00,57.95,0
54.00,61.05,0
106.00,63.70,0
92.00,66.57,0
95.00,69.73,0
68.00,72.72,0
92.00,75.26,0
43.00,77.13,0
99.00,78.30,0
95.00,79.38,0
112.00,80.88,0
141.00,83.15,0
97.00,86.19,0
50.00,88.84,0
73.00,90.14,0
76.00,90.40,0
88.00,90.20,0
39.00,89.47,0
64.00,87.86,0
41.00,85.45,0
37.00,82.30,0
61.00,78.64,0
38.00,74.90,0
47.00,71.10,0
93.00,67.72,0
78.00,65.49,0
53.00,64.12,0
204.00,64.17,0
147.00,67.10,0
99.00,72.03,0
74.00,76.87,0
67.00,80.59,0
81.00,83.15,0
96.00,85.03,0
38.00,86.21,0
88.00,86.42,0
101.00,86.32,0
116.00,86.75,0
84.00,87.66,0
80.00,88.46,0
123.00,89.17,0
107.00,90.35,0
51.00,91.46,0
100.00,91.84,0
52.00,91.60,0
96.00,90.86,0
76.00,89.94,0
60.00,88.82,0
40.00,86.99,0
80.00,84.54,0
41.00,81.87,0
40.00,78.82,0
41.00,75.23,0
40.00,71.36,0
51.00,67.49,0
36.00,63.79,0
74.00,60.49,0
44.00,57.87,0
41.00,55.64,0
49.00,53.56,0
65.00,51.89,0
53.00,50.83,0
82.00,50.42,0
55.00,50.70,0
77.00,51.45,0
92.00,52.80,0
89.00,54.97,0
75.00,57.67,0
71.00,60.37,0
79.00,62.87,0
41.00,64.92,0
98.00,66.48,0
99.00,68.23,0
62.00,70.27,0
107.00,72.23,0
65.00,74.15,0
139.00,76.26,0
78.00,78.81,0
71.00,81.18,0
40.00,82.44,0
83.00,82.61,0
79.00,82.36,0
36.00,81.74,0
56.00,80.28,0
36.00,78.05,0
70.00,75.40,0
62.00,72.86,0
46.00,70.51,0
47.00,68.04,0
150.00,66.32,0
37.00,65.98,0
90.00,66.14,0
84.00,66.56,0
60.00,67.31,0
66.00,67.88,0
76.00,68.29,0
79.00,68.80,0
91.00,69.59,0
60.00,70.55,0
98.00,71.50,0
127.00,73.01,0
90.00,75.40,0
74.00,77.87,0
160.00,80.47,0
82.00,83.71,0
72.00,86.68,0
46.00,88.31,0
78.00,88.64,0
57.00,88.11,0
64.00,86.92,0
47.00,85.04,0
55.00,82.57,0
45.00,79.64,0
78.00,76.62,0
48.00,73.84,0
41.00,71.08,0
37.00,68.00,0
53.00,64.80,0
39.00,61.73,0
36.00,58.74,0
85.00,56.14,0
41.00,54.36,0
52.00,53.01,0
44.00,51.80,0
63.00,50.84,0
86.00,50.55,0
70.00,51.19,0
74.00,52.47,0
72.00,54.11,0
89.00,56.10,0
98.00,58.65,0
103.00,61.86,0
90.00,65.51,0
68.00,69.02,0
73.00,71.88,0
41.00,73.78,0
98.00,74.87,0
50.00,75.60,0
133.00,76.39,0
56.00,77.54,0
84.00,78.57,0
35.00,78.90,0
71.00,78.40,0
35.00,77.18,0
48.00,75.27,0
71.00,72.99,0
58.00,70.90,0
122.00,69.52,0
34.00,68.95,0
66.00,68.35,0
94.00,67.78,0
55.00,67.67,0
82.00,67.71,0
126.00,68.35,0
69.00,69.91,0
92.00,71.73,0
36.00,73.13,0
87.00,73.86,0
57.00,74.17,0
99.00,74.44,0
70.00,74.87,0
104.00,75.55,0
50.00,76.28,0
66.00,76.55,0
86.00,76.44,0
70.00,76.38,0
88.00,76.40,0
94.00,76.70,0
59.00,77.16,0
72.00,77.31,0
46.00,76.93,0
66.00,76.00,0
91.00,75.00,0
48.00,74.21,0
36.00,72.99,0
97.00,71.45,0
45.00,70.18,0
34.00,68.73,0
72.00,66.89,0
57.00,65.22,0
47.00,63.72,0
44.00,62.09,0
62.00,60.43,0
73.00,59.16,0
57.00,58.43,0
97.00,58.29,0
66.00,58.88,0
61.00,59.77,0
86.00,60.74,0
78.00,62.05,0
227.00,64.87,0
80.00,69.92,0
116.00,75.59,0
67.00,80.54,0
67.00,84.26,0
72.00,86.56,0
75.00,87.80,0
74.00,88.29,0
93.00,88.36,0
45.00,88.00,0
47.00,86.72,0
56.00,84.48,0
49.00,81.71,0
54.00,78.63,0
36.00,75.28,0
44.00,71.65,0
45.00,67.93,0
71.00,64.54,0
37.00,61.69,0
65.00,59.22,0
38.00,57.07,0
74.00,55.34,0
51.00,54.15,0
85.00,53.60,0
48.00,53.64,0
74.00,54.01,0
47.00,54.50,0
59.00,54.96,0
139.00,56.00,0
102.00,58.57,0
112.00,62.33,0
72.00,66.42,0
83.00,70.13,0
80.00,73.26,0
88.00,75.95,0
65.00,78.14,0
74.00,79.63,0
115.00,80.84,0
82.00,82.28,0
46.00,83.34,0
100.00,83.65,0
77.00,83.79,0
46.00,83.61,0
61.00,82.60,0
56.00,80.95,0
53.00,78.89,0
46.00,76.45,0
59.00,73.74,0
37.00,70.91,0
37.00,67.82,0
52.00,64.58,0
38.00,61.46,0
36.00,58.41,0
117.00,56.04,0
102.00,55.48,0
47.00,56.25,0
73.00,57.20,0
67.00,58.18,0
40.00,59.04,0
150.00,60.20,0
87.00,62.62,0
106.00,65.95,0
96.00,69.56,0
57.00,72.94,0
46.00,75.22,0
124.00,76.71,0
40.00,78.08,0
49.00,78.62,0
74.00,78.19,0
55.00,77.36,0
99.00,76.50,0
81.00,76.09,0
69.00,75.99,0
50.00,75.62,0
78.00,74.89,0
37.00,73.86,0
39.00,72.21,0
73.00,70.12,0
36.00,68.05,0
35.00,65.71,0
83.00,63.33,0
36.00,61.38,0
42.00,59.50,0
84.00,57.79,0
40.00,56.64,0
73.00,55.86,0
85.00,55.66,0
63.00,56.20,0
72.00,57.08,0
76.00,58.20,0
81.00,59.65,0
73.00,61.35,0
105.00,63.36,0
82.00,65.81,0
121.00,68.71,0
46.00,71.71,0
77.00,74.01,0
57.00,75.44,0
61.00,76.11,0
80.00,76.25,0
92.00,76.42,0
92.00,76.97,0
103.00,77.97,0
208.00,80.33,0
36.00,84.05,0
98.00,87.23,0
69.00,89.24,0
65.00,90.30,0
174.00,91.21,0
48.00,92.69,0
118.00,93.96,0
53.00,94.60,0
75.00,94.43,0
142.00,94.03,0
90.00,94.34,0
35.00,94.41,0
82.00,93.35,0
80.00,91.76,0
63.00,90.04,0
46.00,87.84,0
84.00,85.24,0
173.00,83.66,0
116.00,84.20,0
186.00,86.72,0
63.00,90.34,0
81.00,93.35,0
44.00,94.77,0
184.00,95.64,0
62.00,97.06,0
70.00,98.05,0
93.00,98.00,0
120.00,97.83,0
44.00,97.59,0
45.00,96.27,0
100.00,94.01,0
36.00,91.51,0
71.00,88.60,0
73.00,85.54,0
64.00,82.70,0
43.00,79.83,0
181.00,77.74,0
80.00,77.58,0
124.00,78.75,0
276.00,82.02,0
141.00,88.55,0
248.00,97.26,0
133.00,107.02,0
204.00,116.83,0
90.00,125.64,0
115.00,132.29,0
63.00,136.15,0
96.00,137.38,0
95.00,136.67,0
54.00,134.40,0
215.00,131.69,0
123.00,130.29,0
67.00,129.29,0
68.00,126.94,0
116.00,123.59,0
54.00,119.89,0
196.00,116.58,0
106.00,114.78,0
46.00,113.36,0
50.00,110.57,0
84.00,106.70,0
143.00,103.22,0
41.00,100.56,0
75.00,97.69,0
116.00,94.82,0
57.00,92.52,0
169.00,91.01,0
112.00,91.04,0
67.00,91.85,0
205.00,93.17,0
69.00,95.59,0
145.00,98.30,0
70.00,100.66,0
49.00,101.87,0
65.00,101.36,0
130.00,100.17,0
42.00,98.99,0
72.00,97.18,0
54.00,94.57,0
85.00,91.66,0
51.00,88.69,0
97.00,85.84,0
76.00,83.50,0
70.00,81.59,0
56.00,79.70,0
80.00,77.79,0
67.00,76.11,0
72.00,74.68,0
68.00,73.43,0
55.00,72.22,0
97.00,71.19,0
51.00,70.54,0
54.00,69.79,0
49.00,68.65,0
35.00,67.05,0
50.00,65.03,0
77.00,63.09,0
46.00,61.60,0
80.00,60.49,0
97.00,60.14,0
34.00,60.44,0
44.00,60.40,0
76.00,60.01,0
69.00,59.91,0
42.00,59.98,0
41.00,59.64,0
61.00,58.95,0
74.00,58.43,0
84.00,58.53,0
65.00,59.20,0
76.00,60.15,0
69.00,61.25,0
136.00,62.95,0
39.00,65.30,0
62.00,67.21,0
170.00,69.18,0
40.00,72.06,0
62.00,74.45,0
43.00,75.51,0
146.00,76.25,0
62.00,77.58,0
102.00,79.09,0
128.00,80.88,0
112.00,83.45,0
79.00,86.21,0
93.00,88.46,0
48.00,89.83,0
83.00,90.14,0
88.00,89.91,0
62.00,89.41,0
74.00,88.44,0
191.00,88.09,0
57.00,89.15,0
100.00,90.35,0
49.00,90.80,0
57.00,90.25,0
69.00,88.76,0
63.00,86.83,0
85.00,84.80,0
83.00,83.07,0
58.00,81.56,0
112.00,80.28,0
94.00,79.77,0
102.00,80.06,0
77.00,80.74,0
76.00,81.33,0
82.00,81.67,0
86.00,81.91,0
71.00,82.08,0
66.00,81.92,0
83.00,81.46,0
70.00,80.91,0
59.00,80.15,0
72.00,79.07,0
65.00,77.85,0
40.00,76.35,0
50.00,74.30,0
68.00,72.01,0
50.00,69.84,0
35.00,67.56,0
57.00,65.05,0
36.00,62.53,0
45.00,59.98,0
73.00,57.71,0
40.00,55.98,0
73.00,54.69,0
120.00,54.42,0
66.00,55.55,0
60.00,57.14,0
67.00,58.56,0
73.00,59.91,0
70.00,61.29,0
64.00,62.61,0
70.00,63.75,0
63.00,64.72,0
72.00,65.53,0
92.00,66.45,0
61.00,67.57,0
72.00,68.56,0
55.00,69.19,0
124.00,69.91,0
58.00,71.12,0
91.00,72.43,0
41.00,73.35,0
65.00,73.60,0
52.00,73.19,0
39.00,72.19,0
62.00,70.63,0
44.00,68.82,0
53.00,66.85,0
39.00,64.71,0
54.00,62.47,0
33.00,60.19,0
38.00,57.78,0
69.00,55.51,0
46.00,53.78,0
55.00,52.48,0
57.00,51.51,0
40.00,50.80,0
47.00,50.10,0
73.00,49.63,0
93.00,49.98,0
42.00,51.10,0
96.00,52.51,0
54.00,54.22,0
82.00,56.10,0
61.00,57.98,0
119.00,60.16,0
78.00,62.94,0
143.00,66.44,0
70.00,70.49,0
70.00,74.15,0
80.00,76.88,0
54.00,78.76,0
86.00,79.84,0
105.00,80.76,0
63.00,81.76,0
50.00,82.14,0
62.00,81.59,0
39.00,80.22,0
63.00,78.21,0
64.00,75.99,0
37.00,73.67,0
52.00,71.05,0
50.00,68.28,0
49.00,65.59,0
36.00,62.89,0
61.00,60.27,0
56.00,58.05,0
152.00,57.13,0
66.00,58.08,0
220.00,61.03,0
325.00,68.13,0
112.00,79.38,0
87.00,90.56,0
142.00,99.60,0
39.00,106.57,0
125.00,111.19,0
54.00,113.87,0
124.00,115.08,0
42.00,115.05,0
160.00,114.25,0
43.00,113.22,0
102.00,111.57,0
37.00,108.97,0
86.00,105.55,0
49.00,101.61,0
64.00,97.31,0
90.00,93.02,0
84.00,89.40,0
38.00,86.14,0
45.00,82.50,0
61.00,78.57,0
48.00,74.77,0
40.00,71.04,0
45.00,67.28,0
36.00,63.57,0
84.00,60.31,0
80.00,58.19,0
70.00,57.24,0
74.00,57.07,0
60.00,57.34,0
104.00,58.12,0
76.00,59.64,0
63.00,61.46,0
84.00,63.18,0
70.00,64.89,0
64.00,66.42,0
74.00,67.63,0
110.00,68.98,0
110.00,71.07,0
68.00,73.59,0
78.00,75.75,0
81.00,77.41,0
46.00,78.47,0
125.00,79.15,0
62.00,80.01,0
37.00,80.38,0
64.00,79.66,0
36.00,78.13,0
40.00,75.85,0
60.00,73.06,0
58.00,70.33,0
36.00,67.68,0
90.00,65.25,0
57.00,63.50,0
36.00,62.06,0
184.00,61.50,0
43.00,62.72,0
68.00,64.38,0
60.00,65.50,0
64.00,66.26,0
44.00,66.57,0
69.00,66.43,0
42.00,65.98,0
35.00,65.01,0
119.00,64.04,0
78.00,64.08,0
82.00,64.94,0
92.00,66.20,0
78.00,67.82,0
140.00,70.01,0
77.00,72.95,0
61.00,75.71,0
141.00,78.11,0
75.00,80.81,0
153.00,83.85,0
122.00,87.54,0
46.00,91.12,0
62.00,93.11,0
40.00,93.29,0
47.00,91.89,0
61.00,89.40,0
44.00,86.30,0
35.00,82.61,0
39.00,78.33,0
49.00,73.83,0
81.00,69.77,0
37.00,66.43,0
37.00,63.29,0
69.00,60.29,0
58.00,57.95,0
91.00,56.53,0
41.00,55.91,0
67.00,55.56,0
72.00,55.51,0
39.00,55.70,0
53.00,55.68,0
74.00,55.63,0
75.00,56.04,0
63.00,56.87,0
83.00,57.97,0
48.00,59.18,0
76.00,60.25,0
79.00,61.38,0
71.00,62.73,0
55.00,63.96,0
128.00,65.33,0
69.00,67.36,0
52.00,69.30,0
103.00,70.76,0
49.00,72.07,0
70.00,72.93,0
43.00,73.08,0
45.00,72.43,0
51.00,71.07,0
58.00,69.37,0
36.00,67.48,0
64.00,65.41,0
41.00,63.37,0
35.00,61.22,0
78.00,59.13,0
41.00,57.50,0
77.00,56.32,0
101.00,56.01,0
70.00,56.80,0
73.00,58.11,0
102.00,59.82,0
82.00,62.10,0
78.00,64.62,0
109.00,67.26,0
70.00,70.07,0
80.00,72.61,0
99.00,74.85,0
145.00,77.57,0
56.00,80.76,0
91.00,83.38,0
94.00,85.36,0
100.00,87.18,0
67.00,88.66,0
64.00,89.32,0
74.00,89.09,0
52.00,88.15,0
59.00,86.48,0
46.00,84.14,0
59.00,81.32,0
55.00,78.29,0
36.00,75.09,0
35.00,71.53,0
44.00,67.70,0
40.00,63.89,0
40.00,60.25,0
57.00,56.95,0
41.00,54.17,0
57.00,51.89,0
51.00,50.14,0
53.00,48.91,0
108.00,48.55,0
68.00,49.45,0
62.00,51.03,0
81.00,52.81,0
132.00,55.35,0
71.00,58.88,0
75.00,62.50,0
72.00,65.60,0
82.00,68.28,0
51.00,70.43,0
175.00,72.70,0
97.00,76.13,0
93.00,80.03,0
72.00,83.29,0
40.00,85.29,0
63.00,85.77,0
64.00,85.19,0
51.00,83.95,0
38.00,81.91,0
41.00,79.05,0
43.00,75.62,0
42.00,71.90,0
54.00,68.19,0
43.00,64.72,0
51.00,61.52,0
37.00,58.55,0
62.00,55.91,0
42.00,53.73,0
66.00,52.06,0
47.00,50.88,0
60.00,50.13,0
59.00,49.77,0
49.00,49.73,0
84.00,50.04,0
53.00,50.86,0
70.00,51.95,0
84.00,53.35,0
88.00,55.34,0
61.00,57.67,0
71.00,59.86,0
81.00,61.89,0
182.00,64.82,0
51.00,68.99,0
92.00,72.99,0
75.00,76.18,0
45.00,78.46,0
63.00,79.47,0
73.00,79.64,0
74.00,79.47,0
37.00,78.85,0
65.00,77.52,0
72.00,75.93,0
40.00,74.27,0
54.00,72.24,0
36.00,69.84,0
40.00,67.07,0
52.00,64.14,0
64.00,61.52,0
50.00,59.39,0
68.00,57.72,0
68.00,56.65,0
62.00,56.17,0
83.00,56.21,0
68.00,56.83,0
82.00,57.91,0
64.00,59.27,0
52.00,60.50,0
61.00,61.32,0
92.00,62.12,0
69.00,63.28,0
68.00,64.52,0
77.00,65.67,0
122.00,67.20,0
39.00,69.13,0
86.00,70.66,0
39.00,71.56,0
44.00,71.60,0
70.00,70.90,0
38.00,69.85,0
64.00,68.48,0
81.00,67.22,0
38.00,66.22,0
45.00,64.94,0
46.00,63.25,0
36.00,61.31,0
36.00,59.07,0
38.00,56.63,0
41.00,54.16,0
64.00,52.02,0
50.00,50.48,0
77.00,49.64,0
89.00,49.79,0
73.00,50.97,0
86.00,52.84,0
62.00,55.05,0
60.00,57.14,0
66.00,58.89,0
98.00,60.67,0
79.00,62.84,0
82.00,65.21,0
74.00,67.47,0
100.00,69.69,0
46.00,71.71,0
66.00,73.01,0
61.00,73.56,0
85.00,73.79,0
86.00,74.16,0
46.00,74.48,0
77.00,74.38,0
48.00,73.89,0
48.00,72.90,0
57.00,71.40,0
47.00,69.62,0
97.00,68.02,0
44.00,66.91,0
72.00,65.98,0
52.00,65.08,0
77.00,64.33,0
80.00,64.00,0
58.00,64.07,0
88.00,64.36,0
53.00,64.82,0
114.00,65.57,0
65.00,66.84,0
91.00,68.36,0
70.00,69.87,0
75.00,71.24,0
129.00,72.82,0
128.00,75.42,0
90.00,78.82,0
74.00,81.96,0
76.00,84.23,0
63.00,85.56,0
63.00,85.93,0
91.00,85.67,0
70.00,85.25,0
36.00,84.32,0
48.00,82.39,0
36.00,79.58,0
36.00,76.10,0
108.00,72.73,0
51.00,70.27,0
59.00,68.30,0
201.00,67.60,0
64.00,69.19,0
68.00,71.40,0
40.00,72.69,0
36.00,72.79,0
40.00,71.72,0
61.00,70.00,0
59.00,68.21,0
127.00,67.12,0
54.00,67.12,0
88.00,67.56,0
76.00,68.20,0
77.00,69.04,0
50.00,69.72,0
127.00,70.44,0
62.00,71.69,0
83.00,73.03,0
79.00,74.17,0
82.00,75.26,0
63.00,76.12,0
124.00,77.01,0
59.00,78.19,0
60.00,79.00,0
76.00,79.11,0
44.00,78.70,0
41.00,77.46,0
95.00,75.79,0
73.00,74.53,0
39.00,73.42,0
74.00,72.01,0
38.00,70.42,0
39.00,68.45,0
66.00,66.19,0
43.00,64.05,0
38.00,61.88,0
56.00,59.63,0
73.00,57.79,0
78.00,56.80,0
68.00,56.62,0
102.00,57.24,0
56.00,58.52,0
104.00,60.18,0
59.00,62.13,0
74.00,64.00,0
75.00,65.64,0
76.00,67.19,0
71.00,68.62,0
120.00,70.22,0
74.00,72.30,0
65.00,74.24,0
81.00,75.61,0
73.00,76.63,0
69.00,77.32,0
112.00,77.96,0
80.00,78.95,0
44.00,79.70,0
49.00,79.44,0
52.00,78.20,0
56.00,76.40,0
64.00,74.39,0
39.00,72.25,0
40.00,69.74,0
37.00,66.82,0
56.00,63.79,0
42.00,60.96,0
64.00,58.48,0
48.00,56.47,0
65.00,54.93,0
50.00,53.83,0
54.00,53.03,0
43.00,52.32,0
67.00,51.77,0
108.00,51.99,0
54.00,53.22,0
83.00,54.87,0
85.00,56.83,0
48.00,58.93,0
61.00,60.58,0
69.00,61.80,0
52.00,62.77,0
91.00,63.60,0
72.00,64.66,0
71.00,65.87,0
67.00,66.92,0
77.00,67.85,0
42.00,68.48,0
57.00,68.50,0
78.00,68.18,0
41.00,67.79,0
36.00,66.88,0
77.00,65.53,0
37.00,64.23,0
32.00,62.62,0
34.00,60.45,0
51.00,58.06,0
53.00,55.88,0
57.00,54.14,0
49.00,52.82,0
67.00,51.90,0
45.00,51.37,0
71.00,51.15,0
60.00,51.34,0
54.00,51.81,0
122.00,52.84,0
72.00,54.94,0
70.00,57.50,0
77.00,59.93,0
84.00,62.34,0
47.00,64.53,0
131.00,66.61,0
127.00,69.60,0
116.00,73.72,0
77.00,78.01,0
49.00,81.33,0
107.00,83.49,0
121.00,85.55,0
52.00,87.60,0
44.00,88.49,0
49.00,87.81,0
130.00,86.64,0
54.00,85.89,0
37.00,84.76,0
94.00,82.93,0
37.00,80.96,0
39.00,78.50,0
55.00,75.45,0
41.00,72.20,0
55.00,68.93,0
51.00,65.84,0
62.00,63.13,0
52.00,60.85,0
72.00,59.08,0
50.00,57.81,0
68.00,56.92,0
127.00,56.95,0
82.00,58.43,0
77.00,60.67,0
102.00,63.16,0
82.00,65.96,0
102.00,68.95,0
85.00,72.00,0
77.00,74.83,0
100.00,77.31,0
67.00,79.48,0
70.00,81.01,0
62.00,81.72,0
72.00,81.75,0
92.00,81.54,0
35.00,81.10,0
142.00,80.59,0
36.00,80.47,0
44.00,79.85,0
80.00,78.43,0
41.00,76.79,0
49.00,74.74,0
91.00,72.61,0
40.00,70.84,0
42.00,68.91,0
65.00,66.73,0
62.00,64.80,0
75.00,63.37,0
63.00,62.47,0
55.00,61.83,0
62.00,61.24,0
45.00,60.62,0
86.00,60.11,0
71.00,60.12,0
70.00,60.61,0
76.00,61.34,0
80.00,62.37,0
103.00,63.89,0
88.00,66.02,0
80.00,68.43,0
84.00,70.74,0
52.00,72.64,0
76.00,73.86,0
64.00,74.57,0
70.00,74.91,0
60.00,74.87,0
36.00,74.24,0
83.00,73.08,0
37.00,71.76,0
69.00,70.25,0
65.00,68.77,0
46.00,67.39,0
35.00,65.70,0
70.00,63.79,0
42.00,62.02,0
35.00,60.19,0
76.00,58.36,0
48.00,56.98,0
66.00,56.02,0
49.00,55.32,0
68.00,54.88,0
79.00,54.92,0
53.00,55.43,0
63.00,56.04,0
37.00,56.44,0
74.00,56.61,0
71.00,56.99,0
78.00,57.83,0
94.00,59.21,0
80.00,61.16,0
42.00,63.07,0
105.00,64.66,0
77.00,66.45,0
91.00,68.50,0
63.00,70.46,0
70.00,71.99,0
71.00,73.04,0
47.00,73.56,0
59.00,73.38,0
49.00,72.59,0
49.00,71.28,0
75.00,69.77,0
39.00,68.28,0
42.00,66.49,0
42.00,64.30,0
38.00,61.86,0
35.00,59.23,0
44.00,56.53,0
61.00,54.12,0
38.00,52.19,0
36.00,50.43,0
74.00,48.94,0
84.00,48.41,0
68.00,48.97,0
71.00,50.19,0
75.00,51.81,0
79.00,53.81,0
87.00,56.20,0
99.00,59.08,0
100.00,62.50,0
75.00,66.13,0
78.00,69.41,0
82.00,72.19,0
75.00,74.54,0
131.00,76.86,0
127.00,79.92,0
79.00,83.43,0
51.00,86.12,0
38.00,87.12,0
128.00,87.11,0
163.00,88.01,0
54.00,89.99,0
43.00,91.11,0
86.00,90.83,0
58.00,89.86,0
50.00,88.24,0
59.00,85.90,0
55.00,83.10,0
69.00,80.20,0
42.00,77.29,0
89.00,74.52,0
179.00,73.26,0
81.00,74.24,0
94.00,76.13,0
77.00,77.90,0
74.00,79.34,0
42.00,80.02,0
170.00,80.60,0
113.00,82.47,0
73.00,85.05,0
102.00,87.18,0
38.00,88.52,0
66.00,88.62,0
55.00,87.64,0
49.00,85.85,0
192.00,84.51,0
95.00,85.06,0
90.00,86.57,0
58.00,87.60,0
117.00,88.16,0
81.00,88.75,0
59.00,89.06,0
45.00,88.37,0
51.00,86.58,0
45.00,83.96,0
45.00,80.73,0
45.00,77.09,0
46.00,73.27,0
47.00,69.47,0
69.00,66.01,0
46.00,63.10,0
98.00,60.95,0
63.00,59.83,0
87.00,59.57,0
145.00,60.56,0
56.00,62.88,0
92.00,65.46,0
60.00,67.73,0
89.00,69.71,0
86.00,71.58,0
76.00,73.43,0
71.00,74.95,0
64.00,75.97,0
65.00,76.41,0
134.00,76.92,0
81.00,78.20,0
62.00,79.54,0
73.00,80.24,0
69.00,80.40,0
85.00,80.32,0
83.00,80.26,0
50.00,80.05,0
75.00,79.38,0
57.00,78.37,0
57.00,77.04,0
38.00,75.22,0
52.00,72.88,0
43.00,70.21,0
37.00,67.31,0
72.00,64.45,0
52.00,62.06,0
62.00,60.17,0
64.00,58.72,0
80.00,57.91,0
52.00,57.67,0
174.00,58.53,0
70.00,61.13,0
72.00,64.27,0
64.00,66.83,0
90.00,68.96,0
75.00,70.94,0
138.00,73.22,0
57.00,75.91,0
97.00,78.33,0
76.00,80.28,0
79.00,81.82,0
86.00,82.93,0
125.00,84.14,0
78.00,85.69,0
59.00,86.85,0
79.00,87.13,0
77.00,86.90,0
39.00,86.09,0
73.00,84.51,0
40.00,82.38,0
38.00,79.61,0
59.00,76.31,0
37.00,72.88,0
66.00,69.52,0
52.00,66.48,0
51.00,63.81,0
56.00,61.40,0
73.00,59.49,0
65.00,58.28,0
75.00,57.73,0
64.00,57.72,0
215.00,59.26,0
61.00,63.06,0
83.00,67.32,0
47.00,70.60,0
80.00,72.88,0
73.00,74.51,0
89.00,75.90,0
67.00,77.07,0
98.00,78.06,0
72.00,79.01,0
70.00,79.69,0
86.00,80.04,0
48.00,80.05,0
71.00,79.52,0
61.00,78.55,0
70.00,77.40,0
40.00,75.96,0
71.00,74.18,0
37.00,72.19,0
61.00,69.99,0
90.00,68.06,0
36.00,66.64,0
36.00,64.99,0
83.00,63.17,0
41.00,61.71,0
37.00,60.23,0
41.00,58.40,0
150.00,57.31,0
86.00,58.10,0
58.00,59.94,0
58.00,61.49,0
141.00,63.25,0
58.00,65.79,0
82.00,68.35,0
48.00,70.27,0
62.00,71.39,0
70.00,71.88,0
96.00,72.34,0
91.00,73.21,0
84.00,74.45,0
74.00,75.68,0
72.00,76.62,0
60.00,77.10,0
65.00,77.04,0
67.00,76.57,0
60.00,75.82,0
42.00,74.64,0
45.00,72.83,0
64.00,70.67,0
35.00,68.41,0
37.00,65.85,0
112.00,63.55,0
37.00,62.17,0
44.00,60.96,0
40.00,59.40,0
86.00,57.98,0
43.00,57.09,0
76.00,56.58,0
39.00,56.25,0
51.00,55.84,0
82.00,55.53,0
85.00,55.93,0
213.00,58.22,0
66.00,62.80,0
84.00,67.75,0
61.00,71.72,0
127.00,75.11,0
62.00,78.32,0
72.00,80.84,0
68.00,82.35,0
80.00,83.15,0
75.00,83.51,0
81.00,83.60,0
108.00,83.75,0
88.00,84.28,0
170.00,85.65,0
57.00,87.87,0
76.00,89.63,0
54.00,90.16,0
59.00,89.60,0
40.00,87.96,0
56.00,85.42,0
56.00,82.39,0
35.00,79.04,0
59.00,75.41,0
43.00,71.79,0
49.00,68.26,0
121.00,65.49,0
92.00,64.38,0
46.00,64.31,0
76.00,64.29,0
75.00,64.39,0
70.00,64.79,0
82.00,65.41,0
45.00,66.03,0
58.00,66.21,0
48.00,65.89,0
90.00,65.49,0
82.00,65.58,0
71.00,66.16,0
65.00,66.80,0
75.00,67.36,0
82.00,68.01,0
148.00,69.45,0
43.00,71.72,0
60.00,73.51,0
53.00,74.23,0
73.00,74.30,0
64.00,74.07,0
46.00,73.49,0
62.00,72.42,0
43.00,70.97,0
126.00,69.80,0
61.00,69.53,0
38.00,69.39,0
40.00,68.46,0
59.00,66.95,0
39.00,65.22,0
37.00,63.19,0
72.00,61.10,0
53.00,59.41,0
75.00,58.27,0
104.00,58.00,0
42.00,58.57,0
206.00,60.33,0
76.00,64.04,0
67.00,68.25,0
71.00,71.52,0
154.00,74.64,0
62.00,78.19,0
79.00,81.25,0
65.00,83.25,0
87.00,84.46,0
68.00,85.13,0
142.00,85.84,0
64.00,86.98,0
71.00,87.78,0
79.00,87.85,0
44.00,87.25,0
76.00,85.92,0
100.00,84.52,0
87.00,83.66,0
38.00,82.82,0
88.00,81.51,0
34.00,79.87,0
57.00,77.75,0
108.00,75.68,0
37.00,74.16,0
121.00,73.07,0
78.00,72.77,0
42.00,72.77,0
54.00,72.15,0
55.00,70.98,0
45.00,69.48,0
113.00,68.18,0
107.00,68.06,0
61.00,68.93,0
70.00,69.79,0
71.00,70.38,0
74.00,70.87,0
73.00,71.31,0
130.00,72.17,0
56.00,73.66,0
87.00,75.07,0
69.00,76.14,0
73.00,76.89,0
79.00,77.35,0
79.00,77.71,0
83.00,78.05,0
47.00,78.15,0
67.00,77.66,0
58.00,76.70,0
70.00,75.51,0
78.00,74.40,0
43.00,73.32,0
41.00,71.77,0
67.00,69.81,0
40.00,67.78,0
38.00,65.53,0
53.00,63.06,0
40.00,60.61,0
54.00,58.30,0
50.00,56.25,0
59.00,54.59,0
35.00,53.20,0
72.00,52.05,0
72.00,51.53,0
75.00,51.84,0
71.00,52.78,0
49.00,53.95,0
99.00,55.27,0
51.00,56.91,0
67.00,58.49,0
79.00,59.93,0
102.00,61.76,0
69.00,64.01,0
82.00,66.27,0
41.00,68.06,0
77.00,69.16,0
68.00,69.88,0
39.00,70.20,0
51.00,69.75,0
51.00,68.68,0
48.00,67.26,0
45.00,65.54,0
73.00,63.81,0
46.00,62.35,0
47.00,60.92,0
37.00,59.29,0
49.00,57.50,0
60.00,55.84,0
43.00,54.50,0
53.00,53.31,0
77.00,52.52,0
40.00,52.22,0
78.00,52.21,0
72.00,52.69,0
66.00,53.69,0
70.00,54.94,0
139.00,56.92,0
118.00,60.40,0
66.00,64.69,0
71.00,68.47,0
53.00,71.23,0
68.00,73.00,0
162.00,74.84,0
55.00,77.46,0
90.00,79.88,0
71.00,81.62,0
68.00,82.71,0
101.00,83.36,0
92.00,84.09,0
75.00,84.83,0
45.00,84.97,0
74.00,84.24,0
51.00,82.93,0
41.00,80.98,0
41.00,78.26,0
44.00,74.99,0
36.00,71.38,0
52.00,67.66,0
43.00,64.11,0
48.00,60.83,0
52.00,57.91,0
45.00,55.40,0
60.00,53.33,0
44.00,51.73,0
75.00,50.63,0
44.00,50.10,0
65.00,49.92,0
98.00,50.38,0
58.00,51.71,0
68.00,53.34,0
68.00,54.98,0
49.00,56.49,0
81.00,57.82,0
80.00,59.32,0
55.00,60.95,0
66.00,62.28,0
57.00,63.26,0
69.00,63.96,0
45.00,64.37,0
63.00,64.38,0
48.00,64.07,0
38.00,63.34,0
45.00,62.09,0
39.00,60.47,0
62.00,58.77,0
48.00,57.27,0
33.00,55.82,0
47.00,54.20,0
40.00,52.56,0
52.00,51.06,0
38.00,49.73,0
50.00,48.55,0
50.00,47.60,0
48.00,46.94,0
51.00,46.52,0
54.00,46.34,0
70.00,46.57,0
56.00,47.28,0
81.00,48.42,0
64.00,50.02,0
76.00,51.93,0
49.00,53.86,0
71.00,55.57,0
63.00,57.14,0
68.00,58.63,0
66.00,60.01,0
70.00,61.31,0
40.00,62.30,0
127.00,63.29,0
67.00,64.92,0
53.00,66.61,0
64.00,67.66,0
38.00,68.03,0
63.00,67.74,0
51.00,67.06,0
47.00,66.08,0
34.00,64.63,0
41.00,62.68,0
43.00,60.44,0
39.00,58.11,0
35.00,55.71,0
42.00,53.29,0
41.00,51.02,0
36.00,48.92,0
224.00,48.52,0
49.00,51.00,0
46.00,54.24,0
46.00,56.45,0
78.00,58.05,0
78.00,59.66,0
67.00,61.40,0
50.00,62.86,0
73.00,63.87,0
94.00,64.92,0
81.00,66.40,0
95.00,68.23,0
118.00,70.59,0
113.00,73.71,0
80.00,77.14,0
122.00,80.46,0
83.00,83.69,0
66.00,86.30,0
72.00,87.81,0
48.00,88.19,0
66.00,87.50,0
77.00,86.21,0
53.00,84.64,0
53.00,82.60,0
37.00,79.94,0
47.00,76.72,0
42.00,73.16,0
36.00,69.42,0
54.00,65.68,0
87.00,62.57,0
41.00,60.37,0
84.00,58.79,0
60.00,57.86,0
64.00,57.47,0
55.00,57.27,0
80.00,57.33,0
107.00,58.15,0
53.00,59.70,0
78.00,61.32,0
61.00,62.75,0
58.00,63.90,0
48.00,64.52,0
102.00,64.97,0
72.00,65.85,0
81.00,67.04,0
86.00,68.38,0
94.00,70.00,0
78.00,71.83,0
152.00,74.17,0
46.00,77.04,0
96.00,79.48,0
61.00,81.18,0
56.00,82.05,0
80.00,82.10,0
43.00,81.57,0
76.00,80.47,0
38.00,78.90,0
48.00,76.74,0
129.00,74.74,0
37.00,73.59,0
49.00,72.36,0
58.00,70.63,0
41.00,68.69,0
73.00,66.70,0
67.00,65.08,0
44.00,63.78,0
58.00,62.44,0
99.00,61.50,0
73.00,61.48,0
74.00,62.08,0
73.00,62.90,0
66.00,63.82,0
52.00,64.53,0
182.00,65.84,0
63.00,68.62,0
83.00,71.70,0
227.00,75.43,0
66.00,80.74,0
72.00,85.68,0
86.00,89.04,0
71.00,91.25,0
66.00,92.34,0
100.00,92.61,0
58.00,92.44,0
57.00,91.51,0
45.00,89.56,0
76.00,86.96,0
46.00,84.12,0
37.00,80.87,0
37.00,77.02,0
179.00,73.94,0
65.00,72.96,0
175.00,73.81,0
76.00,76.07,0
40.00,78.30,0
40.00,79.04,0
47.00,78.36,0
94.00,77.14,0
84.00,76.31,0
118.00,76.30,0
106.00,77.29,0
92.00,78.98,0
76.00,80.67,0
78.00,81.95,0
82.00,82.81,0
77.00,83.36,0
73.00,83.58,0
68.00,83.38,0
149.00,83.43,0
87.00,84.45,0
70.00,85.69,0
81.00,86.33,0
51.00,86.31,0
57.00,85.41,0
81.00,83.94,0
72.00,82.45,0
46.00,80.83,0
59.00,78.78,0
40.00,76.30,0
97.00,73.84,0
77.00,72.10,0
43.00,70.83,0
66.00,69.41,0
100.00,68.32,0
68.00,67.99,0
115.00,68.39,0
76.00,69.52,0
48.00,70.69,0
60.00,71.16,0
109.00,71.45,0
68.00,72.17,0
79.00,73.01,0
85.00,73.81,0
67.00,74.59,0
45.00,74.89,0
121.00,74.95,0
88.00,75.61,0
74.00,76.69,0
76.00,77.55,0
72.00,78.10,0
66.00,78.31,0
54.00,78.00,0
75.00,77.24,0
36.00,76.10,0
39.00,74.24,0
53.00,71.76,0
35.00,69.00,0
41.00,65.97,0
37.00,62.76,0
37.00,59.51,0
49.00,56.39,0
43.00,53.63,0
49.00,51.27,0
42.00,49.30,0
59.00,47.76,0
69.00,46.90,0
88.00,47.05,0
42.00,47.98,0
46.00,48.90,0
65.00,49.63,0
125.00,51.03,0
66.00,53.55,0
116.00,56.78,0
45.00,60.20,0
37.00,62.81,0
74.00,64.31,0
77.00,65.48,0
62.00,66.61,0
87.00,67.64,0
114.00,69.08,0
57.00,70.97,0
68.00,72.50,0
41.00,73.19,0
61.00,73.05,0
62.00,72.39,0
101.00,71.86,0
40.00,71.59,0
91.00,71.27,0
40.00,70.84,0
151.00,70.83,0
45.00,71.69,0
48.00,72.36,0
42.00,71.98,0
44.00,70.77,0
60.00,69.09,0
53.00,67.33,0
51.00,65.55,0
52.00,63.74,0
53.00,61.98,0
58.00,60.38,0
69.00,59.14,0
105.00,58.72,0
73.00,59.37,0
80.00,60.64,0
73.00,62.14,0
105.00,63.95,0
62.00,66.07,0
76.00,68.01,0
81.00,69.68,0
66.00,71.16,0
70.00,72.27,0
68.00,72.98,0
84.00,73.52,0
57.00,73.91,0
63.00,73.92,0
46.00,73.38,0
52.00,72.25,0
54.00,70.69,0
94.00,69.27,0
50.00,68.31,0
54.00,67.37,0
36.00,66.03,0
47.00,64.26,0
76.00,62.49,0
44.00,61.09,0
62.00,59.87,0
80.00,59.02,0
62.00,58.76,0
60.00,58.81,0
70.00,58.99,0
78.00,59.47,0
66.00,60.29,0
73.00,61.26,0
82.00,62.39,0
75.00,63.78,0
43.00,64.99,0
82.00,65.78,0
52.00,66.34,0
107.00,66.99,0
61.00,67.98,0
67.00,68.92,0
73.00,69.58,0
56.00,70.00,0
62.00,70.05,0
74.00,69.86,0
78.00,69.80,0
42.00,69.69,0
76.00,69.27,0
51.00,68.68,0
38.00,67.75,0
78.00,66.50,0
35.00,65.25,0
37.00,63.67,0
85.00,61.96,0
50.00,60.74,0
96.00,60.13,0
73.00,60.28,0
60.00,60.90,0
87.00,61.67,0
119.00,63.14,0
37.00,65.16,0
89.00,66.87,0
65.00,68.27,0
82.00,69.57,0
47.00,70.54,0
124.00,71.42,0
107.00,73.05,0
84.00,75.37,0
71.00,77.51,0
88.00,79.16,0
61.00,80.34,0
94.00,81.10,0
87.00,81.77,0
53.00,82.23,0
82.00,82.13,0
39.00,81.45,0
54.00,80.02,0
49.00,77.89,0
51.00,75.38,0
45.00,72.59,0
59.00,69.73,0
47.00,66.98,0
120.00,64.93,0
58.00,64.08,0
86.00,63.98,0
65.00,64.22,0
56.00,64.53,0
77.00,64.73,0
119.00,65.46,0
54.00,66.90,0
90.00,68.41,0
78.00,69.87,0
189.00,72.27,0
82.00,76.15,0
161.00,80.84,0
70.00,85.65,0
93.00,89.73,0
61.00,92.48,0
71.00,93.87,0
105.00,94.38,0
80.00,94.63,0
38.00,94.19,0
87.00,92.74,0
63.00,90.86,0
68.00,88.73,0
86.00,86.54,0
51.00,84.42,0
52.00,82.00,0
44.00,79.09,0
46.00,75.80,0
39.00,72.25,0
39.00,68.50,0
55.00,64.81,0
35.00,61.39,0
49.00,58.19,0
58.00,55.42,0
38.00,53.15,0
72.00,51.38,0
66.00,50.39,0
71.00,50.24,0
45.00,50.56,0
84.00,51.16,0
84.00,52.39,0
163.00,55.01,0
81.00,59.26,0
78.00,63.87,0
58.00,67.70,0
84.00,70.67,0
64.00,72.98,0
83.00,74.76,0
78.00,76.20,0
48.00,77.14,0
60.00,77.23,0
52.00,76.57,0
38.00,75.18,0
43.00,73.05,0
47.00,70.43,0
91.00,67.99,0
46.00,66.16,0
38.00,64.40,0
83.00,62.64,0
58.00,61.39,0
36.00,60.36,0
69.00,59.22,0
42.00,58.18,0
68.00,57.29,0
127.00,57.24,0
50.00,58.38,0
74.00,59.81,0
71.00,61.14,0
42.00,62.26,0
78.00,62.98,0
112.00,64.00,0
75.00,65.78,0
81.00,67.79,0
68.00,69.59,0
77.00,71.10,0
84.00,72.42,0
130.00,74.12,0
86.00,76.53,0
70.00,78.90,0
73.00,80.57,0
47.00,81.34,0
60.00,81.11,0
79.00,80.30,0
47.00,79.21,0
44.00,77.57,0
55.00,75.32,0
42.00,72.75,0
37.00,69.84,0
62.00,66.79,0
39.00,63.91,0
37.00,61.08,0
95.00,58.63,0
53.00,57.13,0
39.00,56.09,0
65.00,55.06,0
66.00,54.40,0
79.00,54.39,0
111.00,55.35,0
61.00,57.25,0
86.00,59.43,0
70.00,61.63,0
91.00,63.89,0
68.00,66.13,0
135.00,68.64,0
88.00,71.81,0
85.00,75.11,0
72.00,77.87,0
78.00,79.93,0
85.00,81.44,0
60.00,82.44,0
77.00,82.81,0
47.00,82.51,0
66.00,81.51,0
51.00,79.96,0
58.00,78.01,0
43.00,75.69,0
58.00,73.09,0
62.00,70.52,0
64.00,68.27,0
49.00,66.27,0
35.00,64.20,0
38.00,61.80,0
83.00,59.54,0
64.00,58.07,0
39.00,57.10,0
61.00,56.15,0
53.00,55.34,0
92.00,55.04,0
95.00,55.73,0
63.00,57.26,0
85.00,59.07,0
72.00,61.01,0
130.00,63.43,0
72.00,66.51,0
135.00,70.03,0
75.00,73.85,0
78.00,77.31,0
78.00,79.93,0
73.00,81.82,0
52.00,82.84,0
108.00,83.22,0
51.00,83.40,0
124.00,83.54,0
104.00,84.21,0
96.00,85.47,0
51.00,86.47,0
57.00,86.48,0
62.00,85.51,0
43.00,83.81,0
54.00,81.41,0
52.00,78.58,0
37.00,75.44,0
51.00,72.02,0
66.00,68.74,0
65.00,66.03,0
40.00,63.73,0
71.00,61.66,0
49.00,59.96,0
57.00,58.56,0
96.00,57.69,0
87.00,57.90,0
79.00,59.03,0
73.00,60.55,0
84.00,62.27,0
74.00,64.11,0
85.00,66.01,0
86.00,68.00,0
92.00,70.15,0
75.00,72.32,0
96.00,74.37,0
72.00,76.27,0
83.00,77.86,0
71.00,79.06,0
66.00,79.75,0
71.00,79.91,0
60.00,79.60,0
58.00,78.80,0
62.00,77.55,0
54.00,75.99,0
49.00,74.10,0
43.00,71.82,0
42.00,69.19,0
40.00,66.28,0
40.00,63.21,0
45.00,60.16,0
49.00,57.33,0
60.00,54.96,0
68.00,53.30,0
54.00,52.35,0
54.00,51.80,0
56.00,51.47,0
58.00,51.36,0
55.00,51.46,0
76.00,51.85,0
135.00,53.26,0
94.00,56.23,0
76.00,59.92,0
96.00,63.57,0
67.00,67.01,0
85.00,70.01,0
86.00,72.64,0
65.00,74.90,0
80.00,76.59,0
93.00,77.97,0
59.00,79.12,0
75.00,79.75,0
59.00,79.80,0
69.00,79.37,0
42.00,78.39,0
56.00,76.79,0
37.00,74.61,0
50.00,71.97,0
54.00,69.17,0
34.00,66.34,0
49.00,63.41,0
40.00,60.51,0
96.00,58.17,0
76.00,57.00,0
76.00,56.91,0
109.00,57.74,0
58.00,59.38,0
108.00,61.41,0
89.00,63.92,0
63.00,66.61,0
64.00,68.76,0
64.00,70.22,0
84.00,71.29,0
100.00,72.50,0
92.00,74.12,0
65.00,75.79,0
45.00,76.75,0
131.00,77.31,0
47.00,78.10,0
109.00,78.89,0
59.00,79.55,0
60.00,79.80,0
89.00,79.56,0
57.00,79.19,0
84.00,78.67,0
81.00,78.19,0
74.00,77.89,0
53.00,77.42,0
46.00,76.36,0
36.00,74.54,0
51.00,72.08,0
43.00,69.34,0
35.00,66.38,0
69.00,63.44,0
43.00,60.89,0
68.00,58.79,0
64.00,57.26,0
70.00,56.40,0
73.00,56.18,0
46.00,56.31,0
79.00,56.57,0
75.00,57.20,0
94.00,58.46,0
74.00,60.26,0
82.00,62.32,0
82.00,64.47,0
68.00,66.57,0
73.00,68.37,0
73.00,69.85,0
78.00,71.11,0
48.00,72.01,0
66.00,72.30,0
53.00,72.05,0
56.00,71.36,0
44.00,70.20,0
60.00,68.69,0
42.00,66.97,0
45.00,65.02,0
40.00,62.79,0
48.00,60.46,0
36.00,58.11,0
32.00,55.66,0
50.00,53.19,0
45.00,51.03,0
45.00,49.22,0
64.00,47.87,0
65.00,47.22,0
65.00,47.30,0
65.00,47.95,0
65.00,49.02,0
87.00,50.54,0
99.00,52.82,0
72.00,55.75,0
86.00,58.86,0
61.00,61.79,0
87.00,64.41,0
63.00,66.74,0
79.00,68.71,0
89.00,70.51,0
45.00,72.03,0
154.00,73.56,0
56.00,75.67,0
198.00,78.59,0
158.00,83.29,0
181.00,89.84,0
224.00,97.98,0
232.00,108.03,0
135.00,118.93,0
245.00,129.45,0
127.00,139.38,0
305.00,148.97,0
98.00,158.23,0
93.00,164.96,0
84.00,167.67,0
95.00,167.09,0
179.00,164.88,0
402.00,164.81,0
211.00,169.23,0
103.00,174.67,0
131.00,177.55,0
59.00,177.39,0
127.00,174.52,0
88.00,169.90,0
178.00,164.75,0
212.00,160.82,0
91.00,158.24,0
63.00,154.83,0
94.00,149.71,0
132.00,144.03,0
80.00,138.57,0
69.00,132.84,0
68.00,126.45,0
65.00,119.64,0
436.00,115.74,0
82.00,117.36,0
52.00,120.11,0
45.00,120.15,0
77.00,118.03,0
45.00,114.54,0
40.00,109.81,0
62.00,104.13,0
37.00,98.04,0
37.00,91.60,0
36.00,84.90,0
49.00,78.31,0
36.00,72.12,0
68.00,66.59,0
59.00,62.10,0
79.00,58.81,0
64.00,56.69,0
75.00,55.54,0
91.00,55.34,0
78.00,56.13,0
80.00,57.59,0
84.00,59.45,0
86.00,61.66,0
72.00,64.00,0
58.00,66.05,0
76.00,67.60,0
135.00,69.40,0
78.00,71.97,0
79.00,74.61,0
72.00,76.70,0
55.00,78.04,0
74.00,78.59,0
57.00,78.56,0
70.00,78.07,0
38.00,77.06,0
61.00,75.46,0
42.00,73.42,0
37.00,70.95,0
52.00,68.10,0
40.00,65.18,0
38.00,62.22,0
58.00,59.34,0
48.00,56.86,0
57.00,54.84,0
66.00,53.38,0
45.00,52.44,0
47.00,51.67,0
107.00,51.40,0
58.00,52.15,0
83.00,53.52,0
69.00,55.21,0
81.00,57.17,0
84.00,59.37,0
90.00,61.88,0
88.00,64.65,0
93.00,67.59,0
69.00,70.42,0
84.00,72.85,0
81.00,74.92,0
58.00,76.52,0
70.00,77.42,0
50.00,77.58,0
65.00,77.08,0
40.00,75.97,0
62.00,74.33,0
43.00,72.33,0
37.00,69.94,0
102.00,67.63,0
37.00,65.93,0
40.00,64.24,0
59.00,62.29,0
45.00,60.43,0
48.00,58.65,0
43.00,56.88,0
62.00,55.27,0
58.00,54.08,0
86.00,53.58,0
63.00,53.84,0
74.00,54.63,0
51.00,55.59,0
115.00,56.88,0
70.00,58.88,0
75.00,61.19,0
82.00,63.41,0
78.00,65.63,0
68.00,67.67,0
82.00,69.43,0
98.00,71.20,0
88.00,73.21,0
67.00,75.14,0
232.00,77.89,0
81.00,82.46,0
178.00,87.93,0
197.00,94.44,0
86.00,101.71,0
156.00,108.20,0
109.00,113.75,0
92.00,118.05,0
76.00,120.48,0
86.00,121.07,0
79.00,120.22,0
131.00,118.71,0
128.00,117.51,0
367.00,118.94,0
268.00,125.43,0
46.00,134.05,0
60.00,139.66,0
106.00,141.56,0
56.00,141.02,0
66.00,138.29,0
48.00,133.59,0
90.00,127.67,0
69.00,121.39,0
71.00,115.09,0
84.00,108.94,0
91.00,103.39,0
64.00,98.48,0
90.00,94.05,0
58.00,90.07,0
93.00,86.54,0
50.00,83.43,0
73.00,80.50,0
73.00,77.84,0
49.00,75.46,0
55.00,73.02,0
60.00,70.57,0
50.00,68.23,0
36.00,65.81,0
44.00,63.17,0
36.00,60.40,0
39.00,57.57,0
40.00,54.79,0
48.00,52.25,0
41.00,50.05,0
53.00,48.24,0
85.00,47.18,0
60.00,47.17,0
59.00,47.78,0
65.00,48.67,0
69.00,49.88,0
82.00,51.50,0
68.00,53.52,0
91.00,55.84,0
59.00,58.32,0
87.00,60.71,0
78.00,63.10,0
82.00,65.51,0
84.00,67.88,0
115.00,70.45,0
73.00,73.26,0
91.00,75.89,0
64.00,78.02,0
84.00,79.56,0
76.00,80.65,0
41.00,81.10,0
64.00,80.60,0
38.00,79.26,0
64.00,77.30,0
40.00,74.96,0
50.00,72.31,0
38.00,69.38,0
44.00,66.26,0
89.00,63.48,0
46.00,61.48,0
48.00,59.82,0
37.00,58.07,0
54.00,56.27,0
66.00,54.78,0
104.00,54.25,0
85.00,55.02,0
68.00,56.60,0
72.00,58.36,0
87.00,60.24,0
120.00,62.69,0
85.00,65.88,0
90.00,69.26,0
74.00,72.35,0
87.00,74.99,0
54.00,77.01,0
515.00,81.87,0
90.00,92.55,0
161.00,104.67,0
189.00,115.40,0
95.00,124.97,0
281.00,133.57,0
64.00,141.64,0
223.00,148.32,0
113.00,153.65,0
83.00,157.02,0
50.00,157.11,0
169.00,154.91,0
162.00,152.67,0
89.00,150.72,0
148.00,148.29,0
352.00,147.62,0
400.00,152.55,0
140.00,162.01,0
70.00,170.05,0
56.00,173.34,0
54.00,172.07,0
126.00,167.79,0
47.00,161.92,0
76.00,154.56,0
84.00,146.18,0
95.00,137.78,0
68.00,129.68,0
126.00,122.18,0
72.00,115.68,0
82.00,109.83,0
221.00,105.53,0
74.00,103.74,0
73.00,102.60,0
104.00,101.03,0
45.00,99.19,0
67.00,96.67,0
73.00,93.64,0
52.00,90.44,0
50.00,86.88,0
94.00,83.34,0
44.00,80.22,0
48.00,77.11,0
87.00,74.06,0
36.00,71.44,0
38.00,68.71,0
96.00,66.08,0
36.00,64.10,0
51.00,62.28,0
94.00,60.76,0
78.00,60.22,0
62.00,60.39,0
57.00,60.67,0
89.00,61.06,0
70.00,61.87,0
123.00,63.34,0
40.00,65.31,0
89.00,67.06,0
76.00,68.61,0
101.00,70.34,0
58.00,72.10,0
82.00,73.53,0
116.00,74.98,0
69.00,76.76,0
51.00,78.10,0
102.00,78.79,0
60.00,79.31,0
55.00,79.38,0
57.00,78.68,0
59.00,77.44,0
61.00,75.89,0
42.00,74.04,0
38.00,71.70,0
44.00,68.89,0
42.00,65.87,0
45.00,62.82,0
36.00,59.82,0
49.00,56.93,0
478.00,57.95,0
118.00,66.06,0
202.00,77.58,0
145.00,89.27,0
138.00,100.41,0
141.00,110.21,0
53.00,117.92,0
125.00,122.95,0
44.00,125.56,0
80.00,125.83,0
81.00,124.23,0
70.00,121.47,0
88.00,117.92,0
50.00,113.77,0
96.00,109.20,0
225.00,105.98,0
105.00,105.41,0
87.00,105.81,0
65.00,105.44,0
50.00,103.90,0
59.00,101.14,0
74.00,97.71,0
44.00,93.95,0
72.00,89.91,0
36.00,85.73,0
68.00,81.47,0
80.00,77.63,0
45.00,74.39,0
36.00,71.18,0
55.00,67.81,0
34.00,64.49,0
38.00,61.17,0
71.00,58.12,0
53.00,55.81,0
62.00,54.18,0
62.00,53.12,0
55.00,52.56,0
62.00,52.32,0
53.00,52.33,0
77.00,52.64,0
62.00,53.35,0
91.00,54.54,0
74.00,56.27,0
101.00,58.54,0
76.00,61.24,0
88.00,64.08,0
261.00,68.34,0
73.00,74.98,0
74.00,81.52,0
70.00,86.21,0
68.00,89.25,0
71.00,90.90,0
71.00,91.48,0
48.00,91.06,0
76.00,89.74,0
52.00,87.84,0
60.00,85.48,0
89.00,83.02,0
38.00,80.68,0
48.00,78.00,0
75.00,75.12,0
50.00,72.49,0
67.00,70.10,0
72.00,68.08,0
46.00,66.42,0
68.00,64.87,0
80.00,63.72,0
68.00,63.19,0
85.00,63.18,0
69.00,63.62,0
77.00,64.33,0
63.00,65.11,0
88.00,65.95,0
52.00,66.82,0
95.00,67.64,0
58.00,68.51,0
73.00,69.25,0
283.00,71.54,0
96.00,76.99,0
83.00,83.19,0
73.00,87.92,0
71.00,91.09,0
42.00,92.59,0
59.00,92.44,0
47.00,90.98,0
52.00,88.56,0
34.00,85.31,0
55.00,81.48,0
42.00,77.40,0
60.00,73.38,0
38.00,69.56,0
35.00,65.77,0
79.00,62.25,0
51.00,59.54,0
65.00,57.55,0
122.00,56.63,0
70.00,57.21,0
72.00,58.52,0
56.00,59.81,0
84.00,61.03,0
43.00,62.15,0
81.00,63.02,0
70.00,63.87,0
62.00,64.74,0
72.00,65.47,0
94.00,66.33,0
56.00,67.41,0
86.00,68.42,0
205.00,70.50,0
107.00,74.75,0
114.00,79.92,0
37.00,84.29,0
75.00,86.98,0
52.00,88.12,0
45.00,87.94,0
97.00,86.88,0
35.00,85.45,0
49.00,83.33,0
89.00,80.81,0
38.00,78.41,0
35.00,75.64,0
76.00,72.57,0
50.00,69.79,0
37.00,67.13,0
75.00,64.53,0
58.00,62.45,0
69.00,60.95,0
71.00,60.01,0
72.00,59.64,0
61.00,59.67,0
154.00,60.60,0
73.00,62.95,0
84.00,65.82,0
73.00,68.43,0
82.00,70.72,0
66.00,72.63,0
119.00,74.43,0
78.00,76.50,0
76.00,78.45,0
117.00,80.20,0
60.00,81.94,0
57.00,82.99,0
98.00,83.29,0
70.00,83.43,0
54.00,83.20,0
58.00,82.22,0
43.00,80.52,0
41.00,78.08,0
86.00,75.39,0
40.00,72.94,0
40.00,70.37,0
63.00,67.61,0
55.00,65.09,0
55.00,62.92,0
67.00,61.10,0
45.00,59.64,0
64.00,58.38,0
83.00,57.61,0
35.00,57.31,0
72.00,57.05,0
74.00,57.05,0
78.00,57.63,0
76.00,58.69,0
160.00,60.78,0
67.00,64.17,0
88.00,67.79,0
71.00,70.90,0
83.00,73.50,0
84.00,75.70,0
95.00,77.73,0
123.00,79.99,0
44.00,82.24,0
71.00,83.56,0
51.00,83.76,0
61.00,83.07,0
39.00,81.57,0
47.00,79.26,0
39.00,76.31,0
36.00,72.88,0
37.00,69.07,0
36.00,65.10,0
92.00,61.59,0
47.00,59.10,0
76.00,57.42,0
71.00,56.48,0
68.00,56.26,0
35.00,56.24,0
54.00,55.95,0
62.00,55.57,0
62.00,55.43,0
83.00,55.72,0
68.00,56.54,0
76.00,57.74,0
75.00,59.18,0
81.00,60.85,0
79.00,62.72,0
114.00,64.99,0
75.00,67.71,0
88.00,70.46,0
62.00,72.80,0
52.00,74.36,0
116.00,75.41,0
49.00,76.47,0
60.00,77.00,0
52.00,76.69,0
65.00,75.82,0
45.00,74.53,0
54.00,72.81,0
48.00,70.76,0
39.00,68.43,0
42.00,65.78,0
63.00,63.13,0
57.00,60.89,0
52.00,59.06,0
62.00,57.57,0
53.00,56.42,0
74.00,55.68,0
84.00,55.63,0
80.00,56.42,0
100.00,58.00,0
68.00,60.15,0
85.00,62.45,0
60.00,64.60,0
133.00,66.88,0
67.00,69.66,0
75.00,72.30,0
70.00,74.28,0
84.00,75.81,0
72.00,77.02,0
101.00,78.12,0
64.00,79.16,0
45.00,79.60,0
88.00,79.31,0
40.00,78.62,0
36.00,77.20,0
43.00,74.85,0
52.00,72.03,0
51.00,69.15,0
49.00,66.34,0
41.00,63.59,0
38.00,60.79,0
37.00,57.93,0
46.00,55.15,0
42.00,52.62,0
42.00,50.38,0
56.00,48.52,0
46.00,47.16,0
67.00,46.34,0
51.00,46.09,0
82.00,46.45,0
67.00,47.53,0
68.00,49.13,0
81.00,51.06,0
66.00,53.30,0
80.00,55.66,0
420.00,60.95,0
121.00,71.59,0
77.00,83.40,0
82.00,92.57,0
63.00,98.98,0
72.00,102.89,0
95.00,104.94,0
120.00,106.19,0
90.00,107.14,0
41.00,107.15,0
71.00,105.63,0
42.00,102.85,0
37.00,98.90,0
69.00,94.18,0
42.00,89.26,0
52.00,84.26,0
93.00,79.65,0
43.00,75.83,0
43.00,72.26,0
62.00,68.74,0
52.00,65.60,0
56.00,62.87,0
66.00,60.63,0
74.00,59.09,0
62.00,58.24,0
71.00,57.90,0
71.00,57.99,0
62.00,58.42,0
128.00,59.49,0
69.00,61.52,0
104.00,64.10,0
74.00,66.85,0
76.00,69.43,0
70.00,71.55,0
117.00,73.54,0
79.00,75.79,0
67.00,77.82,0
60.00,79.05,0
50.00,79.32,0
95.00,79.02,0
49.00,78.56,0
56.00,77.68,0
39.00,76.09,0
50.00,73.87,0
40.00,71.22,0
37.00,68.23,0
39.00,64.97,0
34.00,61.58,0
52.00,58.28,0
47.00,55.38,0
58.00,53.03,0
50.00,51.25,0
62.00,50.02,0
60.00,49.36,0
79.00,49.40,0
88.00,50.32,0
67.00,52.01,0
75.00,54.04,0
74.00,56.20,0
84.00,58.52,0
67.00,60.90,0
91.00,63.25,0
84.00,65.71,0
76.00,68.16,0
65.00,70.27,0
92.00,72.00,0
57.00,73.47,0
58.00,74.33,0
70.00,74.54,0
114.00,74.81,0
86.00,75.72,0
53.00,76.71,0
66.00,77.06,0
44.00,76.68,0
51.00,75.53,0
47.00,73.75,0
35.00,71.46,0
39.00,68.62,0
50.00,65.55,0
59.00,62.69,0
56.00,60.29,0
63.00,58.41,0
77.00,57.19,0
73.00,56.77,0
69.00,56.99,0
97.00,57.82,0
98.00,59.52,0
63.00,61.78,0
87.00,64.03,0
70.00,66.16,0
90.00,68.21,0
72.00,70.17,0
90.00,72.02,0
74.00,73.74,0
71.00,75.16,0
78.00,76.19,0
78.00,76.97,0
68.00,77.51,0
66.00,77.68,0
76.00,77.52,0
43.00,76.99,0
75.00,76.01,0
48.00,74.74,0
44.00,73.08,0
37.00,70.83,0
40.00,68.08,0
38.00,65.02,0
37.00,61.81,0
45.00,58.63,0
40.00,55.65,0
52.00,53.01,0
52.00,50.87,0
65.00,49.39,0
65.00,48.68,0
73.00,48.75,0
74.00,49.55,0
107.00,51.23,0
79.00,53.84,0
80.00,56.91,0
119.00,60.31,0
50.00,63.95,0
72.00,67.01,0
68.00,69.28,0
105.00,71.31,0
80.00,73.44,0
120.00,75.82,0
78.00,78.42,0
44.00,80.44,0
75.00,81.31,0
47.00,81.27,0
61.00,80.45,0
54.00,79.01,0
64.00,77.22,0
53.00,75.26,0
43.00,73.03,0
36.00,70.37,0
37.00,67.27,0
54.00,64.05,0
68.00,61.25,0
74.00,59.28,0
38.00,57.92,0
73.00,56.82,0
90.00,56.38,0
71.00,56.85,0
79.00,57.90,0
73.00,59.29,0
73.00,60.85,0
131.00,62.92,0
67.00,65.72,0
175.00,69.32,0
38.00,73.53,0
161.00,77.69,0
34.00,81.55,0
126.00,84.72,0
45.00,87.06,0
127.00,88.80,0
36.00,89.95,0
147.00,90.72,0
93.00,91.80,0
48.00,92.73,0
67.00,92.49,0
153.00,92.02,0
73.00,92.31,0
96.00,92.75,0
72.00,92.80,0
68.00,92.31,0
90.00,91.35,0
79.00,90.30,0
78.00,89.21,0
40.00,87.70,0
267.00,87.17,0
167.00,90.00,0
124.00,95.21,0
74.00,100.07,0
172.00,104.12,0
347.00,110.11,0
150.00,119.45,0
37.00,128.25,0
181.00,134.05,0
76.00,137.95,0
138.00,140.24,0
76.00,140.88,0
73.00,139.71,0
69.00,136.60,0
58.00,131.94,0
130.00,126.64,0
80.00,121.72,0
43.00,116.70,0
75.00,111.03,0
41.00,104.97,0
57.00,98.68,0
75.00,92.53,0
45.00,86.89,0
37.00,81.40,0
35.00,75.81,0
50.00,70.36,0
34.00,65.28,0
54.00,60.69,0
42.00,56.72,0
70.00,53.54,0
35.00,51.15,0
72.00,49.40,0
66.00,48.46,0
71.00,48.43,0
80.00,49.18,0
66.00,50.58,0
70.00,52.30,0
80.00,54.25,0
74.00,56.45,0
103.00,58.99,0
85.00,62.00,0
108.00,65.39,0
105.00,69.16,0
71.00,72.95,0
57.00,75.94,0
73.00,77.82,0
48.00,78.77,0
65.00,78.80,0
51.00,78.12,0
39.00,76.72,0
40.00,74.50,0
45.00,71.72,0
36.00,68.61,0
36.00,65.24,0
54.00,61.87,0
45.00,58.82,0
53.00,56.18,0
85.00,54.27,0
41.00,53.21,0
56.00,52.48,0
68.00,52.02,0
47.00,51.93,0
71.00,52.07,0
94.00,52.79,0
56.00,54.19,0
64.00,55.71,0
71.00,57.12,0
97.00,58.81,0
81.00,61.01,0
73.00,63.40,0
117.00,65.97,0
72.00,68.86,0
66.00,71.49,0
82.00,73.49,0
87.00,75.20,0
55.00,76.58,0
66.00,77.27,0
46.00,77.17,0
75.00,76.47,0
94.00,75.81,0
61.00,75.48,0
35.00,74.81,0
54.00,73.37,0
38.00,71.35,0
40.00,68.85,0
43.00,66.01,0
84.00,63.41,0
37.00,61.39,0
35.00,59.42,0
66.00,57.39,0
41.00,55.67,0
60.00,54.24,0
53.00,53.13,0
74.00,52.51,0
72.00,52.57,0
48.00,53.07,0
66.00,53.63,0
72.00,54.37,0
93.00,55.64,0
69.00,57.47,0
71.00,59.45,0
98.00,61.54,0
74.00,63.92,0
59.00,66.13,0
88.00,67.94,0
72.00,69.60,0
84.00,71.18,0
62.00,72.52,0
55.00,73.32,0
58.00,73.39,0
42.00,72.79,0
66.00,71.64,0
68.00,70.40,0
55.00,69.26,0
48.00,67.97,0
39.00,66.31,0
51.00,64.32,0
38.00,62.17,0
41.00,59.86,0
54.00,57.56,0
66.00,55.69,0
36.00,54.27,0
71.00,53.11,0
61.00,52.46,0
49.00,52.23,0
72.00,52.23,0
68.00,52.67,0
82.00,53.66,0
50.00,54.98,0
78.00,56.31,0
70.00,57.74,0
69.00,59.29,0
104.00,61.09,0
100.00,63.56,0
68.00,66.40,0
69.00,68.90,0
63.00,70.73,0
76.00,72.03,0
74.00,73.02,0
75.00,73.83,0
44.00,74.22,0
39.00,73.72,0
61.00,72.43,0
38.00,70.69,0
42.00,68.51,0
45.00,65.97,0
38.00,63.26,0
40.00,60.44,0
50.00,57.69,0
62.00,55.36,0
49.00,53.61,0
63.00,52.34,0
46.00,51.48,0
58.00,50.89,0
76.00,50.71,0
76.00,51.27,0
65.00,52.43,0
65.00,53.81,0
86.00,55.40,0
70.00,57.31,0
96.00,59.53,0
86.00,62.13,0
84.00,64.95,0
75.00,67.67,0
91.00,70.19,0
63.00,72.43,0
116.00,74.48,0
66.00,76.57,0
69.00,78.24,0
60.00,79.11,0
49.00,79.12,0
58.00,78.30,0
56.00,76.91,0
52.00,75.15,0
39.00,72.97,0
64.00,70.50,0
40.00,68.01,0
35.00,65.34,0
49.00,62.47,0
38.00,59.64,0
65.00,57.08,0
48.00,55.04,0
53.00,53.44,0
62.00,52.24,0
59.00,51.55,0
67.00,51.36,0
77.00,51.75,0
100.00,52.99,0
66.00,55.02,0
79.00,57.32,0
66.00,59.56,0
78.00,61.69,0
68.00,63.66,0
67.00,65.38,0
90.00,66.94,0
72.00,68.54,0
66.00,69.98,0
90.00,71.19,0
60.00,72.28,0
84.00,73.15,0
72.00,73.87,0
50.00,74.28,0
57.00,74.02,0
50.00,73.15,0
59.00,71.85,0
93.00,70.65,0
36.00,69.72,0
37.00,68.39,0
103.00,66.87,0
42.00,65.87,0
40.00,64.80,0
69.00,63.43,0
55.00,62.21,0
58.00,61.19,0
105.00,60.68,0
63.00,61.02,0
68.00,61.73,0
76.00,62.50,0
87.00,63.56,0
53.00,64.76,0
132.00,66.23,0
60.00,68.26,0
78.00,70.28,0
71.00,71.87,0
71.00,73.10,0
95.00,74.16,0
132.00,75.76,0
77.00,78.08,0
67.00,80.18,0
63.00,81.39,0
48.00,81.61,0
67.00,80.94,0
61.00,79.77,0
50.00,78.21,0
47.00,76.16,0
75.00,73.89,0
43.00,71.71,0
35.00,69.30,0
82.00,66.79,0
36.00,64.62,0
55.00,62.56,0
94.00,60.91,0
78.00,60.30,0
37.00,60.21,0
52.00,59.84,0
68.00,59.30,0
63.00,59.01,0
121.00,59.43,0
59.00,60.79,0
56.00,62.25,0
56.00,63.18,0
84.00,63.88,0
65.00,64.69,0
72.00,65.53,0
77.00,66.37,0
73.00,67.28,0
127.00,68.65,0
63.00,70.63,0
118.00,72.87,0
387.00,77.82,0
382.00,89.54,0
246.00,107.01,0
186.00,125.50,0
233.00,142.44,0
83.00,156.68,0
67.00,166.18,0
116.00,170.63,0
83.00,171.52,0
66.00,169.41,0
95.00,164.79,0
64.00,158.44,0
82.00,150.88,0
37.00,142.35,0
219.00,134.25,0
71.00,128.17,0
95.00,123.07,0
456.00,121.04,0
297.00,126.34,0
248.00,136.93,0
170.00,148.40,0
70.00,157.65,0
176.00,163.49,0
171.00,167.42,0
85.00,169.86,0
73.00,169.48,0
91.00,166.25,0
127.00,161.47,0
120.00,156.33,0
68.00,150.85,0
69.00,144.40,0
69.00,137.00,0
70.00,129.13,0
77.00,121.25,0
65.00,113.64,0
54.00,106.26,0
66.00,99.11,0
51.00,92.36,0
38.00,85.88,0
82.00,79.84,0
37.00,74.59,0
37.00,69.73,0
76.00,65.27,0
52.00,61.72,0
37.00,58.77,0
60.00,56.13,0
54.00,54.01,0
44.00,52.36,0
56.00,51.02,0
86.00,50.31,0
77.00,50.64,0
58.00,51.67,0
88.00,53.06,0
76.00,54.94,0
116.00,57.49,0
41.00,60.42,0
89.00,63.01,0
76.00,65.34,0
84.00,67.64,0
100.00,69.99,0
220.00,73.63,0
172.00,79.82,0
41.00,86.88,0
124.00,92.49,0
62.00,96.60,0
116.00,99.54,0
360.00,103.88,0
260.00,112.79,0
251.00,125.17,0
232.00,138.67,0
204.00,151.92,0
198.00,163.90,0
139.00,173.68,0
119.00,180.31,0
187.00,184.02,0
89.00,185.58,0
76.00,184.29,0
166.00,180.58,0
79.00,175.80,0
53.00,169.47,0
68.00,161.13,0
54.00,151.47,0
72.00,141.17,0
87.00,131.04,0
75.00,121.65,0
75.00,113.07,0
69.00,105.25,0
87.00,98.30,0
72.00,92.38,0
84.00,87.42,0
77.00,83.39,0
98.00,80.35,0
67.00,78.19,0
127.00,76.93,0
81.00,76.76,0
46.00,76.85,0
80.00,76.48,0
47.00,75.76,0
51.00,74.57,0
84.00,73.12,0
40.00,71.75,0
35.00,69.98,0
52.00,67.65,0
58.00,65.28,0
40.00,63.04,0
500.00,64.56,0
43.00,72.54,0
73.00,81.64,0
103.00,88.28,0
58.00,93.18,0
94.00,96.41,0
72.00,98.31,0
92.00,99.22,0
69.00,99.32,0
125.00,99.04,0
57.00,98.67,0
75.00,97.71,0
69.00,96.04,0
85.00,94.06,0
68.00,91.98,0
144.00,90.38,0
115.00,90.06,0
58.00,90.41,0
71.00,90.18,0
47.00,89.08,0
61.00,87.16,0
46.00,84.61,0
39.00,81.45,0
40.00,77.72,0
41.00,73.63,0
46.00,69.47,0
41.00,65.45,0
36.00,61.59,0
40.00,57.89,0
37.00,54.43,0
62.00,51.45,0
274.00,51.07,0
67.00,54.73,0
73.00,59.68,0
71.00,63.81,0
81.00,67.29,0
145.00,70.84,0
64.00,74.78,0
80.00,78.22,0
70.00,80.67,0
80.00,82.36,0
56.00,83.28,0
72.00,83.41,0
88.00,83.14,0
75.00,82.85,0
56.00,82.32,0
82.00,81.41,0
71.00,80.44,0
120.00,79.88,0
97.00,80.19,0
51.00,80.78,0
78.00,80.86,0
38.00,80.27,0
49.00,78.84,0
44.00,76.65,0
38.00,73.90,0
39.00,70.68,0
66.00,67.39,0
42.00,64.43,0
40.00,61.62,0
52.00,58.88,0
57.00,56.51,0
427.00,57.73,0
50.00,64.67,0
57.00,72.64,0
59.00,78.13,0
69.00,81.74,0
83.00,84.10,0
84.00,85.75,0
88.00,86.97,0
74.00,87.78,0
72.00,88.04,0
88.00,87.85,0
104.00,87.71,0
75.00,87.78,0
76.00,87.65,0
62.00,87.05,0
86.00,86.08,0
112.00,85.36,0
110.00,85.45,0
74.00,86.06,0
61.00,86.31,0
65.00,85.80,0
36.00,84.45,0
49.00,82.17,0
103.00,79.69,0
37.00,77.59,0
36.00,75.19,0
49.00,72.19,0
40.00,68.96,0
40.00,65.63,0
41.00,62.25,0
41.00,58.98,0
286.00,57.95,0
42.00,60.64,0
68.00,64.29,0
64.00,66.94,0
74.00,68.98,0
79.00,70.64,0
69.00,72.06,0
90.00,73.30,0
63.00,74.39,0
77.00,75.19,0
58.00,75.58,0
87.00,75.69,0
78.00,75.83,0
104.00,76.30,0
78.00,77.15,0
65.00,77.93,0
238.00,79.62,0
333.00,85.49,0
145.00,95.84,0
354.00,108.62,0
173.00,123.18,0
90.00,136.71,0
127.00,146.42,0
107.00,152.69,0
77.00,155.87,0
274.00,157.54,0
107.00,159.65,0
40.00,160.34,0
44.00,157.44,0
59.00,151.58,0
217.00,145.25,0
213.00,141.47,0
40.00,139.58,0
84.00,136.65,0
48.00,132.03,0
86.00,126.34,0
79.00,120.31,0
61.00,114.28,0
114.00,108.53,0
96.00,103.74,0
81.00,99.88,0
78.00,96.42,0
73.00,93.16,0
76.00,90.09,0
106.00,87.51,0
74.00,85.65,0
70.00,84.08,0
111.00,82.80,0
59.00,81.98,0
78.00,81.19,0
69.00,80.25,0
79.00,79.32,0
40.00,78.20,0
69.00,76.66,0
42.00,74.76,0
44.00,72.47,0
84.00,70.11,0
43.00,68.11,0
36.00,66.03,0
68.00,63.79,0
60.00,61.89,0
38.00,60.27,0
158.00,59.47,0
43.00,60.18,0
77.00,61.38,0
119.00,62.88,0
52.00,64.97,0
72.00,66.85,0
68.00,68.25,0
75.00,69.40,0
63.00,70.30,0
111.00,71.24,0
77.00,72.58,0
105.00,74.26,0
70.00,76.04,0
78.00,77.54,0
72.00,78.58,0
66.00,79.15,0
231.00,80.57,0
74.00,83.96,0
136.00,88.02,0
37.00,91.36,0
135.00,93.72,0
36.00,95.26,0
119.00,95.97,0
56.00,96.06,0
80.00,95.52,0
46.00,94.13,0
153.00,92.64,0
65.00,91.90,0
37.00,90.95,0
126.00,89.41,0
40.00,88.00,0
142.00,86.90,0
41.00,86.21,0
78.00,85.33,0
74.00,84.08,0
83.00,82.90,0
72.00,81.84,0
79.00,80.86,0
89.00,80.08,0
53.00,79.40,0
85.00,78.58,0
74.00,77.81,0
127.00,77.63,0
56.00,78.10,0
64.00,78.38,0
54.00,77.96,0
84.00,77.18,0
250.00,77.94,0
58.00,81.27,0
114.00,85.08,0
60.00,88.02,0
102.00,90.13,0
197.00,92.56,0
400.00,98.75,0
271.00,110.64,0
82.00,124.51,0
49.00,134.95,0
224.00,141.75,0
194.00,147.94,0
159.00,154.14,0
99.00,158.81,0
82.00,160.75,0
156.00,160.34,0
70.00,158.56,0
152.00,155.67,0
283.00,153.76,0
171.00,154.55,0
108.00,156.10,0
235.00,157.26,0
86.00,158.43,0
128.00,158.50,0
389.00,159.35,0
99.00,163.08,0
49.00,165.77,0
508.00,168.16,0
354.00,176.14,0
91.00,187.24,0
78.00,194.56,0
76.00,196.37,0
55.00,193.54,0
56.00,186.97,0
41.00,177.53,0
54.00,166.04,0
50.00,153.48,0
51.00,140.56,0
40.00,127.69,0
49.00,115.16,0
69.00,103.55,0
36.00,93.14,0
70.00,83.90,0
50.00,75.97,0
57.00,69.30,0
107.00,64.20,0
155.00,61.70,0
51.00,61.63,0
59.00,62.14,0
80.00,62.54,0
69.00,63.15,0
107.00,64.22,0
58.00,65.73,0
88.00,67.27,0
68.00,68.72,0
84.00,70.09,0
76.00,71.40,0
135.00,73.09,0
76.00,75.45,0
64.00,77.65,0
71.00,79.03,0
55.00,79.63,0
124.00,79.97,0
92.00,80.86,0
46.00,81.78,0
54.00,81.75,0
50.00,80.71,0
38.00,78.84,0
43.00,76.21,0
39.00,73.04,0
38.00,69.52,0
47.00,65.88,0
99.00,62.85,0
58.00,60.97,0
47.00,59.70,0
70.00,58.59,0
68.00,57.92,0
126.00,58.24,0
125.00,60.23,0
73.00,63.46,0
71.00,66.65,0
70.00,69.23,0
69.00,71.21,0
68.00,72.65,0
136.00,74.16,0
74.00,76.27,0
84.00,78.39,0
94.00,80.19,0
81.00,81.82,0
49.00,82.88,0
77.00,83.07,0
60.00,82.64,0
48.00,81.60,0
91.00,80.16,0
66.00,78.86,0
48.00,77.51,0
38.00,75.57,0
61.00,73.13,0
40.00,70.52,0
42.00,67.71,0
77.00,64.99,0
44.00,62.76,0
51.00,60.78,0
42.00,58.82,0
58.00,56.98,0
57.00,55.48,0
75.00,54.54,0
58.00,54.22,0
109.00,54.67,0
66.00,56.01,0
84.00,57.88,0
75.00,59.94,0
46.00,61.83,0
85.00,63.31,0
71.00,64.71,0
119.00,66.49,0
75.00,68.82,0
84.00,71.23,0
68.00,73.28,0
64.00,74.77,0
73.00,75.64,0
114.00,76.48,0
82.00,77.75,0
49.00,78.84,0
70.00,79.13,0
46.00,78.68,0
40.00,77.41,0
50.00,75.34,0
39.00,72.76,0
46.00,69.83,0
42.00,66.72,0
37.00,63.53,0
40.00,60.29,0
51.00,57.23,0
40.00,54.52,0
73.00,52.34,0
97.00,51.29,0
66.00,51.55,0
59.00,52.43,0
68.00,53.45,0
61.00,54.57,0
47.00,55.58,0
115.00,56.74,0
77.00,58.67,0
88.00,61.15,0
76.00,63.73,0
74.00,66.18,0
98.00,68.51,0
125.00,71.29,0
65.00,74.46,0
66.00,77.05,0
72.00,78.70,0
62.00,79.60,0
58.00,79.75,0
87.00,79.42,0
82.00,79.14,0
39.00,78.71,0
69.00,77.67,0
36.00,76.08,0
36.00,73.82,0
111.00,71.46,0
39.00,69.77,0
64.00,68.26,0
61.00,66.75,0
66.00,65.47,0
56.00,64.40,0
71.00,63.51,0
65.00,62.91,0
70.00,62.61,0
131.00,63.09,0
86.00,64.84,0
40.00,66.85,0
70.00,68.13,0
88.00,69.06,0
66.00,70.07,0
127.00,71.38,0
83.00,73.34,0
62.00,75.34,0
79.00,76.73,0
79.00,77.72,0
74.00,78.48,0
89.00,79.07,0
78.00,79.63,0
72.00,80.05,0
56.00,80.01,0
59.00,79.35,0
105.00,78.53,0
36.00,77.83,0
74.00,76.80,0
79.00,75.65,0
173.00,75.63,0
238.00,78.63,0
137.00,84.79,0
129.00,91.96,0
68.00,98.20,0
129.00,102.95,0
36.00,106.16,0
68.00,107.32,0
56.00,106.51,0
54.00,104.31,0
118.00,101.54,0
76.00,99.09,0
69.00,96.76,0
67.00,94.11,0
77.00,91.30,0
63.00,88.50,0
114.00,86.06,0
78.00,84.41,0
77.00,83.23,0
57.00,81.97,0
71.00,80.48,0
61.00,78.83,0
63.00,77.08,0
58.00,75.23,0
53.00,73.26,0
74.00,71.30,0
42.00,69.47,0
58.00,67.56,0
54.00,65.63,0
35.00,63.65,0
38.00,61.39,0
44.00,58.92,0
42.00,56.49,0
36.00,54.12,0
57.00,51.95,0
50.00,50.24,0
56.00,49.04,0
52.00,48.27,0
62.00,47.93,0
68.00,48.11,0
69.00,48.85,0
61.00,50.01,0
91.00,51.57,0
112.00,53.99,0
90.00,57.39,0
71.00,61.08,0
55.00,64.23,0
79.00,66.66,0
62.00,68.57,0
81.00,70.10,0
90.00,71.54,0
128.00,73.49,0
66.00,75.94,0
67.00,78.00,0
64.00,79.17,0
47.00,79.44,0
56.00,78.77,0
57.00,77.45,0
56.00,75.75,0
40.00,73.68,0
41.00,71.13,0
158.00,69.16,0
37.00,68.63,0
54.00,68.32,0
42.00,67.37,0
54.00,66.01,0
55.00,64.48,0
71.00,63.13,0
51.00,62.07,0
67.00,61.19,0
73.00,60.64,0
72.00,60.57,0
102.00,61.15,0
128.00,62.93,0
100.00,65.98,0
94.00,69.60,0
91.00,73.19,0
63.00,76.31,0
63.00,78.46,0
92.00,79.83,0
88.00,81.00,0
80.00,82.08,0
62.00,82.76,0
71.00,82.81,0
47.00,82.18,0
48.00,80.74,0
75.00,78.79,0
64.00,76.86,0
164.00,75.89,0
57.00,76.34,0
36.00,76.76,0
36.00,75.90,0
50.00,74.06,0
43.00,71.69,0
63.00,69.16,0
75.00,66.97,0
52.00,65.28,0
64.00,63.85,0
63.00,62.65,0
46.00,61.63,0
48.00,60.49,0
117.00,59.77,0
61.00,60.08,0
88.00,61.03,0
118.00,62.67,0
68.00,65.09,0
90.00,67.61,0
124.00,70.37,0
81.00,73.60,0
82.00,76.67,0
72.00,79.08,0
85.00,80.87,0
67.00,82.11,0
48.00,82.55,0
64.00,82.04,0
39.00,80.70,0
65.00,78.73,0
37.00,76.34,0
54.00,73.59,0
162.00,71.61,0
137.00,71.99,0
200.00,75.15,0
105.00,80.39,0
132.00,86.19,0
85.00,91.51,0
131.00,96.10,0
53.00,99.71,0
92.00,101.88,0
123.00,103.14,0
110.00,104.39,0
57.00,105.20,0
69.00,104.75,0
89.00,103.30,0
66.00,101.37,0
78.00,99.02,0
83.00,96.48,0
51.00,93.81,0
74.00,90.81,0
74.00,87.80,0
81.00,85.11,0
71.00,82.79,0
88.00,80.85,0
59.00,79.24,0
72.00,77.70,0
39.00,75.96,0
68.00,73.92,0
37.00,71.69,0
40.00,69.13,0
41.00,66.20,0
46.00,63.17,0
165.00,61.25,0
41.00,61.21,0
36.00,61.49,0
46.00,60.99,0
39.00,59.97,0
43.00,58.59,0
59.00,57.13,0
50.00,55.87,0
72.00,54.98,0
76.00,54.72,0
64.00,55.09,0
111.00,56.16,0
57.00,57.95,0
77.00,59.89,0
69.00,61.70,0
70.00,63.40,0
75.00,64.93,0
81.00,66.45,0
52.00,67.79,0
76.00,68.72,0
71.00,69.43,0
68.00,70.04,0
77.00,70.53,0
56.00,70.88,0
40.00,70.68,0
49.00,69.72,0
60.00,68.32,0
35.00,66.68,0
78.00,64.95,0
40.00,63.39,0
36.00,61.72,0
68.00,59.89,0
43.00,58.30,0
43.00,56.79,0
99.00,55.65,0
77.00,55.58,0
55.00,56.23,0
69.00,56.99,0
61.00,57.78,0
75.00,58.67,0
103.00,60.00,0
54.00,61.80,0
62.00,63.38,0
78.00,64.60,0
96.00,65.99,0
79.00,67.75,0
94.00,69.72,0
178.00,72.61,0
39.00,76.44,0
87.00,79.67,0
70.00,81.82,0
112.00,83.55,0
42.00,84.88,0
102.00,85.55,0
36.00,85.55,0
65.00,84.70,0
40.00,82.95,0
75.00,80.69,0
47.00,78.27,0
48.00,75.63,0
89.00,73.04,0
36.00,70.83,0
118.00,69.11,0
101.00,68.59,0
71.00,69.16,0
60.00,69.82,0
69.00,70.15,0
89.00,70.46,0
62.00,70.92,0
126.00,71.73,0
59.00,73.05,0
76.00,74.29,0
76.00,75.15,0
80.00,75.87,0
84.00,76.55,0
112.00,77.51,0
76.00,78.85,0
72.00,80.04,0
78.00,80.76,0
71.00,81.11,0
64.00,81.05,0
94.00,80.74,0
68.00,80.48,0
38.00,79.84,0
75.00,78.53,0
38.00,76.80,0
36.00,74.48,0
82.00,71.85,0
38.00,69.45,0
38.00,66.94,0
58.00,64.24,0
41.00,61.68,0
47.00,59.24,0
107.00,57.42,0
37.00,56.61,0
70.00,56.19,0
73.00,56.09,0
56.00,56.40,0
70.00,56.88,0
72.00,57.58,0
84.00,58.67,0
36.00,59.84,0
117.00,61.00,0
73.00,62.71,0
82.00,64.79,0
77.00,66.82,0
80.00,68.76,0
55.00,70.38,0
130.00,71.93,0
80.00,74.00,0
71.00,76.11,0
69.00,77.60,0
38.00,78.21,0
41.00,77.61,0
43.00,75.94,0
45.00,73.59,0
46.00,70.84,0
43.00,67.89,0
42.00,64.85,0
38.00,61.76,0
47.00,58.73,0
36.00,55.88,0
48.00,53.24,0
52.00,51.00,0
161.00,50.20,0
39.00,51.34,0
126.00,53.51,0
37.00,56.12,0
93.00,58.66,0
39.00,60.83,0
85.00,62.57,0
106.00,64.44,0
80.00,66.83,0
92.00,69.40,0
45.00,71.61,0
78.00,73.08,0
57.00,73.91,0
57.00,74.15,0
73.00,73.90,0
60.00,73.44,0
72.00,72.85,0
57.00,72.15,0
51.00,71.20,0
43.00,69.79,0
66.00,68.09,0
37.00,66.30,0
37.00,64.21,0
74.00,62.03,0
39.00,60.17,0
36.00,58.32,0
39.00,56.23,0
58.00,54.21,0
42.00,52.51,0
66.00,51.19,0
50.00,50.35,0
127.00,50.48,0
70.00,51.99,0
63.00,54.14,0
81.00,56.28,0
82.00,58.57,0
44.00,60.77,0
66.00,62.38,0
82.00,63.67,0
79.00,65.10,0
72.00,66.61,0
68.00,67.97,0
74.00,69.08,0
59.00,69.91,0
109.00,70.72,0
67.00,71.84,0
55.00,72.78,0
73.00,73.16,0
52.00,73.12,0
68.00,72.69,0
70.00,72.09,0
48.00,71.37,0
44.00,70.21,0
83.00,68.81,0
36.00,67.51,0
35.00,65.86,0
75.00,63.92,0
34.00,62.15,0
56.00,60.40,0
39.00,58.60,0
69.00,56.97,0
54.00,55.76,0
92.00,55.22,0
51.00,55.37,0
102.00,56.11,0
42.00,57.26,0
111.00,58.70,0
285.00,62.41,0
76.00,69.41,0
97.00,76.84,0
61.00,82.68,0
84.00,86.88,0
106.00,89.98,0
36.00,92.10,0
96.00,92.92,0
46.00,92.74,0
225.00,92.95,0
41.00,94.47,0
73.00,95.64,0
40.00,95.23,0
56.00,93.51,0
53.00,90.80,0
65.00,87.61,0
39.00,84.13,0
44.00,80.25,0
98.00,76.51,0
44.00,73.48,0
49.00,70.69,0
36.00,67.71,0
58.00,64.68,0
42.00,61.84,0
68.00,59.38,0
54.00,57.47,0
100.00,56.39,0
85.00,56.51,0
62.00,57.49,0
104.00,58.91,0
66.00,60.82,0
86.00,62.92,0
72.00,65.00,0
90.00,67.07,0
73.00,69.11,0
114.00,71.27,0
73.00,73.65,0
70.00,75.75,0
63.00,77.12,0
72.00,77.83,0
69.00,78.07,0
70.00,77.99,0
74.00,77.69,0
48.00,77.09,0
59.00,75.98,0
47.00,74.39,0
46.00,72.36,0
82.00,70.26,0
41.00,68.42,0
38.00,66.42,0
79.00,64.33,0
40.00,62.57,0
37.00,60.78,0
57.00,58.82,0
54.00,57.09,0
76.00,55.87,0
54.00,55.25,0
113.00,55.40,0
56.00,56.46,0
70.00,57.85,0
92.00,59.36,0
94.00,61.44,0
77.00,63.93,0
68.00,66.32,0
76.00,68.33,0
66.00,69.96,0
86.00,71.32,0
92.00,72.72,0
64.00,74.15,0
71.00,75.19,0
82.00,75.87,0
68.00,76.39,0
67.00,76.61,0
78.00,76.56,0
51.00,76.25,0
75.00,75.61,0
38.00,74.60,0
43.00,72.96,0
46.00,70.72,0
35.00,68.07,0
37.00,65.08,0
46.00,61.94,0
40.00,58.90,0
37.00,55.99,0
55.00,53.32,0
50.00,51.16,0
59.00,49.60,0
59.00,48.65,0
100.00,48.61,0
75.00,49.74,0
56.00,51.49,0
83.00,53.34,0
68.00,55.38,0
72.00,57.51,0
51.00,59.40,0
67.00,60.87,0
64.00,62.03,0
88.00,63.20,0
67.00,64.53,0
122.00,66.26,0
47.00,68.34,0
73.00,70.05,0
69.00,71.21,0
74.00,72.08,0
90.00,72.91,0
79.00,73.87,0
54.00,74.66,0
48.00,74.73,0
79.00,74.20,0
266.00,75.25,0
42.00,78.97,0
64.00,82.60,0
42.00,84.39,0
55.00,84.64,0
68.00,83.86,0
57.00,82.55,0
43.00,80.67,0
77.00,78.40,0
69.00,76.28,0
94.00,74.69,0
109.00,74.05,0
60.00,74.19,0
85.00,74.44,0
75.00,74.69,0
74.00,74.96,0
72.00,75.13,0
127.00,75.62,0
82.00,76.86,0
91.00,78.42,0
62.00,79.71,0
76.00,80.46,0
85.00,80.84,0
122.00,81.50,0
62.00,82.53,0
72.00,83.22,0
352.00,85.59,0
60.00,91.46,0
294.00,99.21,0
35.00,107.46,0
360.00,116.16,0
209.00,126.94,0
175.00,138.81,0
71.00,148.45,0
189.00,155.04,0
130.00,159.71,0
53.00,162.13,0
58.00,161.06,0
49.00,156.70,0
70.00,150.08,0
68.00,142.22,0
127.00,134.30,0
101.00,127.34,0
77.00,121.20,0
75.00,115.25,0
65.00,109.34,0
98.00,103.73,0
74.00,98.82,0
130.00,94.92,0
63.00,92.10,0
78.00,89.68,0
65.00,87.23,0
68.00,84.76,0
71.00,82.33,0
65.00,80.03,0
72.00,77.90,0
56.00,75.89,0
66.00,73.93,0
63.00,72.06,0
76.00,70.48,0
36.00,69.02,0
50.00,67.27,0
37.00,65.15,0
35.00,62.70,0
44.00,60.01,0
34.00,57.28,0
50.00,54.65,0
56.00,52.42,0
57.00,50.80,0
43.00,49.65,0
72.00,48.90,0
64.00,48.80,0
107.00,49.65,0
125.00,51.97,0
72.00,55.57,0
87.00,59.40,0
69.00,62.96,0
88.00,66.17,0
86.00,69.15,0
82.00,71.96,0
77.00,74.41,0
100.00,76.60,0
64.00,78.54,0
75.00,79.93,0
71.00,80.70,0
69.00,80.99,0
75.00,80.87,0
60.00,80.42,0
77.00,79.66,0
74.00,78.84,0
66.00,78.01,0
46.00,76.89,0
75.00,75.42,0
35.00,73.72,0
35.00,71.47,0
88.00,69.00,0
39.00,66.91,0
46.00,64.86,0
72.00,62.83,0
60.00,61.28,0
58.00,60.14,0
57.00,59.22,0
55.00,58.43,0
113.00,58.23,0
68.00,59.04,0
62.00,60.27,0
144.00,62.00,0
73.00,64.76,0
93.00,67.89,0
66.00,70.71,0
72.00,72.96,0
73.00,74.61,0
136.00,76.31,0
77.00,78.58,0
70.00,80.69,0
61.00,81.91,0
75.00,82.34,0
59.00,82.18,0
92.00,81.70,0
71.00,81.23,0
35.00,80.40,0
55.00,78.74,0
46.00,76.45,0
36.00,73.70,0
48.00,70.53,0
36.00,67.19,0
38.00,63.73,0
67.00,60.48,0
48.00,57.82,0
55.00,55.69,0
58.00,54.02,0
87.00,53.10,0
93.00,53.32,0
89.00,54.71,0
89.00,56.94,0
94.00,59.74,0
65.00,62.71,0
84.00,65.44,0
94.00,68.05,0
117.00,71.00,0
75.00,74.22,0
81.00,77.08,0
69.00,79.24,0
96.00,80.87,0
79.00,82.24,0
137.00,83.80,0
78.00,85.76,0
54.00,87.29,0
56.00,87.57,0
81.00,86.92,0
45.00,85.72,0
94.00,84.17,0
38.00,82.45,0
43.00,80.17,0
53.00,77.27,0
37.00,74.05,0
35.00,70.48,0
69.00,66.89,0
39.00,63.71,0
57.00,60.87,0
101.00,58.80,0
70.00,58.00,0
56.00,57.93,0
71.00,58.05,0
66.00,58.41,0
99.00,59.24,0
124.00,61.13,0
79.00,64.06,0
86.00,67.22,0
68.00,70.03,0
63.00,72.21,0
60.00,73.57,0
78.00,74.34,0
85.00,74.96,0
79.00,75.65,0
80.00,76.34,0
91.00,77.07,0
66.00,77.79,0
63.00,78.12,0
75.00,78.00,0
351.00,79.99,0
65.00,85.85,0
44.00,91.81,0
41.00,94.91,0
41.00,95.50,0
42.00,94.15,0
35.00,91.34,0
43.00,87.47,0
58.00,83.11,0
37.00,78.67,0
59.00,74.27,0
68.00,70.32,0
64.00,67.13,0
60.00,64.60,0
83.00,62.75,0
72.00,61.73,0
92.00,61.56,0
82.00,62.18,0
59.00,63.21,0
106.00,64.43,0
76.00,66.09,0
82.00,67.99,0
66.00,69.71,0
90.00,71.23,0
69.00,72.63,0
146.00,74.39,0
70.00,76.82,0
64.00,79.03,0
60.00,80.22,0
38.00,80.31,0
65.00,79.39,0
298.00,79.91,0
60.00,83.62,0
39.00,87.45,0
37.00,88.93,0
51.00,88.48,0
36.00,86.64,0
36.00,83.71,0
48.00,79.99,0
78.00,76.26,0
47.00,72.98,0
64.00,70.03,0
41.00,67.25,0
57.00,64.59,0
90.00,62.47,0
60.00,61.24,0
79.00,60.66,0
78.00,60.67,0
89.00,61.34,0
43.00,62.30,0
151.00,63.66,0
90.00,66.19,0
76.00,69.28,0
73.00,71.95,0
85.00,74.13,0
72.00,75.94,0
121.00,77.70,0
72.00,79.65,0
82.00,81.37,0
63.00,82.46,0
37.00,82.58,0
64.00,81.59,0
264.00,81.68,0
52.00,84.37,0
42.00,87.01,0
61.00,87.77,0
36.00,87.11,0
35.00,85.12,0
57.00,82.12,0
44.00,78.73,0
45.00,75.12,0
48.00,71.39,0
61.00,67.87,0
58.00,64.83,0
68.00,62.40,0
55.00,60.56,0
72.00,59.22,0
92.00,58.65,0
181.00,59.89,0
44.00,62.97,0
84.00,66.14,0
67.00,68.67,0
90.00,70.87,0
379.00,75.36,0
148.00,84.50,0
57.00,94.68,0
70.00,102.04,0
193.00,107.48,0
237.00,113.79,0
59.00,120.83,0
75.00,125.74,0
76.00,127.68,0
107.00,127.70,0
536.00,130.35,0
295.00,140.27,0
243.00,154.44,0
44.00,166.93,0
34.00,173.91,0
85.00,175.13,0
59.00,172.46,0
36.00,166.70,0
48.00,158.30,0
60.00,148.29,0
71.00,137.74,0
59.00,127.33,0
51.00,117.21,0
60.00,107.47,0
72.00,98.53,0
80.00,90.81,0
192.00,85.45,0
278.00,84.67,0
97.00,88.30,0
63.00,92.57,0
185.00,96.12,0
68.00,99.79,0
184.00,103.46,0
102.00,107.27,0
127.00,110.88,0
38.00,113.22,0
109.00,113.84,0
36.00,112.96,0
116.00,111.01,0
392.00,111.29,0
195.00,116.88,0
258.00,125.86,0
224.00,136.24,0
415.00,148.89,0
355.00,165.23,0
480.00,185.51,0
178.00,207.15,0
389.00,226.87,0
416.00,245.69,0
359.00,264.95,0
334.00,282.96,0
260.00,297.93,0
270.00,308.75,0
65.00,313.93,0
121.00,311.81,0
233.00,304.34,0
285.00,295.81,0
277.00,288.47,0
155.00,281.57,0
104.00,272.70,0
93.00,260.76,0
101.00,246.32,0
44.00,230.04,0
84.00,212.29,0
42.00,193.91,0
62.00,175.45,0
63.00,157.48,0
54.00,140.64,0
45.00,124.97,0
61.00,110.63,0
41.00,97.79,0
56.00,86.45,0
44.00,76.60,0
57.00,68.24,0
36.00,61.24,0
104.00,55.82,0
37.00,52.19,0
37.00,49.48,0
67.00,47.26,0
37.00,45.73,0
43.00,44.57,0
79.00,43.89,0
64.00,44.11,0
68.00,45.08,0
74.00,46.60,0
95.00,48.77,0
69.00,51.56,0
122.00,54.91,0
79.00,58.89,0
78.00,62.92,0
71.00,66.44,0
99.00,69.55,0
56.00,72.30,0
95.00,74.53,0
71.00,76.38,0
68.00,77.78,0
62.00,78.50,0
47.00,78.43,0
55.00,77.52,0
57.00,76.04,0
50.00,74.21,0
42.00,71.99,0
79.00,69.70,0
37.00,67.61,0
41.00,65.38,0
70.00,63.10,0
38.00,61.08,0
39.00,59.07,0
64.00,57.06,0
67.00,55.59,0
48.00,54.66,0
62.00,54.01,0
50.00,53.57,0
84.00,53.49,0
91.00,54.20,0
71.00,55.74,0
87.00,57.72,0
69.00,59.90,0
100.00,62.26,0
76.00,64.85,0
85.00,67.47,0
64.00,69.78,0
84.00,71.69,0
77.00,73.32,0
95.00,74.89,0
81.00,76.48,0
74.00,77.90,0
58.00,78.77,0
90.00,79.15,0
52.00,79.22,0
60.00,78.74,0
51.00,77.62,0
44.00,75.90,0
43.00,73.59,0
35.00,70.77,0
36.00,67.52,0
55.00,64.16,0
36.00,60.98,0
48.00,58.00,0
45.00,55.28,0
53.00,52.97,0
56.00,51.17,0
68.00,50.03,0
60.00,49.59,0
67.00,49.74,0
94.00,50.58,0
59.00,52.13,0
94.00,54.12,0
65.00,56.42,0
78.00,58.80,0
81.00,61.17,0
86.00,63.64,0
63.00,66.02,0
89.00,68.14,0
82.00,70.17,0
76.00,72.11,0
86.00,73.84,0
80.00,75.43,0
65.00,76.71,0
60.00,77.38,0
65.00,77.40,0
46.00,76.80,0
56.00,75.56,0
44.00,73.79,0
43.00,71.55,0
56.00,69.02,0
38.00,66.42,0
42.00,63.68,0
38.00,60.82,0
53.00,58.04,0
47.00,55.59,0
53.00,53.55,0
57.00,51.96,0
69.00,50.99,0
79.00,50.82,0
72.00,51.50,0
75.00,52.77,0
71.00,54.41,0
90.00,56.39,0
67.00,58.67,0
94.00,61.08,0
81.00,63.67,0
84.00,66.34,0
70.00,68.82,0
87.00,71.00,0
62.00,72.84,0
65.00,74.10,0
54.00,74.65,0
56.00,74.50,0
75.00,73.91,0
65.00,73.26,0
68.00,72.60,0
37.00,71.67,0
61.00,70.27,0
36.00,68.49,0
39.00,66.31,0
60.00,63.89,0
37.00,61.57,0
36.00,59.17,0
65.00,56.83,0
51.00,54.97,0
49.00,53.52,0
67.00,52.44,0
55.00,51.84,0
69.00,51.72,0
92.00,52.26,0
62.00,53.55,0
63.00,55.07,0
68.00,56.52,0
75.00,58.02,0
81.00,59.71,0
123.00,61.99,0
74.00,65.00,0
87.00,68.08,0
95.00,71.01,0
80.00,73.84,0
81.00,76.32,0
94.00,78.47,0
73.00,80.33,0
53.00,81.51,0
93.00,81.96,0
60.00,82.06,0
60.00,81.68,0
36.00,80.48,0
53.00,78.43,0
37.00,75.76,0
39.00,72.59,0
47.00,69.13,0
35.00,65.61,0
37.00,62.03,0
45.00,58.53,0
50.00,55.40,0
43.00,52.74,0
52.00,50.53,0
46.00,48.78,0
60.00,47.52,0
56.00,46.82,0
67.00,46.72,0
107.00,47.56,0
70.00,49.51,0
89.00,52.15,0
45.00,54.86,0
91.00,57.33,0
76.00,59.82,0
77.00,62.38,0
75.00,64.78,0
92.00,67.11,0
95.00,69.58,0
72.00,72.09,0
78.00,74.23,0
70.00,75.86,0
95.00,77.18,0
37.00,78.08,0
68.00,78.14,0
36.00,77.33,0
55.00,75.77,0
52.00,73.71,0
49.00,71.42,0
51.00,68.99,0
74.00,66.72,0
56.00,64.90,0
39.00,63.23,0
71.00,61.56,0
36.00,60.05,0
66.00,58.65,0
96.00,57.82,0
58.00,57.90,0
145.00,59.00,0
91.00,61.51,0
69.00,64.66,0
91.00,67.56,0
127.00,70.65,0
102.00,74.37,0
68.00,78.03,0
88.00,80.93,0
92.00,83.23,0
64.00,85.01,0
127.00,86.42,0
76.00,87.89,0
57.00,88.88,0
56.00,88.73,0
170.00,88.48,0
64.00,89.16,0
70.00,89.77,0
54.00,89.41,0
42.00,88.00,0
47.00,85.55,0
46.00,82.38,0
36.00,78.69,0
35.00,74.54,0
40.00,70.14,0
40.00,65.76,0
47.00,61.63,0
62.00,58.08,0
45.00,55.25,0
50.00,52.94,0
83.00,51.32,0
62.00,50.69,0
63.00,50.77,0
60.00,51.20,0
73.00,51.95,0
72.00,53.10,0
79.00,54.67,0
71.00,56.55,0
69.00,58.50,0
73.00,60.38,0
91.00,62.34,0
79.00,64.53,0
80.00,66.78,0
67.00,68.81,0
68.00,70.41,0
64.00,71.50,0
51.00,72.01,0
42.00,71.73,0
51.00,70.69,0
71.00,69.33,0
44.00,67.97,0
47.00,66.39,0
39.00,64.46,0
36.00,62.19,0
