221.00,144.87,1
40.00,150.33,1
69.00,152.53,1
59.00,151.07,1
100.00,147.30,1
127.00,142.73,1
93.00,138.23,1
104.00,133.69,1
51.00,128.72,1
201.00,124.05,1
188.00,121.69,1
173.00,122.09,1
114.00,123.72,1
186.00,125.71,1
58.00,127.57,1
125.00,128.28,1
136.00,128.24,1
178.00,128.72,1
750.00,135.19,1
44.00,149.89,1
60.00,163.53,1
94.00,170.60,1
154.00,173.64,1
124.00,174.54,1
256.00,174.90,1
315.00,177.26,1
111.00,181.43,1
216.00,184.83,1
64.00,186.30,1
223.00,185.94,1
100.00,184.55,1
82.00,181.54,1
104.00,176.30,1
58.00,169.36,1
223.00,162.14,1
155.00,156.74,1
412.00,155.30,1
256.00,159.34,1
184.00,166.33,1
259.00,173.45,1
51.00,179.35,1
256.00,182.98,1
36.00,184.64,1
41.00,182.80,1
345.00,179.17,1
91.00,177.28,1
96.00,175.13,1
221.00,171.87,1
78.00,168.80,1
103.00,164.85,1
127.00,159.77,1
49.00,153.98,1
188.00,147.90,1
57.00,142.37,1
55.00,136.42,1
65.00,129.29,1
65.00,121.65,1
219.00,115.25,1
62.00,111.25,1
147.00,108.58,1
40.00,106.24,1
79.00,103.48,1
127.00,100.63,1
59.00,98.39,1
142.00,96.63,1
38.00,95.25,1
100.00,93.68,1
154.00,92.62,1
39.00,92.48,1
127.00,92.27,1
120.00,92.48,1
189.00,94.18,1
84.00,97.18,1
111.00,100.11,1
136.00,102.68,1
60.00,104.90,1
104.00,106.10,1
183.00,107.23,1
120.00,109.42,1
69.00,111.54,1
85.00,112.31,1
58.00,111.63,1
79.00,109.71,1
105.00,107.28,1
61.00,104.78,1
179.00,102.78,1
124.00,102.35,1
87.00,102.88,1
99.00,103.17,1
110.00,103.24,1
112.00,103.45,1
115.00,103.90,1
88.00,104.36,1
115.00,104.61,1
88.00,104.70,1
63.00,104.23,1
124.00,103.22,1
140.00,102.77,1
62.00,102.88,1
78.00,102.39,1
83.00,101.11,1
128.00,99.87,1
52.00,98.86,1
184.00,98.26,1
49.00,98.44,1
71.00,98.24,1
69.00,96.97,1
99.00,95.35,1
122.00,94.18,1
37.00,93.32,1
127.00,92.25,1
127.00,91.84,1
62.00,92.15,1
193.00,93.02,1
85.00,95.00,1
147.00,97.59,1
41.00,99.80,1
56.00,100.54,1
37.00,99.34,1
249.00,98.28,1
107.00,99.55,1
70.00,101.63,1
59.00,102.38,1
36.00,101.38,1
86.00,99.05,1
147.00,96.93,1
130.00,96.37,1
142.00,97.29,1
106.00,99.08,1
160.00,101.42,1
73.00,103.97,1
132.00,106.09,1
109.00,107.88,1
61.00,109.07,1
52.00,108.70,1
51.00,106.58,1
86.00,103.42,1
118.00,100.42,1
93.00,98.25,1
41.00,96.21,1
63.00,93.44,1
123.00,90.64,1
70.00,88.64,1
45.00,86.74,1
151.00,85.00,1
127.00,84.81,1
78.00,85.85,1
61.00,86.65,1
55.00,86.50,1
86.00,85.66,1
157.00,85.36,1
54.00,86.06,1
36.00,86.22,1
70.00,85.11,1
94.00,83.68,1
42.00,82.30,1
136.00,81.13,1
166.00,81.53,1
151.00,84.28,1
76.00,88.08,1
45.00,90.94,1
68.00,92.04,1
76.00,91.96,1
75.00,91.29,1
62.00,90.14,1
70.00,88.51,1
57.00,86.48,1
77.00,84.23,1
36.00,81.77,1
85.00,79.14,1
105.00,77.09,1
72.00,76.03,1
64.00,75.30,1
111.00,74.82,1
72.00,74.96,1
125.00,75.72,1
86.00,77.17,1
154.00,79.47,1
214.00,83.63,1
314.00,91.40,1
205.00,102.97,1
60.00,114.83,1
274.00,125.00,1
184.00,135.13,1
297.00,146.14,1
169.00,157.49,1
172.00,167.58,1
134.00,175.07,1
143.00,179.75,1
111.00,181.74,1
144.00,181.45,1
165.00,179.86,1
104.00,177.50,1
518.00,177.20,1
124.00,181.56,1
80.00,185.86,1
230.00,187.21,1
314.00,189.12,1
99.00,192.22,1
188.00,194.02,1
92.00,193.64,1
116.00,190.99,1
78.00,185.96,1
76.00,178.84,1
86.00,170.12,1
162.00,161.26,1
111.00,153.50,1
263.00,147.88,1
79.00,144.64,1
191.00,142.45,1
189.00,141.46,1
97.00,141.54,1
199.00,141.73,1
153.00,142.54,1
100.00,143.45,1
317.00,144.94,1
37.00,147.65,1
70.00,148.64,1
192.00,147.52,1
72.00,146.14,1
167.00,144.41,1
76.00,142.30,1
122.00,139.63,1
84.00,136.33,1
50.00,132.10,1
42.00,126.40,1
171.00,120.40,1
142.00,116.23,1
329.00,115.71,1
294.00,120.54,1
206.00,129.51,1
215.00,139.66,1
86.00,148.72,1
45.00,154.26,1
67.00,155.32,1
43.00,152.82,1
53.00,147.60,1
74.00,140.59,1
56.00,132.74,1
195.00,125.53,1
120.00,120.58,1
88.00,117.17,1
128.00,114.21,1
65.00,111.56,1
114.00,108.93,1
45.00,106.12,1
76.00,102.79,1
84.00,99.18,1
122.00,96.18,1
147.00,94.66,1
154.00,95.13,1
90.00,96.84,1
267.00,99.92,1
246.00,106.21,1
49.00,114.15,1
190.00,120.83,1
154.00,126.73,1
157.00,132.43,1
75.00,136.88,1
153.00,139.52,1
145.00,141.26,1
37.00,141.87,1
102.00,140.30,1
84.00,137.16,1
214.00,134.24,1
259.00,133.97,1
72.00,136.00,1
40.00,136.72,1
44.00,134.37,1
138.00,130.34,1
172.00,127.02,1
71.00,124.87,1
37.00,122.01,1
96.00,117.78,1
146.00,113.77,1
37.00,110.47,1
102.00,106.96,1
67.00,103.30,1
172.00,100.48,1
85.00,99.12,1
256.00,99.78,1
46.00,102.30,1
44.00,104.06,1
188.00,104.62,1
147.00,106.28,1
75.00,108.65,1
83.00,109.99,1
98.00,110.18,1
200.00,110.65,1
93.00,112.24,1
90.00,113.67,1
132.00,114.34,1
256.00,116.12,1
201.00,120.61,1
74.00,126.11,1
83.00,129.69,1
65.00,130.64,1
96.00,129.58,1
147.00,127.83,1
57.00,125.97,1
36.00,122.83,1
249.00,119.50,1
178.00,118.92,1
156.00,120.85,1
320.00,125.06,1
131.00,131.81,1
75.00,138.02,1
45.00,140.82,1
95.00,140.41,1
70.00,137.95,1
134.00,134.57,1
71.00,130.92,1
55.00,126.55,1
172.00,121.95,1
475.00,121.65,1
37.00,127.05,1
118.00,132.47,1
65.00,134.98,1
103.00,135.30,1
91.00,134.06,1
142.00,132.21,1
41.00,129.87,1
95.00,126.42,1
114.00,122.47,1
157.00,119.39,1
188.00,118.22,1
76.00,118.47,1
108.00,118.44,1
37.00,117.19,1
85.00,114.57,1
61.00,111.00,1
125.00,107.35,1
87.00,104.33,1
116.00,102.01,1
69.00,100.08,1
74.00,98.02,1
305.00,97.53,1
142.00,100.79,1
155.00,106.10,1
102.00,111.21,1
62.00,114.88,1
167.00,117.13,1
91.00,118.99,1
70.00,119.93,1
75.00,119.20,1
144.00,117.69,1
54.00,116.11,1
74.00,113.75,1
37.00,110.16,1
106.00,105.89,1
97.00,102.00,1
54.00,98.60,1
40.00,94.78,1
54.00,90.28,1
73.00,85.71,1
133.00,82.15,1
142.00,80.72,1
69.00,80.97,1
99.00,81.62,1
54.00,82.07,1
156.00,82.70,1
171.00,84.90,1
134.00,88.99,1
127.00,93.86,1
89.00,98.39,1
197.00,102.74,1
241.00,108.66,1
44.00,115.56,1
65.00,120.24,1
73.00,121.86,1
97.00,121.58,1
240.00,121.54,1
107.00,123.14,1
50.00,124.44,1
58.00,123.49,1
76.00,120.67,1
67.00,116.83,1
59.00,112.27,1
155.00,107.91,1
95.00,104.86,1
65.00,102.48,1
77.00,99.77,1
36.00,96.52,1
105.00,92.95,1
181.00,90.70,1
108.00,90.74,1
57.00,91.55,1
64.00,91.50,1
228.00,91.85,1
41.00,93.73,1
86.00,95.34,1
157.00,96.47,1
42.00,97.79,1
50.00,97.98,1
77.00,96.69,1
66.00,94.74,1
71.00,92.43,1
104.00,90.21,1
36.00,88.13,1
112.00,86.02,1
88.00,84.45,1
67.00,83.40,1
77.00,82.31,1
58.00,81.07,1
124.00,80.06,1
90.00,79.92,1
112.00,80.62,1
39.00,81.40,1
49.00,81.28,1
51.00,80.04,1
131.00,78.78,1
65.00,78.35,1
38.00,77.90,1
75.00,76.77,1
181.00,76.43,1
41.00,77.59,1
67.00,78.64,1
86.00,78.99,1
64.00,79.15,1
63.00,78.94,1
65.00,78.28,1
69.00,77.35,1
50.00,76.17,1
48.00,74.55,1
172.00,73.49,1
112.00,74.45,1
36.00,76.28,1
58.00,77.16,1
38.00,76.83,1
115.00,76.10,1
49.00,75.65,1
132.00,75.65,1
52.00,76.17,1
42.00,76.35,1
116.00,76.04,1
57.00,76.03,1
46.00,75.79,1
46.00,74.71,1
180.00,74.04,1
56.00,74.90,1
46.00,75.88,1
125.00,76.36,1
145.00,77.86,1
38.00,80.16,1
73.00,81.70,1
36.00,81.96,1
97.00,81.45,1
48.00,80.66,1
38.00,79.30,1
57.00,77.13,1
80.00,74.85,1
52.00,72.87,1
70.00,71.05,1
51.00,69.33,1
41.00,67.48,1
90.00,65.69,1
82.00,64.66,1
127.00,64.91,1
81.00,66.40,1
81.00,68.39,1
96.00,70.45,1
70.00,72.53,1
39.00,73.98,1
64.00,74.39,1
76.00,74.24,1
50.00,73.87,1
47.00,72.99,1
104.00,71.95,1
142.00,72.07,1
53.00,73.43,1
104.00,74.95,1
63.00,76.30,1
75.00,77.33,1
122.00,78.32,1
69.00,79.70,1
46.00,80.63,1
48.00,80.39,1
92.00,79.48,1
171.00,79.49,1
64.00,81.00,1
56.00,82.40,1
67.00,82.74,1
75.00,82.45,1
38.00,81.60,1
53.00,79.94,1
45.00,77.59,1
87.00,75.14,1
90.00,73.34,1
47.00,72.16,1
93.00,71.16,1
108.00,70.87,1
111.00,71.79,1
130.00,73.93,1
62.00,76.69,1
184.00,79.89,1
71.00,83.81,1
118.00,87.69,1
37.00,90.58,1
218.00,93.17,1
87.00,96.68,1
129.00,100.46,1
152.00,104.13,1
98.00,107.86,1
45.00,110.37,1
61.00,110.69,1
133.00,109.75,1
167.00,109.49,1
64.00,110.05,1
128.00,110.34,1
136.00,110.68,1
90.00,111.33,1
47.00,111.14,1
93.00,109.60,1
75.00,107.35,1
78.00,104.74,1
91.00,101.95,1
40.00,98.93,1
38.00,95.08,1
66.00,90.52,1
81.00,86.13,1
74.00,82.44,1
78.00,79.45,1
36.00,76.75,1
44.00,73.76,1
37.00,70.37,1
88.00,67.17,1
122.00,65.29,1
54.00,64.91,1
140.00,65.53,1
138.00,67.75,1
100.00,71.49,1
62.00,75.27,1
113.00,78.44,1
112.00,81.57,1
103.00,84.89,1
90.00,87.98,1
91.00,90.50,1
60.00,92.18,1
68.00,92.70,1
122.00,92.65,1
51.00,92.55,1
72.00,91.86,1
43.00,90.25,1
103.00,88.20,1
86.00,86.49,1
139.00,85.76,1
74.00,86.00,1
77.00,86.34,1
112.00,86.56,1
160.00,87.69,1
35.00,89.52,1
68.00,90.40,1
105.00,90.36,1
124.00,90.66,1
116.00,91.77,1
35.00,92.81,1
61.00,92.57,1
122.00,91.63,1
88.00,91.14,1
51.00,90.64,1
50.00,89.24,1
63.00,87.00,1
44.00,84.24,1
118.00,81.58,1
113.00,80.10,1
63.00,79.70,1
122.00,79.75,1
129.00,80.76,1
82.00,82.68,1
43.00,84.19,1
82.00,84.62,1
86.00,84.56,1
42.00,84.16,1
110.00,83.39,1
41.00,82.55,1
63.00,81.28,1
57.00,79.49,1
86.00,77.67,1
198.00,77.25,1
123.00,79.40,1
119.00,83.09,1
161.00,87.45,1
71.00,92.11,1
62.00,95.62,1
42.00,97.07,1
124.00,97.19,1
89.00,97.19,1
139.00,97.63,1
43.00,98.12,1
60.00,97.62,1
75.00,95.95,1
78.00,93.88,1
92.00,91.88,1
75.00,90.11,1
68.00,88.34,1
42.00,86.17,1
72.00,83.52,1
88.00,81.01,1
70.00,79.05,1
84.00,77.53,1
110.00,76.69,1
79.00,76.69,1
105.00,77.24,1
62.00,78.00,1
42.00,78.25,1
79.00,77.70,1
63.00,76.89,1
139.00,76.58,1
89.00,77.38,1
101.00,78.88,1
36.00,80.12,1
52.00,80.27,1
170.00,80.30,1
93.00,81.71,1
72.00,83.62,1
161.00,85.60,1
64.00,88.07,1
366.00,92.45,1
373.00,102.40,1
47.00,116.26,1
102.00,127.65,1
193.00,135.76,1
60.00,141.94,1
71.00,145.11,1
53.00,144.86,1
176.00,142.80,1
84.00,140.55,1
45.00,137.40,1
68.00,132.47,1
97.00,126.62,1
119.00,121.14,1
80.00,116.40,1
39.00,111.57,1
86.00,106.22,1
77.00,101.02,1
39.00,96.02,1
97.00,91.13,1
90.00,87.08,1
67.00,83.97,1
92.00,81.44,1
130.00,79.98,1
78.00,79.78,1
94.00,80.14,1
121.00,80.96,1
204.00,83.38,1
49.00,87.26,1
146.00,91.02,1
53.00,94.13,1
47.00,95.83,1
99.00,95.98,1
133.00,96.04,1
36.00,96.23,1
86.00,95.59,1
49.00,94.07,1
37.00,91.61,1
82.00,88.41,1
64.00,85.24,1
174.00,83.20,1
63.00,82.83,1
123.00,83.31,1
51.00,83.90,1
139.00,84.59,1
198.00,86.68,1
103.00,90.65,1
64.00,94.55,1
35.00,96.58,1
125.00,97.06,1
76.00,97.20,1
182.00,97.89,1
82.00,99.49,1
62.00,100.79,1
144.00,101.34,1
81.00,101.97,1
76.00,102.22,1
91.00,101.71,1
217.00,101.89,1
75.00,103.64,1
158.00,105.88,1
91.00,108.07,1
122.00,109.98,1
45.00,110.93,1
38.00,110.04,1
86.00,107.41,1
103.00,104.44,1
36.00,101.43,1
46.00,97.61,1
100.00,93.36,1
80.00,89.74,1
112.00,87.10,1
62.00,85.24,1
99.00,83.78,1
124.00,83.08,1
104.00,83.53,1
71.00,84.44,1
50.00,84.78,1
130.00,84.73,1
61.00,84.95,1
199.00,86.04,1
91.00,88.59,1
98.00,91.56,1
49.00,93.56,1
44.00,93.96,1
85.00,92.98,1
74.00,91.54,1
262.00,91.51,1
109.00,94.32,1
59.00,97.79,1
117.00,100.04,1
79.00,101.52,1
52.00,101.98,1
64.00,101.00,1
138.00,99.54,1
102.00,98.79,1
62.00,98.29,1
139.00,97.68,1
198.00,98.43,1
136.00,101.27,1
102.00,104.81,1
53.00,107.27,1
212.00,109.07,1
85.00,111.47,1
139.00,113.93,1
56.00,115.49,1
88.00,115.66,1
67.00,114.42,1
50.00,111.94,1
70.00,108.31,1
104.00,104.39,1
148.00,101.48,1
42.00,99.57,1
67.00,97.30,1
37.00,94.10,1
146.00,90.93,1
67.00,88.80,1
56.00,87.02,1
68.00,84.83,1
123.00,82.97,1
91.00,82.16,1
40.00,81.68,1
89.00,80.76,1
50.00,79.60,1
165.00,79.01,1
47.00,79.50,1
57.00,79.85,1
61.00,79.31,1
130.00,78.83,1
96.00,79.31,1
85.00,80.41,1
105.00,81.65,1
38.00,82.65,1
83.00,82.85,1
67.00,82.51,1
87.00,82.03,1
45.00,81.32,1
185.00,81.08,1
111.00,82.58,1
51.00,84.76,1
76.00,86.01,1
131.00,86.88,1
91.00,88.22,1
64.00,89.44,1
78.00,89.86,1
37.00,89.32,1
45.00,87.58,1
92.00,85.17,1
86.00,83.12,1
47.00,81.39,1
178.00,80.34,1
54.00,80.69,1
121.00,81.66,1
87.00,82.86,1
54.00,83.92,1
103.00,84.41,1
226.00,86.02,1
74.00,89.59,1
127.00,93.49,1
78.00,96.71,1
45.00,98.67,1
64.00,98.79,1
69.00,97.62,1
127.00,96.22,1
119.00,95.63,1
87.00,95.76,1
36.00,95.42,1
84.00,93.99,1
44.00,91.84,1
35.00,88.89,1
65.00,85.18,1
42.00,81.25,1
90.00,77.55,1
76.00,74.63,1
44.00,72.32,1
143.00,70.71,1
51.00,70.29,1
39.00,70.00,1
77.00,69.16,1
108.00,68.72,1
98.00,69.36,1
55.00,70.53,1
180.00,72.29,1
40.00,75.00,1
92.00,77.49,1
73.00,79.27,1
162.00,81.31,1
94.00,84.24,1
98.00,87.38,1
129.00,90.35,1
123.00,93.58,1
45.00,96.41,1
268.00,99.36,1
100.00,103.94,1
112.00,108.79,1
98.00,112.36,1
196.00,115.52,1
259.00,120.31,1
66.00,126.43,1
50.00,130.54,1
271.00,132.94,1
56.00,135.72,1
38.00,136.81,1
61.00,134.71,1
83.00,130.67,1
47.00,125.52,1
42.00,119.25,1
65.00,112.16,1
35.00,104.76,1
70.00,97.36,1
72.00,90.56,1
60.00,84.66,1
57.00,79.44,1
61.00,74.78,1
39.00,70.57,1
519.00,70.46,1
166.00,78.46,1
252.00,91.08,1
222.00,105.05,1
89.00,118.69,1
125.00,129.47,1
662.00,141.66,1
198.00,159.99,1
171.00,178.77,1
36.00,191.89,1
104.00,198.33,1
206.00,200.37,1
76.00,200.17,1
465.00,200.21,1
58.00,202.42,1
375.00,205.31,1
71.00,207.98,1
143.00,208.59,1
36.00,205.40,1
153.00,199.21,1
63.00,191.23,1
41.00,181.47,1
52.00,169.65,1
81.00,156.90,1
399.00,147.09,1
78.00,142.69,1
44.00,139.59,1
74.00,134.58,1
306.00,130.44,1
41.00,128.99,1
88.00,127.56,1
79.00,124.70,1
104.00,121.29,1
164.00,118.41,1
156.00,117.18,1
84.00,116.99,1
84.00,116.35,1
206.00,115.80,1
79.00,116.32,1
111.00,116.79,1
40.00,116.09,1
121.00,114.31,1
86.00,112.20,1
94.00,110.09,1
76.00,107.74,1
179.00,105.91,1
41.00,104.95,1
39.00,103.22,1
75.00,100.09,1
176.00,97.42,1
70.00,96.28,1
126.00,95.88,1
97.00,95.87,1
164.00,96.71,1
90.00,98.40,1
118.00,100.26,1
130.00,102.13,1
116.00,104.26,1
132.00,106.51,1
342.00,110.68,1
154.00,118.25,1
121.00,126.48,1
108.00,132.70,1
136.00,136.95,1
127.00,139.83,1
311.00,143.20,1
82.00,147.90,1
39.00,150.82,1
118.00,150.29,1
38.00,147.49,1
69.00,142.64,1
130.00,136.77,1
82.00,131.18,1
237.00,126.98,1
52.00,124.64,1
204.00,123.25,1
137.00,123.05,1
197.00,124.44,1
84.00,126.46,1
163.00,128.18,1
180.00,130.14,1
96.00,132.44,1
147.00,134.10,1
114.00,135.08,1
45.00,134.85,1
44.00,132.25,1
87.00,127.73,1
63.00,122.38,1
97.00,116.81,1
38.00,111.16,1
69.00,105.18,1
129.00,99.69,1
194.00,96.52,1
63.00,95.73,1
150.00,95.86,1
49.00,96.19,1
76.00,95.93,1
52.00,94.65,1
97.00,92.83,1
262.00,92.57,1
90.00,95.22,1
266.00,99.94,1
44.00,105.75,1
172.00,111.02,1
332.00,117.30,1
260.00,127.26,1
396.00,141.03,1
103.00,156.39,1
180.00,169.36,1
80.00,178.06,1
52.00,182.00,1
39.00,180.82,1
121.00,175.98,1
114.00,169.74,1
98.00,163.08,1
117.00,156.15,1
48.00,148.86,1
55.00,140.61,1
200.00,132.63,1
166.00,127.32,1
107.00,124.36,1
145.00,122.33,1
137.00,121.16,1
136.00,120.86,1
161.00,121.35,1
164.00,122.86,1
78.00,124.64,1
50.00,124.92,1
39.00,122.77,1
127.00,119.16,1
192.00,116.50,1
80.00,115.53,1
131.00,114.96,1
73.00,114.15,1
222.00,113.90,1
64.00,114.74,1
550.00,119.05,1
282.00,130.45,1
220.00,145.89,1
62.00,159.28,1
174.00,168.44,1
65.00,173.75,1
154.00,175.84,1
44.00,175.09,1
167.00,172.07,1
81.00,167.88,1
154.00,163.14,1
121.00,158.34,1
75.00,153.36,1
152.00,148.00,1
346.00,145.04,1
77.00,145.59,1
48.00,145.72,1
39.00,142.74,1
51.00,137.23,1
61.00,130.16,1
37.00,122.22,1
92.00,114.01,1
166.00,107.21,1
42.00,102.34,1
68.00,97.89,1
230.00,94.65,1
100.00,94.24,1
130.00,95.45,1
147.00,97.41,1
140.00,100.34,1
221.00,104.62,1
178.00,110.72,1
61.00,116.98,1
78.00,120.98,1
76.00,122.41,1
114.00,122.28,1
221.00,122.48,1
249.00,125.26,1
193.00,130.79,1
93.00,136.67,1
112.00,140.69,1
124.00,142.74,1
127.00,143.60,1
88.00,143.35,1
109.00,141.83,1
143.00,139.69,1
466.00,140.56,1
52.00,145.94,1
95.00,150.70,1
104.00,152.18,1
178.00,152.24,1
38.00,151.36,1
44.00,148.15,1
115.00,142.79,1
212.00,138.01,1
245.00,136.31,1
103.00,137.18,1
229.00,138.93,1
128.00,141.36,1
144.00,143.74,1
156.00,145.52,1
218.00,147.63,1
118.00,150.22,1
104.00,151.83,1
91.00,151.47,1
62.00,149.05,1
108.00,144.92,1
188.00,140.84,1
56.00,137.54,1
68.00,133.52,1
61.00,128.14,1
66.00,121.93,1
98.00,115.58,1
112.00,110.03,1
35.00,105.12,1
150.00,100.66,1
70.00,97.29,1
160.00,95.24,1
157.00,95.06,1
124.00,96.77,1
183.00,99.74,1
113.00,103.69,1
148.00,107.88,1
57.00,111.35,1
58.00,112.96,1
124.00,112.88,1
204.00,113.31,1
108.00,115.18,1
46.00,116.64,1
65.00,116.07,1
216.00,115.04,1
69.00,115.14,1
45.00,114.70,1
97.00,112.68,1
129.00,110.46,1
86.00,108.76,1
78.00,107.01,1
79.00,104.79,1
80.00,102.24,1
127.00,99.95,1
81.00,98.33,1
233.00,98.19,1
46.00,99.73,1
107.00,101.18,1
134.00,102.19,1
47.00,103.06,1
113.00,103.14,1
94.00,102.81,1
126.00,102.70,1
46.00,102.45,1
36.00,100.96,1
75.00,98.08,1
47.00,94.57,1
289.00,92.57,1
92.00,93.92,1
106.00,96.63,1
138.00,99.15,1
67.00,101.50,1
122.00,103.18,1
72.00,104.21,1
145.00,104.94,1
52.00,105.45,1
56.00,104.88,1
118.00,103.30,1
36.00,101.39,1
62.00,98.67,1
125.00,95.69,1
102.00,93.69,1
71.00,92.37,1
122.00,91.35,1
63.00,90.67,1
58.00,89.69,1
57.00,87.92,1
82.00,85.77,1
72.00,83.73,1
37.00,81.58,1
42.00,78.77,1
96.00,75.83,1
114.00,73.97,1
92.00,73.57,1
45.00,73.67,1
46.00,73.19,1
44.00,71.89,1
53.00,70.07,1
47.00,67.99,1
71.00,65.97,1
44.00,64.17,1
88.00,62.73,1
72.00,61.97,1
191.00,62.87,1
70.00,65.80,1
115.00,69.54,1
181.00,74.08,1
64.00,79.56,1
43.00,84.00,1
257.00,87.96,1
86.00,93.39,1
75.00,98.60,1
194.00,102.85,1
59.00,106.99,1
108.00,110.07,1
69.00,111.60,1
68.00,111.67,1
177.00,111.19,1
142.00,111.81,1
36.00,112.69,1
123.00,112.41,1
132.00,111.91,1
177.00,112.50,1
99.00,114.07,1
149.00,115.83,1
79.00,117.27,1
199.00,118.66,1
64.00,120.28,1
40.00,120.55,1
242.00,119.95,1
127.00,120.92,1
120.00,122.76,1
68.00,123.69,1
121.00,123.42,1
248.00,123.76,1
121.00,126.03,1
63.00,128.17,1
56.00,128.06,1
86.00,125.88,1
44.00,122.29,1
51.00,117.39,1
60.00,111.48,1
255.00,106.82,1
73.00,105.07,1
129.00,104.67,1
69.00,104.21,1
182.00,104.13,1
40.00,104.55,1
65.00,104.11,1
119.00,102.71,1
136.00,101.89,1
97.00,101.93,1
146.00,102.54,1
234.00,104.77,1
71.00,108.66,1
111.00,112.05,1
73.00,113.93,1
42.00,114.06,1
45.00,112.05,1
101.00,108.73,1
48.00,105.04,1
69.00,100.97,1
41.00,96.40,1
64.00,91.52,1
180.00,87.67,1
122.00,86.36,1
54.00,86.49,1
74.00,86.25,1
203.00,86.56,1
101.00,88.75,1
109.00,91.73,1
46.00,93.99,1
81.00,94.91,1
277.00,96.48,1
36.00,100.04,1
196.00,103.95,1
262.00,109.20,1
36.00,115.84,1
60.00,120.28,1
170.00,122.38,1
71.00,123.83,1
63.00,123.94,1
40.00,121.86,1
47.00,117.81,1
42.00,112.28,1
234.00,107.39,1
223.00,106.18,1
130.00,108.46,1
181.00,112.10,1
158.00,116.53,1
43.00,120.50,1
69.00,122.09,1
59.00,121.25,1
49.00,118.55,1
117.00,114.84,1
57.00,111.03,1
102.00,107.21,1
121.00,103.92,1
104.00,101.70,1
78.00,100.02,1
70.00,98.15,1
64.00,95.82,1
44.00,92.87,1
47.00,89.21,1
50.00,85.02,1
115.00,81.19,1
66.00,78.46,1
66.00,76.38,1
84.00,74.60,1
50.00,73.13,1
69.00,71.68,1
158.00,71.08,1
113.00,72.40,1
35.00,74.49,1
82.00,75.80,1
101.00,76.76,1
98.00,78.11,1
100.00,79.84,1
83.00,81.66,1
250.00,84.61,1
48.00,89.28,1
70.00,93.31,1
44.00,95.19,1
99.00,95.59,1
94.00,95.51,1
68.00,95.22,1
54.00,94.20,1
100.00,92.58,1
45.00,90.75,1
140.00,89.09,1
49.00,87.98,1
39.00,86.51,1
59.00,84.07,1
68.00,81.28,1
57.00,78.56,1
66.00,75.94,1
61.00,73.51,1
158.00,72.09,1
225.00,73.60,1
180.00,78.88,1
58.00,85.62,1
71.00,90.93,1
68.00,94.16,1
107.00,96.09,1
55.00,97.16,1
38.00,96.87,1
86.00,95.23,1
127.00,93.63,1
94.00,92.90,1
231.00,93.81,1
57.00,96.47,1
41.00,98.49,1
38.00,98.25,1
60.00,96.26,1
51.00,93.28,1
38.00,89.58,1
96.00,85.64,1
91.00,82.47,1
117.00,80.62,1
37.00,79.54,1
74.00,78.29,1
42.00,76.60,1
105.00,74.96,1
67.00,73.88,1
42.00,72.93,1
98.00,71.86,1
46.00,71.01,1
42.00,69.93,1
93.00,68.64,1
36.00,67.57,1
71.00,66.48,1
157.00,66.22,1
132.00,68.16,1
112.00,71.80,1
51.00,75.56,1
125.00,78.71,1
163.00,82.36,1
94.00,86.92,1
94.00,91.19,1
127.00,94.81,1
77.00,97.94,1
110.00,100.31,1
48.00,101.64,1
98.00,101.81,1
57.00,101.06,1
58.00,99.36,1
55.00,96.66,1
77.00,93.43,1
116.00,90.56,1
80.00,88.61,1
194.00,88.09,1
140.00,89.82,1
85.00,92.79,1
200.00,96.19,1
60.00,100.10,1
42.00,102.76,1
79.00,103.20,1
112.00,102.68,1
40.00,101.73,1
62.00,99.74,1
112.00,97.20,1
100.00,95.24,1
120.00,94.18,1
120.00,94.07,1
100.00,94.68,1
45.00,95.04,1
103.00,94.57,1
137.00,94.29,1
112.00,95.01,1
38.00,95.72,1
76.00,95.27,1
140.00,94.50,1
118.00,94.73,1
66.00,95.42,1
42.00,95.21,1
216.00,94.92,1
114.00,96.43,1
55.00,98.52,1
64.00,99.23,1
74.00,98.60,1
121.00,97.61,1
136.00,97.37,1
72.00,97.82,1
39.00,97.57,1
37.00,95.68,1
134.00,93.12,1
190.00,92.18,1
39.00,92.99,1
37.00,93.04,1
66.00,91.47,1
80.00,89.31,1
114.00,87.53,1
108.00,86.72,1
63.00,86.49,1
74.00,86.00,1
41.00,84.86,1
43.00,82.83,1
128.00,80.65,1
57.00,79.28,1
86.00,78.33,1
126.00,77.95,1
66.00,78.43,1
293.00,80.77,1
66.00,85.83,1
60.00,90.85,1
80.00,93.88,1
60.00,95.38,1
39.00,95.34,1
65.00,93.84,1
74.00,91.61,1
73.00,89.25,1
78.00,86.96,1
36.00,84.54,1
96.00,81.94,1
111.00,80.06,1
48.00,79.01,1
90.00,78.05,1
72.00,77.22,1
109.00,76.88,1
111.00,77.39,1
137.00,79.08,1
100.00,81.77,1
77.00,84.53,1
118.00,86.91,1
130.00,89.51,1
35.00,91.93,1
190.00,93.96,1
57.00,96.30,1
149.00,98.65,1
41.00,100.44,1
100.00,101.22,1
270.00,102.72,1
58.00,106.21,1
155.00,109.81,1
94.00,112.74,1
42.00,114.42,1
39.00,113.68,1
91.00,111.09,1
84.00,107.97,1
178.00,105.64,1
104.00,104.88,1
47.00,104.41,1
119.00,103.22,1
50.00,101.67,1
127.00,99.99,1
75.00,98.54,1
48.00,96.86,1
140.00,94.95,1
72.00,93.66,1
149.00,93.17,1
104.00,93.64,1
130.00,94.93,1
137.00,96.92,1
71.00,99.17,1
212.00,101.66,1
117.00,105.26,1
189.00,109.78,1
111.00,114.59,1
101.00,118.70,1
71.00,121.04,1
52.00,121.26,1
86.00,119.55,1
91.00,116.90,1
41.00,113.57,1
88.00,109.43,1
260.00,106.63,1
41.00,106.36,1
73.00,106.07,1
42.00,104.21,1
79.00,101.30,1
105.00,98.26,1
77.00,95.73,1
114.00,93.72,1
120.00,92.61,1
136.00,92.75,1
56.00,93.50,1
82.00,93.70,1
104.00,93.43,1
54.00,92.98,1
42.00,91.65,1
42.00,89.10,1
70.00,85.81,1
122.00,82.99,1
127.00,81.76,1
60.00,81.71,1
96.00,81.81,1
274.00,83.52,1
160.00,88.73,1
206.00,96.40,1
131.00,104.85,1
86.00,112.37,1
83.00,117.58,1
126.00,120.76,1
109.00,122.86,1
60.00,123.73,1
81.00,122.86,1
127.00,121.01,1
47.00,118.77,1
88.00,115.67,1
151.00,112.58,1
36.00,110.04,1
99.00,107.13,1
42.00,103.64,1
256.00,101.20,1
47.00,100.96,1
153.00,101.61,1
64.00,102.20,1
96.00,102.38,1
289.00,103.64,1
74.00,107.37,1
181.00,111.76,1
303.00,117.55,1
186.00,126.12,1
117.00,135.00,1
110.00,141.65,1
40.00,145.15,1
297.00,147.03,1
44.00,149.21,1
336.00,151.90,1
37.00,155.15,1
67.00,156.42,1
344.00,156.47,1
178.00,159.04,1
206.00,163.23,1
62.00,166.40,1
86.00,166.75,1
53.00,163.87,1
72.00,158.44,1
136.00,151.80,1
247.00,146.63,1
233.00,144.99,1
213.00,146.62,1
202.00,150.14,1
208.00,154.67,1
87.00,158.84,1
75.00,160.51,1
104.00,159.30,1
90.00,156.15,1
126.00,151.96,1
36.00,146.87,1
53.00,140.19,1
122.00,132.65,1
59.00,125.47,1
113.00,118.77,1
198.00,113.75,1
48.00,110.78,1
203.00,108.98,1
78.00,108.40,1
64.00,107.88,1
43.00,105.95,1
135.00,103.34,1
279.00,102.83,1
71.00,105.34,1
243.00,109.26,1
291.00,115.65,1
37.00,123.82,1
83.00,129.63,1
297.00,133.88,1
123.00,139.30,1
175.00,144.76,1
41.00,148.36,1
384.00,151.50,1
341.00,158.44,1
111.00,168.20,1
70.00,175.29,1
114.00,177.85,1
99.00,177.16,1
65.00,173.91,1
118.00,168.55,1
169.00,162.78,1
40.00,157.10,1
84.00,150.35,1
208.00,143.68,1
212.00,139.75,1
106.00,138.25,1
87.00,136.77,1
87.00,134.16,1
127.00,130.94,1
102.00,127.83,1
36.00,124.27,1
59.00,119.36,1
246.00,114.99,1
378.00,115.64,1
268.00,122.85,1
331.00,134.56,1
110.00,147.66,1
67.00,157.84,1
220.00,164.18,1
139.00,168.90,1
59.00,171.51,1
217.00,171.73,1
121.00,171.28,1
71.00,169.66,1
130.00,166.06,1
73.00,161.14,1
40.00,154.67,1
228.00,147.79,1
84.00,142.48,1
161.00,138.33,1
139.00,135.12,1
99.00,132.66,1
68.00,129.75,1
205.00,126.88,1
148.00,125.70,1
187.00,126.36,1
140.00,128.17,1
54.00,129.60,1
154.00,129.73,1
224.00,130.38,1
83.00,132.26,1
142.00,133.71,1
96.00,134.21,1
75.00,133.51,1
186.00,132.14,1
192.00,132.01,1
45.00,132.65,1
239.00,133.05,1
287.00,135.64,1
48.00,140.27,1
132.00,143.41,1
63.00,144.14,1
107.00,142.94,1
209.00,141.32,1
110.00,140.65,1
36.00,139.34,1
126.00,136.27,1
66.00,132.36,1
41.00,127.46,1
150.00,121.99,1
50.00,117.02,1
89.00,112.18,1
62.00,107.18,1
88.00,102.31,1
79.00,97.86,1
173.00,94.71,1
45.00,93.07,1
52.00,91.35,1
105.00,89.11,1
54.00,87.08,1
143.00,85.60,1
174.00,85.91,1
138.00,88.51,1
171.00,92.69,1
86.00,97.48,1
137.00,101.86,1
108.00,105.69,1
77.00,108.66,1
117.00,110.45,1
143.00,111.91,1
41.00,112.99,1
93.00,112.69,1
169.00,112.00,1
57.00,111.81,1
50.00,110.72,1
66.00,108.05,1
38.00,104.26,1
259.00,101.26,1
123.00,101.25,1
43.00,102.43,1
60.00,102.14,1
173.00,101.32,1
135.00,101.82,1
86.00,103.22,1
343.00,106.24,1
146.00,112.63,1
69.00,119.59,1
41.00,123.61,1
55.00,124.29,1
74.00,122.54,1
162.00,120.18,1
248.00,119.74,1
42.00,121.24,1
243.00,123.14,1
73.00,125.48,1
41.00,126.66,1
127.00,125.69,1
63.00,123.76,1
133.00,121.40,1
160.00,119.63,1
50.00,118.49,1
252.00,117.93,1
75.00,118.82,1
38.00,119.20,1
42.00,117.12,1
87.00,113.39,1
54.00,109.02,1
106.00,104.58,1
61.00,100.45,1
177.00,97.34,1
177.00,96.67,1
62.00,97.88,1
168.00,99.45,1
63.00,101.16,1
104.00,102.41,1
55.00,102.67,1
175.00,102.68,1
88.00,103.38,1
62.00,103.91,1
117.00,103.58,1
36.00,102.64,1
64.00,100.63,1
44.00,97.47,1
73.00,93.70,1
113.00,90.24,1
150.00,88.35,1
47.00,87.79,1
78.00,87.13,1
116.00,86.38,1
85.00,86.22,1
170.00,87.03,1
127.00,89.36,1
77.00,92.33,1
95.00,94.64,1
36.00,95.75,1
228.00,96.69,1
106.00,99.17,1
194.00,103.04,1
64.00,107.20,1
104.00,110.33,1
58.00,111.78,1
101.00,111.83,1
68.00,110.88,1
86.00,109.15,1
64.00,106.74,1
136.00,104.27,1
61.00,102.23,1
37.00,99.74,1
167.00,97.04,1
87.00,95.58,1
73.00,94.74,1
41.00,93.23,1
212.00,92.03,1
71.00,92.51,1
59.00,93.23,1
51.00,92.66,1
63.00,91.01,1
53.00,88.65,1
41.00,85.66,1
82.00,82.34,1
53.00,79.23,1
140.00,76.96,1
178.00,76.94,1
127.00,79.53,1
91.00,83.21,1
55.00,86.26,1
197.00,89.02,1
66.00,92.43,1
152.00,95.95,1
58.00,98.98,1
59.00,100.72,1
135.00,101.28,1
68.00,101.64,1
52.00,101.22,1
126.00,100.01,1
148.00,99.52,1
104.00,100.21,1
46.00,100.75,1
149.00,100.67,1
44.00,100.49,1
106.00,99.87,1
117.00,99.18,1
60.00,98.68,1
125.00,98.03,1
170.00,98.26,1
73.00,99.65,1
37.00,100.32,1
47.00,99.11,1
71.00,96.56,1
41.00,93.32,1
61.00,89.54,1
99.00,85.87,1
72.00,82.98,1
38.00,80.36,1
36.00,77.24,1
67.00,73.78,1
104.00,70.97,1
111.00,69.69,1
92.00,69.88,1
118.00,71.13,1
127.00,73.50,1
47.00,76.34,1
64.00,78.33,1
197.00,80.33,1
125.00,84.03,1
50.00,88.17,1
232.00,92.18,1
73.00,97.03,1
59.00,101.12,1
133.00,103.56,1
37.00,104.98,1
83.00,104.96,1
102.00,104.00,1
35.00,102.49,1
53.00,99.80,1
121.00,96.61,1
168.00,94.83,1
135.00,95.27,1
60.00,96.58,1
57.00,96.96,1
47.00,95.84,1
55.00,93.51,1
148.00,91.17,1
138.00,90.44,1
66.00,90.96,1
115.00,91.53,1
60.00,91.88,1
59.00,91.52,1
37.00,90.00,1
133.00,88.06,1
63.00,86.70,1
54.00,85.39,1
70.00,83.55,1
83.00,81.69,1
48.00,79.92,1
169.00,78.81,1
257.00,80.68,1
53.00,85.54,1
101.00,90.24,1
72.00,93.54,1
43.00,95.33,1
52.00,95.26,1
44.00,93.62,1
66.00,90.97,1
73.00,88.02,1
100.00,85.44,1
62.00,83.42,1
67.00,81.54,1
34.00,79.31,1
106.00,76.98,1
41.00,75.04,1
131.00,73.73,1
149.00,74.03,1
112.00,76.29,1
51.00,79.00,1
114.00,81.15,1
64.00,82.93,1
83.00,84.23,1
82.00,85.01,1
82.00,85.51,1
34.00,85.38,1
82.00,84.36,1
114.00,83.37,1
82.00,83.11,1
105.00,83.33,1
90.00,83.89,1
182.00,85.42,1
78.00,88.14,1
62.00,90.61,1
79.00,91.81,1
93.00,92.28,1
40.00,92.09,1
150.00,91.58,1
65.00,91.51,1
54.00,91.19,1
106.00,90.24,1
87.00,89.44,1
46.00,88.58,1
50.00,86.88,1
100.00,84.74,1
73.00,82.99,1
61.00,81.45,1
64.00,79.72,1
38.00,77.66,1
74.00,75.29,1
82.00,73.21,1
67.00,71.73,1
50.00,70.44,1
37.00,68.81,1
69.00,66.89,1
36.00,64.96,1
89.00,63.25,1
94.00,62.40,1
37.00,62.29,1
57.00,62.00,1
67.00,61.53,1
64.00,61.25,1
64.00,61.16,1
59.00,61.14,1
177.00,62.08,1
88.00,64.90,1
38.00,68.13,1
100.00,70.52,1
82.00,72.64,1
56.00,74.50,1
76.00,75.68,1
70.00,76.37,1
56.00,76.61,1
127.00,76.82,1
157.00,78.31,1
36.00,80.81,1
124.00,82.96,1
75.00,84.82,1
101.00,86.52,1
72.00,87.84,1
46.00,88.35,1
108.00,88.05,1
43.00,87.44,1
48.00,86.08,1
56.00,83.81,1
82.00,81.31,1
37.00,78.84,1
73.00,76.26,1
36.00,73.58,1
43.00,70.66,1
70.00,67.69,1
163.00,66.07,1
46.00,66.32,1
173.00,67.86,1
51.00,70.48,1
68.00,72.97,1
67.00,74.55,1
40.00,75.28,1
66.00,75.11,1
58.00,74.39,1
38.00,73.20,1
60.00,71.49,1
74.00,69.74,1
78.00,68.47,1
54.00,67.59,1
138.00,67.36,1
43.00,68.05,1
56.00,68.64,1
67.00,68.65,1
44.00,68.32,1
58.00,67.56,1
76.00,66.71,1
84.00,66.28,1
79.00,66.44,1
84.00,67.06,1
72.00,67.96,1
37.00,68.58,1
67.00,68.54,1
127.00,68.70,1
78.00,69.87,1
89.00,71.52,1
44.00,72.88,1
108.00,73.87,1
70.00,74.91,1
37.00,75.57,1
57.00,75.23,1
127.00,74.79,1
70.00,75.12,1
105.00,75.97,1
60.00,76.92,1
106.00,77.83,1
114.00,79.14,1
67.00,80.84,1
62.00,82.01,1
64.00,82.29,1
97.00,82.16,1
50.00,81.88,1
95.00,81.38,1
43.00,80.64,1
122.00,79.92,1
48.00,79.50,1
45.00,78.72,1
68.00,77.22,1
113.00,75.95,1
61.00,75.42,1
80.00,75.12,1
114.00,75.18,1
36.00,75.59,1
65.00,75.46,1
139.00,75.40,1
63.00,76.21,1
143.00,77.70,1
126.00,80.18,1
74.00,83.28,1
146.00,86.36,1
137.00,90.02,1
72.00,93.89,1
143.00,97.23,1
127.00,100.56,1
172.00,104.47,1
135.00,109.01,1
43.00,112.86,1
118.00,114.86,1
42.00,115.24,1
71.00,113.94,1
120.00,111.69,1
178.00,110.34,1
63.00,110.11,1
36.00,109.10,1
96.00,106.63,1
48.00,103.50,1
106.00,100.15,1
37.00,96.75,1
53.00,92.89,1
116.00,89.02,1
117.00,86.46,1
40.00,84.88,1
68.00,83.06,1
117.00,81.36,1
75.00,80.49,1
80.00,80.04,1
57.00,79.46,1
53.00,78.44,1
90.00,77.15,1
121.00,76.55,1
48.00,76.70,1
117.00,77.04,1
97.00,77.89,1
34.00,78.81,1
112.00,79.19,1
38.00,79.31,1
51.00,78.75,1
80.00,77.54,1
36.00,76.09,1
43.00,74.09,1
145.00,72.32,1
86.00,72.08,1
56.00,72.60,1
190.00,73.81,1
40.00,76.23,1
75.00,78.41,1
81.00,79.71,1
80.00,80.68,1
64.00,81.27,1
66.00,81.29,1
101.00,81.08,1
54.00,80.90,1
70.00,80.39,1
76.00,79.57,1
37.00,78.46,1
71.00,76.84,1
190.00,76.12,1
84.00,77.49,1
39.00,79.26,1
88.00,80.05,1
76.00,80.40,1
143.00,81.18,1
92.00,82.84,1
40.00,84.39,1
42.00,84.55,1
90.00,83.63,1
38.00,82.32,1
56.00,80.43,1
43.00,77.93,1
52.00,75.05,1
62.00,72.11,1
41.00,69.29,1
86.00,66.75,1
49.00,64.78,1
64.00,63.20,1
70.00,61.94,1
55.00,61.08,1
68.00,60.46,1
63.00,60.09,1
114.00,60.36,1
85.00,61.71,1
58.00,63.52,1
104.00,65.31,1
70.00,67.30,1
79.00,69.26,1
154.00,71.62,1
91.00,75.00,1
72.00,78.46,1
65.00,80.97,1
75.00,82.50,1
71.00,83.29,1
38.00,83.24,1
37.00,81.96,1
106.00,80.06,1
46.00,78.42,1
70.00,76.79,1
40.00,74.87,1
60.00,72.67,1
260.00,72.06,1
50.00,74.42,1
46.00,77.11,1
71.00,78.37,1
90.00,79.04,1
42.00,79.34,1
90.00,79.13,1
35.00,78.47,1
75.00,77.31,1
43.00,75.76,1
107.00,74.29,1
97.00,73.64,1
51.00,73.62,1
119.00,73.81,1
40.00,74.23,1
83.00,74.43,1
75.00,74.44,1
97.00,74.71,1
130.00,75.76,1
114.00,77.95,1
71.00,80.59,1
75.00,82.67,1
60.00,83.83,1
88.00,84.28,1
121.00,84.78,1
51.00,85.51,1
70.00,85.66,1
79.00,85.17,1
84.00,84.56,1
63.00,83.86,1
43.00,82.65,1
35.00,80.50,1
106.00,78.00,1
61.00,76.08,1
67.00,74.54,1
73.00,73.12,1
144.00,72.58,1
74.00,73.37,1
47.00,74.35,1
82.00,74.70,1
46.00,74.62,1
99.00,74.34,1
98.00,74.50,1
37.00,74.91,1
73.00,74.77,1
113.00,74.63,1
57.00,75.01,1
53.00,75.12,1
58.00,74.55,1
39.00,73.37,1
79.00,71.81,1
38.00,70.20,1
42.00,68.27,1
55.00,66.01,1
40.00,63.68,1
36.00,61.22,1
57.00,58.72,1
98.00,56.93,1
146.00,56.98,1
116.00,59.37,1
124.00,63.39,1
57.00,67.83,1
57.00,71.40,1
129.00,74.23,1
60.00,77.03,1
126.00,79.71,1
153.00,82.96,1
138.00,87.41,1
137.00,92.59,1
122.00,97.88,1
37.00,102.12,1
98.00,104.37,1
90.00,105.29,1
100.00,105.63,1
116.00,105.75,1
78.00,105.73,1
57.00,104.94,1
50.00,102.84,1
36.00,99.43,1
127.00,95.61,1
72.00,92.54,1
64.00,89.91,1
69.00,87.17,1
98.00,84.68,1
71.00,82.76,1
63.00,81.08,1
103.00,79.60,1
96.00,78.86,1
61.00,78.63,1
66.00,78.20,1
113.00,77.82,1
132.00,78.47,1
66.00,80.05,1
46.00,81.16,1
57.00,81.09,1
65.00,80.21,1
39.00,78.75,1
37.00,76.52,1
46.00,73.60,1
55.00,70.47,1
100.00,67.87,1
45.00,66.14,1
39.00,64.53,1
93.00,62.96,1
40.00,61.88,1
38.00,60.75,1
50.00,59.26,1
94.00,58.09,1
77.00,57.88,1
36.00,58.16,1
57.00,58.15,1
70.00,58.04,1
92.00,58.43,1
89.00,59.63,1
82.00,61.50,1
39.00,63.29,1
106.00,64.76,1
94.00,66.60,1
85.00,68.92,1
121.00,71.60,1
34.00,74.26,1
65.00,75.92,1
81.00,76.69,1
103.00,77.46,1
60.00,78.36,1
46.00,78.66,1
48.00,77.94,1
56.00,76.45,1
64.00,74.63,1
65.00,72.84,1
40.00,71.01,1
99.00,69.28,1
78.00,68.29,1
46.00,67.77,1
72.00,67.14,1
63.00,66.53,1
49.00,65.90,1
264.00,66.75,1
105.00,70.87,1
54.00,76.02,1
70.00,79.76,1
73.00,82.15,1
105.00,83.91,1
80.00,85.47,1
101.00,86.86,1
115.00,88.32,1
77.00,89.88,1
39.00,90.63,1
243.00,91.50,1
122.00,94.50,1
60.00,98.20,1
40.00,100.08,1
99.00,100.16,1
117.00,99.84,1
65.00,99.59,1
43.00,98.49,1
38.00,95.96,1
39.00,92.15,1
112.00,88.09,1
45.00,84.65,1
77.00,81.53,1
52.00,78.54,1
86.00,75.88,1
44.00,73.57,1
72.00,71.41,1
70.00,69.54,1
87.00,68.29,1
50.00,67.51,1
143.00,67.43,1
85.00,68.62,1
70.00,70.43,1
81.00,72.00,1
79.00,73.39,1
38.00,74.30,1
47.00,74.21,1
76.00,73.40,1
41.00,72.33,1
53.00,70.87,1
58.00,69.11,1
65.00,67.41,1
39.00,65.77,1
166.00,64.91,1
74.00,65.81,1
54.00,67.37,1
66.00,68.38,1
72.00,69.02,1
116.00,69.91,1
40.00,71.13,1
43.00,71.67,1
89.00,71.49,1
90.00,71.55,1
104.00,72.34,1
85.00,73.71,1
57.00,75.05,1
79.00,75.88,1
118.00,76.76,1
45.00,77.86,1
73.00,78.45,1
78.00,78.51,1
119.00,78.85,1
60.00,79.61,1
121.00,80.54,1
59.00,81.57,1
45.00,81.99,1
73.00,81.43,1
38.00,80.20,1
54.00,78.28,1
43.00,75.79,1
42.00,72.88,1
72.00,69.90,1
40.00,67.19,1
68.00,64.72,1
54.00,62.61,1
37.00,60.70,1
208.00,60.03,1
90.00,62.05,1
52.00,65.18,1
115.00,67.97,1
81.00,70.84,1
69.00,73.54,1
46.00,75.33,1
53.00,75.97,1
42.00,75.54,1
36.00,74.14,1
112.00,72.48,1
108.00,71.87,1
52.00,72.19,1
55.00,72.25,1
75.00,71.86,1
40.00,71.21,1
51.00,70.07,1
44.00,68.41,1
60.00,66.53,1
52.00,64.69,1
118.00,63.48,1
85.00,63.56,1
41.00,64.24,1
120.00,65.01,1
51.00,66.19,1
134.00,67.85,1
83.00,70.20,1
86.00,72.86,1
107.00,75.47,1
68.00,78.00,1
101.00,80.19,1
122.00,82.44,1
71.00,84.88,1
38.00,86.41,1
66.00,86.47,1
40.00,85.37,1
74.00,83.52,1
37.00,81.22,1
96.00,78.79,1
68.00,76.79,1
108.00,75.55,1
118.00,75.45,1
46.00,76.11,1
40.00,76.15,1
43.00,75.04,1
91.00,73.50,1
91.00,72.52,1
42.00,71.98,1
41.00,70.98,1
128.00,69.95,1
92.00,70.09,1
76.00,71.08,1
61.00,72.01,1
41.00,72.30,1
80.00,71.97,1
105.00,71.87,1
46.00,72.20,1
81.00,72.37,1
69.00,72.39,1
67.00,72.37,1
34.00,71.92,1
40.00,70.64,1
50.00,68.67,1
35.00,66.34,1
103.00,64.22,1
58.00,62.96,1
40.00,62.07,1
166.00,61.86,1
53.00,63.18,1
144.00,65.53,1
35.00,68.27,1
99.00,70.68,1
42.00,72.45,1
66.00,73.45,1
51.00,73.64,1
91.00,73.49,1
82.00,73.55,1
64.00,73.81,1
58.00,73.77,1
112.00,73.72,1
47.00,73.96,1
75.00,74.02,1
77.00,73.88,1
42.00,73.57,1
105.00,73.10,1
52.00,72.84,1
76.00,72.59,1
60.00,72.18,1
41.00,71.43,1
38.00,69.98,1
39.00,67.85,1
48.00,65.33,1
110.00,63.28,1
39.00,62.18,1
39.00,61.17,1
38.00,59.65,1
38.00,57.77,1
58.00,55.86,1
76.00,54.46,1
42.00,53.69,1
48.00,53.04,1
40.00,52.27,1
140.00,52.18,1
79.00,53.70,1
42.00,55.90,1
94.00,57.85,1
50.00,59.73,1
82.00,61.47,1
58.00,63.01,1
58.00,64.21,1
48.00,64.83,1
93.00,65.19,1
154.00,66.53,1
39.00,69.01,1
49.00,70.93,1
42.00,71.52,1
81.00,71.36,1
91.00,71.31,1
34.00,71.38,1
74.00,70.98,1
43.00,70.19,1
43.00,68.95,1
62.00,67.30,1
47.00,65.59,1
39.00,63.73,1
109.00,62.14,1
76.00,61.65,1
51.00,61.82,1
62.00,61.89,1
62.00,61.85,1
70.00,61.90,1
67.00,62.11,1
62.00,62.42,1
67.00,62.72,1
57.00,62.97,1
56.00,63.03,1
65.00,62.93,1
60.00,62.80,1
54.00,62.60,1
67.00,62.32,1
37.00,61.91,1
53.00,61.15,1
55.00,60.18,1
84.00,59.50,1
59.00,59.35,1
35.00,59.24,1
110.00,59.16,1
50.00,59.67,1
52.00,60.26,1
50.00,60.39,1
43.00,60.10,1
60.00,59.51,1
98.00,59.25,1
81.00,59.90,1
122.00,61.57,1
59.00,63.98,1
86.00,66.41,1
54.00,68.41,1
107.00,70.15,1
115.00,72.33,1
82.00,75.07,1
65.00,77.51,1
46.00,78.94,1
150.00,79.94,1
55.00,81.39,1
37.00,82.26,1
68.00,81.81,1
99.00,81.00,1
82.00,80.59,1
69.00,80.36,1
62.00,79.85,1
58.00,78.90,1
52.00,77.47,1
89.00,75.89,1
47.00,74.47,1
86.00,73.15,1
123.00,72.57,1
142.00,73.64,1
67.00,75.94,1
34.00,77.74,1
77.00,78.28,1
39.00,77.97,1
63.00,76.95,1
36.00,75.29,1
62.00,73.16,1
81.00,71.11,1
48.00,69.45,1
46.00,67.74,1
57.00,65.82,1
37.00,63.80,1
105.00,62.12,1
40.00,61.16,1
38.00,60.26,1
41.00,58.87,1
57.00,57.33,1
69.00,56.12,1
36.00,55.25,1
40.00,54.25,1
50.00,53.08,1
46.00,51.96,1
81.00,51.25,1
39.00,51.05,1
83.00,51.21,1
166.00,52.73,1
64.00,56.11,1
115.00,60.22,1
109.00,64.69,1
116.00,69.68,1
84.00,74.68,1
39.00,78.67,1
63.00,80.96,1
108.00,82.27,1
62.00,83.37,1
58.00,83.84,1
58.00,83.37,1
53.00,82.12,1
59.00,80.29,1
76.00,78.28,1
50.00,76.32,1
50.00,74.17,1
50.00,71.74,1
72.00,69.36,1
57.00,67.32,1
72.00,65.69,1
56.00,64.40,1
127.00,63.87,1
37.00,64.22,1
61.00,64.53,1
120.00,64.94,1
82.00,66.27,1
44.00,67.81,1
126.00,69.19,1
114.00,71.33,1
76.00,74.16,1
114.00,77.00,1
127.00,80.18,1
53.00,83.42,1
60.00,85.53,1
49.00,86.14,1
50.00,85.44,1
54.00,83.76,1
51.00,81.43,1
127.00,79.30,1
44.00,77.95,1
175.00,77.58,1
90.00,78.76,1
161.00,81.33,1
67.00,84.57,1
127.00,87.72,1
52.00,90.30,1
52.00,91.61,1
70.00,91.41,1
69.00,90.39,1
72.00,88.93,1
36.00,86.93,1
127.00,84.77,1
79.00,83.38,1
74.00,82.53,1
69.00,81.61,1
167.00,81.35,1
82.00,82.46,1
56.00,83.78,1
70.00,84.20,1
72.00,83.93,1
52.00,83.16,1
42.00,81.63,1
115.00,79.84,1
46.00,78.47,1
56.00,77.01,1
55.00,75.11,1
42.00,72.90,1
45.00,70.32,1
55.00,67.58,1
61.00,65.05,1
104.00,63.30,1
119.00,63.10,1
68.00,64.27,1
53.00,65.58,1
36.00,66.14,1
128.00,66.46,1
84.00,67.63,1
76.00,69.36,1
90.00,71.07,1
65.00,72.68,1
211.00,75.07,1
96.00,79.23,1
66.00,83.65,1
83.00,86.81,1
51.00,88.67,1
53.00,89.10,1
67.00,88.34,1
78.00,87.03,1
62.00,85.51,1
132.00,84.29,1
54.00,83.71,1
44.00,82.85,1
56.00,81.10,1
36.00,78.67,1
76.00,75.90,1
75.00,73.45,1
97.00,71.84,1
35.00,70.75,1
66.00,69.51,1
43.00,68.00,1
100.00,66.69,1
33.00,65.77,1
62.00,64.78,1
56.00,63.65,1
116.00,63.09,1
51.00,63.38,1
72.00,63.91,1
96.00,64.60,1
141.00,66.34,1
83.00,69.28,1
93.00,72.54,1
90.00,75.59,1
111.00,78.58,1
80.00,81.50,1
83.00,83.95,1
37.00,85.37,1
58.00,85.39,1
51.00,84.27,1
43.00,82.30,1
64.00,79.75,1
72.00,77.18,1
45.00,74.76,1
69.00,72.36,1
40.00,69.99,1
57.00,67.57,1
93.00,65.54,1
36.00,64.14,1
124.00,63.35,1
88.00,63.73,1
46.00,64.79,1
72.00,65.53,1
83.00,66.19,1
127.00,67.53,1
68.00,69.68,1
37.00,71.49,1
116.00,72.62,1
106.00,74.19,1
62.00,76.15,1
112.00,77.96,1
104.00,79.98,1
65.00,82.06,1
102.00,83.71,1
67.00,84.97,1
84.00,85.76,1
114.00,86.41,1
86.00,87.34,1
54.00,87.97,1
40.00,87.46,1
108.00,86.18,1
59.00,84.96,1
67.00,83.64,1
97.00,82.27,1
72.00,81.26,1
50.00,80.22,1
72.00,78.78,1
86.00,77.40,1
69.00,76.39,1
53.00,75.38,1
44.00,73.92,1
118.00,72.51,1
55.00,71.82,1
66.00,71.35,1
158.00,71.49,1
94.00,73.17,1
99.00,75.71,1
62.00,78.07,1
68.00,79.67,1
47.00,80.28,1
53.00,79.85,1
143.00,79.32,1
89.00,79.85,1
127.00,81.34,1
61.00,83.12,1
46.00,84.15,1
75.00,84.03,1
50.00,83.19,1
61.00,81.74,1
136.00,80.49,1
72.00,80.23,1
36.00,79.99,1
97.00,79.16,1
47.00,78.19,1
111.00,77.37,1
66.00,76.96,1
61.00,76.61,1
59.00,75.86,1
47.00,74.64,1
47.00,72.89,1
71.00,70.91,1
59.00,69.10,1
170.00,68.41,1
172.00,70.32,1
61.00,74.21,1
87.00,77.87,1
92.00,80.78,1
52.00,82.99,1
48.00,83.92,1
54.00,83.53,1
51.00,82.16,1
72.00,80.28,1
42.00,78.16,1
35.00,75.53,1
94.00,72.74,1
105.00,70.92,1
41.00,70.05,1
66.00,69.16,1
51.00,68.05,1
44.00,66.70,1
36.00,64.92,1
51.00,62.79,1
66.00,60.79,1
113.00,59.70,1
106.00,60.21,1
72.00,61.88,1
145.00,64.37,1
104.00,68.01,1
60.00,71.94,1
71.00,74.99,1
91.00,77.24,1
47.00,78.88,1
116.00,80.01,1
51.00,80.95,1
144.00,81.98,1
43.00,83.21,1
81.00,83.96,1
51.00,83.87,1
85.00,83.23,1
92.00,82.58,1
51.00,82.00,1
45.00,80.83,1
67.00,78.99,1
68.00,77.02,1
46.00,75.04,1
127.00,73.42,1
57.00,72.72,1
96.00,72.57,1
77.00,72.75,1
39.00,72.87,1
97.00,72.63,1
66.00,72.52,1
56.00,72.39,1
120.00,72.37,1
100.00,73.24,1
75.00,74.74,1
78.00,76.13,1
53.00,77.01,1
66.00,77.19,1
41.00,76.64,1
44.00,75.26,1
98.00,73.61,1
42.00,72.24,1
48.00,70.72,1
58.00,68.84,1
42.00,66.84,1
42.00,64.63,1
48.00,62.25,1
83.00,60.21,1
50.00,58.85,1
85.00,58.09,1
56.00,57.88,1
150.00,58.68,1
103.00,61.14,1
53.00,64.37,1
52.00,66.85,1
142.00,69.00,1
50.00,71.54,1
66.00,73.65,1
127.00,75.38,1
84.00,77.54,1
119.00,80.04,1
182.00,83.48,1
82.00,88.01,1
64.00,91.93,1
70.00,94.17,1
60.00,94.93,1
75.00,94.56,1
65.00,93.41,1
58.00,91.63,1
82.00,89.42,1
64.00,87.14,1
74.00,84.87,1
89.00,82.83,1
101.00,81.46,1
43.00,80.48,1
141.00,79.79,1
87.00,80.04,1
72.00,80.79,1
70.00,81.17,1
61.00,81.03,1
65.00,80.37,1
111.00,79.70,1
82.00,79.61,1
57.00,79.66,1
94.00,79.45,1
152.00,79.95,1
112.00,81.90,1
46.00,84.17,1
75.00,85.42,1
44.00,85.53,1
143.00,85.30,1
72.00,85.64,1
114.00,86.38,1
61.00,87.07,1
98.00,87.48,1
60.00,87.51,1
48.00,86.84,1
36.00,85.04,1
82.00,82.53,1
88.00,80.27,1
42.00,78.38,1
34.00,76.05,1
63.00,73.19,1
88.00,70.65,1
59.00,68.85,1
44.00,67.27,1
67.00,65.60,1
127.00,64.69,1
95.00,65.31,1
55.00,66.70,1
49.00,67.65,1
35.00,67.69,1
99.00,67.28,1
74.00,67.28,1
66.00,67.64,1
70.00,67.96,1
41.00,68.00,1
104.00,67.90,1
59.00,68.12,1
61.00,68.38,1
42.00,68.16,1
43.00,67.29,1
108.00,66.36,1
38.00,65.91,1
64.00,65.44,1
36.00,64.59,1
66.00,63.47,1
45.00,62.28,1
40.00,60.94,1
86.00,59.64,1
36.00,58.74,1
42.00,57.76,1
67.00,56.66,1
146.00,56.60,1
75.00,58.29,1
82.00,60.78,1
61.00,63.15,1
79.00,65.20,1
48.00,66.80,1
50.00,67.67,1
50.00,67.73,1
118.00,67.75,1
48.00,68.29,1
64.00,68.74,1
100.00,69.09,1
61.00,69.75,1
107.00,70.67,1
102.00,72.15,1
40.00,73.79,1
46.00,74.49,1
39.00,73.96,1
61.00,72.64,1
111.00,71.49,1
37.00,70.89,1
93.00,70.39,1
42.00,69.87,1
35.00,68.91,1
55.00,67.30,1
65.00,65.57,1
98.00,64.43,1
78.00,64.24,1
37.00,64.38,1
52.00,64.03,1
102.00,63.67,1
104.00,64.25,1
109.00,66.03,1
100.00,68.69,1
52.00,71.43,1
99.00,73.65,1
70.00,75.55,1
82.00,77.15,1
152.00,79.01,1
101.00,81.84,1
134.00,85.32,1
149.00,89.44,1
94.00,93.97,1
110.00,98.00,1
91.00,101.17,1
72.00,103.23,1
79.00,103.99,1
144.00,104.21,1
54.00,104.42,1
78.00,103.85,1
87.00,102.43,1
57.00,100.51,1
72.00,97.99,1
67.00,95.03,1
57.00,91.81,1
63.00,88.34,1
53.00,84.74,1
52.00,81.02,1
80.00,77.48,1
70.00,74.55,1
98.00,72.50,1
98.00,71.55,1
39.00,71.22,1
79.00,70.72,1
70.00,70.21,1
120.00,70.31,1
74.00,71.23,1
59.00,72.29,1
43.00,72.64,1
61.00,72.21,1
130.00,71.93,1
60.00,72.50,1
143.00,73.79,1
78.00,75.85,1
67.00,77.93,1
83.00,79.37,1
82.00,80.44,1
84.00,81.33,1
49.00,81.79,1
65.00,81.47,1
117.00,80.98,1
71.00,80.98,1
36.00,80.74,1
56.00,79.52,1
124.00,78.21,1
73.00,77.75,1
53.00,77.51,1
141.00,77.40,1
106.00,78.41,1
57.00,79.97,1
50.00,80.74,1
115.00,80.91,1
147.00,81.90,1
68.00,83.89,1
112.00,85.90,1
111.00,87.92,1
120.00,90.30,1
56.00,92.49,1
40.00,93.32,1
56.00,92.46,1
150.00,91.24,1
36.00,90.55,1
44.00,89.22,1
41.00,86.62,1
113.00,83.75,1
121.00,82.03,1
76.00,81.57,1
66.00,81.33,1
49.00,80.57,1
37.00,79.00,1
70.00,76.78,1
49.00,74.42,1
80.00,72.22,1
50.00,70.29,1
44.00,68.36,1
94.00,66.54,1
55.00,65.33,1
52.00,64.37,1
70.00,63.41,1
117.00,63.13,1
142.00,64.54,1
73.00,67.41,1
81.00,70.42,1
39.00,72.64,1
38.00,73.54,1
82.00,73.41,1
78.00,73.20,1
50.00,73.00,1
36.00,72.21,1
100.00,71.05,1
65.00,70.31,1
49.00,69.73,1
148.00,69.56,1
75.00,70.61,1
53.00,71.98,1
117.00,73.11,1
79.00,74.57,1
38.00,75.80,1
52.00,75.94,1
110.00,75.61,1
83.00,75.80,1
187.00,77.28,1
138.00,80.75,1
56.00,85.01,1
36.00,87.81,1
110.00,88.99,1
242.00,91.05,1
60.00,95.04,1
113.00,98.86,1
75.00,101.48,1
143.00,103.46,1
52.00,104.96,1
212.00,106.43,1
43.00,108.32,1
199.00,110.28,1
62.00,112.29,1
115.00,113.71,1
101.00,114.28,1
48.00,113.95,1
40.00,111.89,1
52.00,108.10,1
42.00,103.18,1
36.00,97.45,1
94.00,91.58,1
224.00,87.80,1
66.00,87.06,1
72.00,87.17,1
151.00,87.35,1
81.00,88.36,1
171.00,90.22,1
38.00,92.46,1
78.00,93.79,1
303.00,95.82,1
82.00,100.55,1
147.00,105.89,1
261.00,111.71,1
184.00,119.52,1
41.00,127.05,1
169.00,132.16,1
62.00,135.30,1
51.00,136.04,1
235.00,135.40,1
58.00,135.22,1
110.00,134.42,1
219.00,133.48,1
110.00,133.80,1
110.00,134.16,1
116.00,133.68,1
73.00,132.32,1
146.00,130.29,1
244.00,129.48,1
39.00,130.15,1
106.00,129.87,1
74.00,128.06,1
64.00,125.09,1
144.00,121.53,1
180.00,119.21,1
98.00,118.49,1
39.00,117.45,1
42.00,114.57,1
215.00,111.38,1
130.00,110.27,1
137.00,110.85,1
79.00,111.62,1
192.00,112.54,1
95.00,114.13,1
75.00,115.35,1
80.00,115.13,1
92.00,113.85,1
40.00,111.63,1
92.00,108.43,1
36.00,104.55,1
162.00,100.84,1
152.00,98.93,1
119.00,99.06,1
134.00,100.22,1
56.00,101.45,1
146.00,102.26,1
88.00,103.10,1
81.00,103.66,1
136.00,103.85,1
128.00,104.54,1
173.00,106.29,1
404.00,111.41,1
216.00,121.55,1
188.00,133.72,1
46.00,143.81,1
83.00,149.70,1
159.00,152.29,1
121.00,153.53,1
60.00,153.20,1
55.00,150.35,1
86.00,145.31,1
196.00,140.17,1
136.00,136.72,1
204.00,135.13,1
104.00,134.83,1
48.00,133.94,1
142.00,131.65,1
350.00,131.20,1
165.00,134.89,1
150.00,140.11,1
157.00,144.58,1
59.00,147.52,1
221.00,148.98,1
71.00,149.88,1
99.00,149.43,1
38.00,146.68,1
75.00,141.76,1
122.00,135.90,1
104.00,130.45,1
48.00,125.12,1
242.00,120.59,1
61.00,118.06,1
91.00,116.00,1
142.00,113.77,1
51.00,111.83,1
64.00,109.20,1
95.00,105.85,1
87.00,102.62,1
62.00,99.51,1
54.00,96.04,1
53.00,92.07,1
144.00,88.51,1
50.00,86.12,1
360.00,86.44,1
88.00,90.92,1
314.00,98.39,1
141.00,107.89,1
270.00,118.72,1
37.00,128.96,1
71.00,135.90,1
66.00,138.68,1
419.00,141.36,1
47.00,146.60,1
77.00,150.61,1
267.00,152.55,1
83.00,154.72,1
170.00,156.25,1
50.00,156.15,1
315.00,155.74,1
168.00,157.28,1
112.00,159.56,1
206.00,160.95,1
94.00,161.80,1
184.00,161.86,1
137.00,161.51,1
182.00,161.19,1
128.00,160.82,1
93.00,159.61,1
117.00,156.98,1
216.00,154.27,1
102.00,152.49,1
88.00,150.29,1
187.00,147.48,1
127.00,145.33,1
118.00,143.52,1
180.00,141.89,1
221.00,141.74,1
94.00,142.88,1
86.00,143.11,1
120.00,141.73,1
135.00,139.80,1
172.00,138.36,1
75.00,137.27,1
128.00,135.63,1
48.00,133.02,1
188.00,130.03,1
57.00,127.44,1
40.00,124.07,1
117.00,119.49,1
72.00,114.91,1
193.00,111.40,1
77.00,109.47,1
139.00,108.41,1
206.00,108.66,1
68.00,110.39,1
67.00,111.43,1
198.00,111.84,1
55.00,112.75,1
140.00,113.41,1
118.00,113.91,1
142.00,114.81,1
47.00,115.41,1
304.00,116.51,1
171.00,120.37,1
40.00,125.00,1
314.00,129.06,1
400.00,136.76,1
84.00,147.98,1
299.00,158.78,1
140.00,168.54,1
117.00,176.14,1
92.00,179.93,1
203.00,181.03,1
227.00,181.87,1
117.00,182.89,1
158.00,182.74,1
46.00,180.52,1
110.00,175.82,1
138.00,169.77,1
132.00,163.83,1
168.00,158.61,1
90.00,154.02,1
64.00,148.82,1
174.00,143.19,1
119.00,138.56,1
140.00,135.03,1
68.00,131.74,1
84.00,127.86,1
126.00,123.67,1
146.00,120.38,1
179.00,118.84,1
68.00,118.46,1
156.00,118.15,1
83.00,117.84,1
147.00,117.58,1
67.00,117.16,1
71.00,115.88,1
127.00,113.85,1
52.00,111.65,1
78.00,108.85,1
53.00,105.27,1
106.00,101.47,1
78.00,98.06,1
137.00,95.53,1
100.00,94.19,1
184.00,94.38,1
103.00,96.13,1
88.00,98.24,1
39.00,99.21,1
38.00,98.35,1
116.00,96.35,1
48.00,94.28,1
47.00,91.72,1
74.00,88.52,1
71.00,85.36,1
161.00,83.27,1
64.00,82.70,1
45.00,82.29,1
95.00,81.30,1
72.00,80.41,1
47.00,79.43,1
100.00,78.26,1
102.00,77.66,1
32.00,77.43,1
86.00,76.77,1
156.00,76.71,1
181.00,78.91,1
111.00,83.18,1
42.00,87.35,1
75.00,89.85,1
136.00,91.50,1
300.00,95.10,1
86.00,101.50,1
199.00,108.55,1
124.00,115.34,1
208.00,122.10,1
163.00,129.02,1
77.00,135.07,1
238.00,139.77,1
61.00,143.80,1
110.00,146.00,1
78.00,145.78,1
93.00,143.76,1
195.00,141.25,1
202.00,140.35,1
104.00,140.84,1
40.00,140.27,1
65.00,137.22,1
51.00,132.17,1
138.00,126.49,1
157.00,121.99,1
50.00,118.70,1
89.00,115.13,1
58.00,110.98,1
89.00,106.57,1
282.00,103.98,1
160.00,105.33,1
198.00,109.55,1
172.00,115.18,1
62.00,120.65,1
178.00,124.73,1
260.00,129.32,1
128.00,135.38,1
76.00,140.41,1
63.00,142.38,1
116.00,141.78,1
49.00,139.46,1
45.00,135.20,1
211.00,130.37,1
64.00,126.78,1
183.00,124.18,1
49.00,122.06,1
171.00,120.15,1
171.00,119.38,1
51.00,119.52,1
72.00,118.53,1
98.00,116.27,1
254.00,115.03,1
54.00,115.75,1
140.00,116.63,1
183.00,117.71,1
245.00,120.87,1
43.00,125.19,1
144.00,128.26,1
191.00,130.66,1
47.00,132.91,1
184.00,134.08,1
118.00,134.94,1
234.00,136.54,1
40.00,138.43,1
74.00,138.48,1
87.00,136.20,1
213.00,133.77,1
116.00,132.70,1
107.00,132.07,1
242.00,131.95,1
118.00,133.37,1
76.00,134.61,1
116.00,134.27,1
317.00,134.73,1
224.00,138.65,1
101.00,144.23,1
316.00,149.83,1
130.00,156.27,1
127.00,161.80,1
54.00,164.24,1
51.00,162.99,1
78.00,158.57,1
70.00,152.19,1
195.00,145.72,1
145.00,140.98,1
93.00,137.51,1
84.00,133.76,1
246.00,130.67,1
57.00,129.26,1
74.00,127.50,1
185.00,125.17,1
97.00,123.74,1
50.00,122.10,1
62.00,118.95,1
215.00,115.84,1
206.00,115.40,1
144.00,117.62,1
75.00,120.13,1
132.00,121.58,1
58.00,121.95,1
73.00,120.85,1
106.00,118.56,1
64.00,115.79,1
204.00,113.47,1
110.00,112.79,1
200.00,113.71,1
222.00,116.70,1
105.00,121.34,1
70.00,125.01,1
211.00,127.43,1
58.00,129.60,1
77.00,130.31,1
128.00,129.34,1
122.00,128.09,1
70.00,126.55,1
40.00,123.69,1
50.00,119.09,1
90.00,113.52,1
42.00,107.78,1
158.00,102.60,1
45.00,98.61,1
80.00,95.03,1
102.00,91.71,1
183.00,90.04,1
228.00,91.56,1
60.00,95.49,1
136.00,99.32,1
211.00,103.44,1
56.00,108.23,1
132.00,112.05,1
142.00,115.07,1
40.00,117.32,1
219.00,118.79,1
94.00,120.71,1
222.00,123.38,1
127.00,126.83,1
160.00,130.53,1
212.00,134.47,1
78.00,138.48,1
41.00,140.34,1
158.00,139.73,1
71.00,138.19,1
79.00,135.57,1
88.00,131.71,1
47.00,126.91,1
58.00,121.03,1
84.00,114.60,1
34.00,108.07,1
35.00,101.08,1
102.00,94.12,1
47.00,88.09,1
124.00,83.23,1
57.00,79.71,1
99.00,77.18,1
103.00,75.67,1
182.00,76.04,1
211.00,79.43,1
67.00,84.93,1
66.00,89.70,1
36.00,92.30,1
57.00,92.82,1
79.00,92.05,1
46.00,90.57,1
117.00,88.82,1
83.00,87.56,1
180.00,87.55,1
60.00,88.80,1
94.00,90.07,1
66.00,90.65,1
170.00,91.36,1
84.00,92.94,1
49.00,94.27,1
61.00,94.17,1
57.00,92.87,1
54.00,90.71,1
127.00,88.48,1
48.00,86.80,1
40.00,84.83,1
83.00,82.26,1
45.00,79.66,1
118.00,77.46,1
202.00,77.23,1
88.00,79.56,1
127.00,82.88,1
48.00,85.88,1
82.00,87.84,1
77.00,88.82,1
139.00,89.72,1
452.00,94.11,1
543.00,107.42,1
76.00,127.34,1
75.00,144.64,1
88.00,155.54,1
70.00,161.31,1
92.00,162.97,1
48.00,161.33,1
216.00,158.07,1
63.00,154.85,1
85.00,150.81,1
46.00,145.04,1
108.00,138.20,1
62.00,131.10,1
136.00,124.41,1
189.00,119.55,1
40.00,116.48,1
61.00,113.03,1
69.00,108.58,1
58.00,103.72,1
90.00,98.88,1
160.00,95.22,1
75.00,93.32,1
118.00,92.32,1
40.00,91.41,1
261.00,91.50,1
237.00,95.15,1
79.00,101.52,1
191.00,107.85,1
44.00,113.27,1
105.00,116.82,1
145.00,118.94,1
133.00,120.98,1
185.00,123.47,1
164.00,126.79,1
70.00,129.95,1
267.00,132.77,1
97.00,136.32,1
53.00,138.74,1
94.00,138.44,1
44.00,135.97,1
126.00,132.12,1
191.00,128.85,1
131.00,127.41,1
72.00,126.44,1
147.00,125.01,1
226.00,124.69,1
119.00,126.28,1
59.00,127.64,1
43.00,126.76,1
105.00,123.95,1
42.00,120.16,1
64.00,115.38,1
89.00,110.08,1
95.00,105.19,1
69.00,100.88,1
69.00,96.76,1
82.00,92.83,1
40.00,89.02,1
263.00,86.70,1
95.00,87.55,1
164.00,90.42,1
144.00,94.30,1
158.00,99.17,1
43.00,103.75,1
41.00,106.15,1
46.00,105.87,1
114.00,104.19,1
44.00,102.09,1
38.00,99.10,1
143.00,95.72,1
74.00,93.28,1
95.00,91.53,1
97.00,90.16,1
44.00,88.89,1
144.00,87.70,1
141.00,87.82,1
182.00,90.05,1
188.00,94.49,1
87.00,100.09,1
104.00,104.88,1
66.00,108.04,1
96.00,109.61,1
36.00,109.60,1
84.00,108.06,1
44.00,105.36,1
89.00,101.98,1
88.00,98.59,1
119.00,95.94,1
51.00,93.87,1
128.00,92.07,1
43.00,90.56,1
99.00,89.00,1
44.00,87.22,1
55.00,84.98,1
81.00,82.41,1
219.00,81.36,1
36.00,82.48,1
121.00,84.01,1
78.00,85.34,1
41.00,86.15,1
51.00,85.68,1
343.00,86.51,1
80.00,91.10,1
62.00,96.26,1
72.00,99.26,1
61.00,100.46,1
113.00,100.59,1
83.00,100.41,1
43.00,99.61,1
64.00,97.63,1
104.00,95.16,1
128.00,93.45,1
88.00,92.76,1
68.00,92.24,1
77.00,91.29,1
59.00,89.87,1
72.00,88.03,1
57.00,85.86,1
45.00,83.28,1
69.00,80.36,1
38.00,77.30,1
58.00,74.10,1
72.00,71.08,1
36.00,68.41,1
127.00,66.36,1
45.00,65.38,1
46.00,64.64,1
37.00,63.38,1
42.00,61.65,1
36.00,59.60,1
96.00,57.81,1
57.00,56.89,1
68.00,56.61,1
98.00,56.93,1
49.00,57.89,1
101.00,59.16,1
68.00,60.80,1
104.00,62.87,1
51.00,65.07,1
86.00,67.00,1
67.00,68.65,1
56.00,69.92,1
68.00,70.61,1
76.00,71.01,1
69.00,71.35,1
90.00,71.77,1
112.00,72.70,1
58.00,74.08,1
37.00,74.87,1
46.00,74.46,1
43.00,73.11,1
209.00,72.48,1
62.00,73.92,1
110.00,76.23,1
51.00,78.22,1
35.00,79.18,1
48.00,78.69,1
65.00,77.31,1
152.00,76.44,1
41.00,76.64,1
369.00,79.25,1
110.00,85.93,1
50.00,93.45,1
46.00,98.18,1
110.00,100.59,1
87.00,102.01,1
57.00,102.53,1
58.00,101.66,1
134.00,100.17,1
60.00,98.91,1
148.00,98.02,1
115.00,97.99,1
181.00,99.36,1
81.00,101.74,1
75.00,103.63,1
49.00,103.96,1
44.00,102.55,1
200.00,100.88,1
72.00,100.53,1
119.00,100.78,1
84.00,100.89,1
204.00,101.70,1
56.00,103.48,1
81.00,104.68,1
40.00,104.27,1
284.00,104.19,1
50.00,106.14,1
39.00,107.61,1
64.00,106.74,1
152.00,105.18,1
84.00,104.25,1
69.00,103.32,1
302.00,103.53,1
64.00,106.35,1
107.00,109.43,1
201.00,112.11,1
87.00,115.37,1
123.00,118.14,1
87.00,119.82,1
95.00,120.35,1
44.00,119.44,1
64.00,116.83,1
36.00,112.68,1
395.00,110.21,1
111.00,112.47,1
48.00,116.00,1
180.00,118.04,1
44.00,119.42,1
86.00,119.42,1
54.00,117.70,1
102.00,114.95,1
54.00,111.63,1
50.00,107.55,1
153.00,103.44,1
97.00,100.64,1
66.00,98.60,1
144.00,96.88,1
103.00,96.14,1
49.00,95.70,1
67.00,94.42,1
412.00,95.24,1
36.00,100.44,1
88.00,105.79,1
368.00,111.16,1
127.00,119.47,1
80.00,127.63,1
44.00,132.33,1
42.00,133.19,1
92.00,131.29,1
121.00,128.35,1
187.00,126.19,1
78.00,125.12,1
48.00,123.40,1
56.00,119.91,1
62.00,115.11,1
47.00,109.53,1
135.00,104.07,1
43.00,99.46,1
82.00,95.17,1
56.00,90.94,1
62.00,86.83,1
64.00,82.85,1
64.00,79.19,1
86.00,76.08,1
120.00,74.15,1
56.00,73.38,1
75.00,72.91,1
51.00,72.26,1
121.00,71.84,1
119.00,72.55,1
41.00,74.02,1
153.00,75.61,1
144.00,78.37,1
62.00,82.05,1
62.00,84.86,1
77.00,86.36,1
103.00,87.28,1
58.00,87.92,1
124.00,88.32,1
47.00,88.63,1
80.00,88.39,1
276.00,89.28,1
46.00,92.62,1
37.00,95.44,1
50.00,95.84,1
80.00,94.76,1
34.00,92.81,1
50.00,89.91,1
41.00,86.17,1
106.00,82.44,1
152.00,80.23,1
119.00,80.28,1
82.00,81.56,1
38.00,82.49,1
140.00,82.92,1
120.00,84.14,1
67.00,85.99,1
120.00,87.65,1
109.00,89.45,1
41.00,90.99,1
47.00,91.11,1
42.00,89.65,1
62.00,87.16,1
53.00,84.19,1
53.00,80.98,1
72.00,77.76,1
48.00,74.77,1
104.00,72.27,1
34.00,70.39,1
52.00,68.48,1
172.00,67.33,1
68.00,68.10,1
98.00,69.79,1
58.00,71.44,1
97.00,72.89,1
70.00,74.25,1
78.00,75.44,1
83.00,76.39,1
60.00,77.11,1
122.00,77.79,1
114.00,79.20,1
65.00,81.08,1
73.00,82.46,1
40.00,82.85,1
98.00,82.48,1
86.00,82.14,1
74.00,82.00,1
82.00,81.80,1
47.00,81.30,1
62.00,80.19,1
72.00,78.70,1
50.00,77.08,1
46.00,75.11,1
84.00,72.99,1
74.00,71.34,1
35.00,69.94,1
35.00,68.03,1
56.00,65.66,1
57.00,63.38,1
128.00,62.02,1
76.00,62.16,1
63.00,63.06,1
70.00,63.90,1
112.00,65.03,1
40.00,66.51,1
35.00,67.30,1
50.00,67.00,1
73.00,66.27,1
84.00,65.85,1
48.00,65.74,1
107.00,65.85,1
40.00,66.26,1
82.00,66.61,1
55.00,66.81,1
63.00,66.86,1
175.00,67.64,1
41.00,69.77,1
46.00,71.58,1
82.00,72.36,1
110.00,73.20,1
37.00,74.22,1
41.00,74.41,1
84.00,73.76,1
111.00,73.48,1
58.00,73.86,1
66.00,74.12,1
101.00,74.28,1
37.00,74.47,1
68.00,74.15,1
70.00,73.47,1
103.00,73.08,1
82.00,73.34,1
81.00,73.99,1
74.00,74.66,1
132.00,75.70,1
126.00,77.82,1
181.00,81.53,1
134.00,86.84,1
88.00,92.43,1
57.00,96.66,1
69.00,98.91,1
54.00,99.39,1
114.00,98.88,1
62.00,98.07,1
54.00,96.61,1
39.00,94.04,1
106.00,90.93,1
50.00,88.06,1
119.00,85.64,1
106.00,84.23,1
108.00,84.01,1
36.00,84.03,1
72.00,83.35,1
91.00,82.31,1
74.00,81.52,1
99.00,81.01,1
105.00,81.07,1
117.00,81.95,1
48.00,83.12,1
65.00,83.55,1
127.00,83.64,1
104.00,84.43,1
114.00,85.95,1
69.00,87.58,1
120.00,89.00,1
44.00,90.05,1
87.00,90.30,1
64.00,89.84,1
121.00,89.29,1
132.00,89.56,1
94.00,90.76,1
43.00,91.68,1
55.00,91.28,1
35.00,89.50,1
80.00,86.88,1
52.00,84.06,1
72.00,81.25,1
54.00,78.49,1
73.00,75.89,1
44.00,73.42,1
127.00,71.50,1
36.00,70.44,1
62.00,69.46,1
69.00,68.31,1
107.00,67.72,1
83.00,68.06,1
46.00,68.71,1
141.00,69.54,1
97.00,71.38,1
64.00,73.72,1
152.00,76.18,1
94.00,79.36,1
68.00,82.52,1
40.00,84.43,1
71.00,84.90,1
64.00,84.47,1
67.00,83.55,1
94.00,82.50,1
42.00,81.42,1
41.00,79.72,1
76.00,77.45,1
37.00,75.05,1
70.00,72.57,1
47.00,70.13,1
68.00,67.87,1
120.00,66.42,1
40.00,66.00,1
71.00,65.74,1
119.00,65.86,1
87.00,67.05,1
46.00,68.54,1
104.00,69.75,1
70.00,71.04,1
108.00,72.58,1
58.00,74.20,1
41.00,75.17,1
56.00,75.04,1
42.00,74.06,1
147.00,73.24,1
42.00,73.32,1
36.00,73.16,1
63.00,72.08,1
87.00,70.94,1
72.00,70.29,1
37.00,69.68,1
63.00,68.64,1
47.00,67.32,1
50.00,65.80,1
37.00,63.99,1
37.00,61.83,1
59.00,59.54,1
40.00,57.45,1
50.00,55.52,1
54.00,53.82,1
38.00,52.37,1
121.00,51.62,1
43.00,52.01,1
46.00,52.67,1
94.00,53.33,1
66.00,54.55,1
142.00,56.72,1
68.00,59.95,1
82.00,63.40,1
100.00,66.68,1
56.00,69.76,1
104.00,72.40,1
46.00,74.58,1
96.00,76.18,1
57.00,77.32,1
110.00,78.27,1
82.00,79.37,1
94.00,80.63,1
80.00,81.82,1
45.00,82.48,1
59.00,82.15,1
44.00,80.89,1
52.00,78.89,1
51.00,76.41,1
55.00,73.72,1
64.00,71.10,1
53.00,68.71,1
92.00,66.78,1
36.00,65.37,1
60.00,63.99,1
67.00,62.66,1
63.00,61.71,1
54.00,60.99,1
58.00,60.32,1
60.00,59.72,1
106.00,59.64,1
92.00,60.62,1
38.00,62.08,1
83.00,63.20,1
71.00,64.24,1
68.00,65.33,1
62.00,66.22,1
36.00,66.59,1
120.00,66.76,1
103.00,67.82,1
123.00,70.10,1
48.00,72.80,1
96.00,75.05,1
93.00,77.03,1
47.00,78.70,1
78.00,79.56,1
40.00,79.60,1
60.00,78.79,1
42.00,77.23,1
110.00,75.60,1
50.00,74.43,1
76.00,73.45,1
117.00,72.91,1
168.00,74.06,1
82.00,76.92,1
116.00,80.25,1
57.00,83.20,1
160.00,85.91,1
82.00,88.93,1
85.00,91.66,1
54.00,93.23,1
56.00,93.40,1
97.00,92.61,1
44.00,91.38,1
87.00,89.67,1
42.00,87.56,1
73.00,85.08,1
68.00,82.49,1
71.00,80.11,1
34.00,77.67,1
64.00,74.91,1
38.00,71.99,1
58.00,69.03,1
90.00,66.51,1
45.00,64.74,1
36.00,63.04,1
38.00,60.93,1
40.00,58.58,1
137.00,56.96,1
65.00,57.00,1
45.00,57.73,1
52.00,58.09,1
71.00,58.25,1
54.00,58.50,1
93.00,59.01,1
70.00,60.01,1
100.00,61.55,1
135.00,64.03,1
60.00,67.37,1
102.00,70.63,1
60.00,73.45,1
80.00,75.66,1
45.00,77.03,1
48.00,77.33,1
75.00,76.77,1
54.00,75.89,1
69.00,74.80,1
66.00,73.62,1
49.00,72.36,1
36.00,70.66,1
103.00,68.89,1
38.00,67.58,1
77.00,66.46,1
51.00,65.43,1
91.00,64.71,1
56.00,64.42,1
37.00,64.05,1
181.00,64.22,1
64.00,66.08,1
95.00,68.65,1
38.00,70.75,1
206.00,73.13,1
48.00,76.65,1
74.00,79.90,1
88.00,82.06,1
49.00,83.47,1
106.00,84.19,1
76.00,84.74,1
73.00,85.09,1
92.00,85.14,1
36.00,84.78,1
39.00,83.38,1
113.00,81.43,1
66.00,80.00,1
66.00,78.84,1
39.00,77.31,1
114.00,75.72,1
68.00,74.79,1
49.00,74.07,1
46.00,72.83,1
72.00,71.23,1
39.00,69.56,1
41.00,67.56,1
51.00,65.22,1
52.00,62.90,1
35.00,60.63,1
56.00,58.36,1
88.00,56.65,1
92.00,56.16,1
51.00,56.61,1
48.00,57.08,1
60.00,57.26,1
99.00,57.71,1
89.00,59.03,1
83.00,61.05,1
106.00,63.56,1
107.00,66.69,1
135.00,70.62,1
62.00,74.91,1
134.00,78.94,1
52.00,82.55,1
124.00,85.56,1
104.00,88.35,1
77.00,90.94,1
78.00,92.67,1
70.00,93.43,1
58.00,93.19,1
70.00,92.04,1
44.00,90.12,1
44.00,87.35,1
61.00,83.94,1
98.00,80.76,1
36.00,78.09,1
95.00,75.67,1
56.00,73.66,1
73.00,72.02,1
38.00,70.37,1
92.00,68.78,1
69.00,67.70,1
117.00,67.52,1
48.00,68.05,1
81.00,68.64,1
106.00,69.43,1
45.00,70.53,1
63.00,71.17,1
36.00,71.02,1
36.00,69.96,1
84.00,68.43,1
105.00,67.57,1
136.00,68.23,1
53.00,70.04,1
43.00,71.45,1
41.00,71.65,1
86.00,71.18,1
51.00,70.64,1
50.00,69.87,1
106.00,69.10,1
57.00,68.87,1
94.00,69.01,1
74.00,69.48,1
62.00,70.05,1
50.00,70.21,1
36.00,69.66,1
40.00,68.28,1
106.00,66.80,1
72.00,66.15,1
78.00,66.18,1
58.00,66.38,1
86.00,66.65,1
86.00,67.27,1
122.00,68.65,1
53.00,70.60,1
53.00,72.07,1
41.00,72.46,1
76.00,72.10,1
38.00,71.35,1
76.00,70.31,1
71.00,69.35,1
120.00,69.13,1
49.00,69.64,1
39.00,69.86,1
92.00,69.52,1
39.00,69.12,1
35.00,68.23,1
70.00,66.78,1
49.00,65.32,1
42.00,63.78,1
58.00,62.08,1
77.00,60.68,1
58.00,59.85,1
74.00,59.44,1
124.00,59.89,1
62.00,61.45,1
54.00,63.09,1
90.00,64.41,1
65.00,65.75,1
64.00,66.94,1
77.00,67.86,1
88.00,68.85,1
85.00,70.12,1
122.00,71.90,1
86.00,74.31,1
57.00,76.59,1
77.00,78.07,1
57.00,78.82,1
82.00,79.04,1
65.00,78.96,1
50.00,78.45,1
50.00,77.24,1
60.00,75.50,1
58.00,73.56,1
48.00,71.51,1
50.00,69.27,1
37.00,66.81,1
42.00,64.10,1
44.00,61.28,1
71.00,58.78,1
40.00,56.80,1
86.00,55.38,1
121.00,55.23,1
78.00,56.65,1
61.00,58.66,1
49.00,60.30,1
58.00,61.34,1
164.00,62.83,1
91.00,65.83,1
80.00,69.48,1
94.00,72.80,1
62.00,75.65,1
148.00,78.34,1
42.00,81.11,1
64.00,82.97,1
47.00,83.42,1
49.00,82.72,1
67.00,81.19,1
43.00,79.23,1
39.00,76.69,1
42.00,73.57,1
35.00,70.06,1
67.00,66.56,1
66.00,63.63,1
36.00,61.25,1
54.00,59.00,1
60.00,57.03,1
38.00,55.39,1
100.00,54.28,1
79.00,54.26,1
41.00,54.93,1
102.00,55.80,1
131.00,57.73,1
62.00,60.80,1
37.00,63.54,1
35.00,64.94,1
70.00,65.31,1
53.00,65.31,1
122.00,65.62,1
106.00,67.03,1
78.00,69.30,1
66.00,71.44,1
86.00,73.16,1
92.00,74.77,1
94.00,76.53,1
40.00,77.98,1
50.00,78.37,1
57.00,77.68,1
38.00,76.25,1
73.00,74.35,1
35.00,72.25,1
64.00,69.98,1
51.00,67.71,1
37.00,65.42,1
71.00,63.13,1
101.00,61.62,1
52.00,61.13,1
124.00,61.45,1
38.00,62.47,1
55.00,63.28,1
52.00,63.46,1
56.00,63.27,1
101.00,63.22,1
89.00,63.97,1
48.00,65.13,1
74.00,66.00,1
52.00,66.52,1
151.00,67.44,1
39.00,69.17,1
68.00,70.64,1
46.00,71.26,1
51.00,71.12,1
86.00,70.59,1
50.00,70.11,1
75.00,69.58,1
64.00,69.06,1
46.00,68.44,1
70.00,67.58,1
34.00,66.51,1
40.00,64.95,1
131.00,63.65,1
38.00,63.37,1
107.00,63.67,1
68.00,64.43,1
59.00,65.38,1
64.00,66.01,1
39.00,66.16,1
87.00,65.99,1
48.00,65.83,1
112.00,65.97,1
116.00,67.11,1
61.00,69.13,1
43.00,70.70,1
70.00,71.35,1
85.00,71.69,1
49.00,71.97,1
170.00,72.72,1
53.00,74.55,1
75.00,76.38,1
57.00,77.39,1
39.00,77.47,1
43.00,76.44,1
50.00,74.56,1
44.00,72.21,1
50.00,69.58,1
50.00,66.88,1
45.00,64.23,1
50.00,61.66,1
150.00,60.11,1
111.00,60.77,1
51.00,62.78,1
91.00,64.74,1
55.00,66.47,1
41.00,67.59,1
97.00,68.13,1
53.00,68.68,1
77.00,69.13,1
195.00,70.52,1
98.00,73.93,1
58.00,77.81,1
70.00,80.53,1
209.00,83.30,1
57.00,87.18,1
45.00,90.29,1
118.00,91.85,1
164.00,93.67,1
37.00,95.96,1
35.00,96.78,1
42.00,95.42,1
46.00,92.59,1
78.00,89.12,1
35.00,85.47,1
56.00,81.56,1
45.00,77.47,1
62.00,73.51,1
57.00,69.94,1
59.00,66.86,1
98.00,64.56,1
60.00,63.30,1
76.00,62.68,1
99.00,62.72,1
38.00,63.25,1
38.00,63.31,1
106.00,63.09,1
63.00,63.43,1
37.00,63.81,1
45.00,63.49,1
116.00,63.15,1
119.00,64.09,1
75.00,66.24,1
41.00,68.25,1
53.00,69.25,1
49.00,69.32,1
39.00,68.65,1
54.00,67.37,1
35.00,65.67,1
38.00,63.54,1
43.00,61.09,1
35.00,58.52,1
138.00,56.70,1
41.00,56.36,1
64.00,56.60,1
61.00,56.81,1
93.00,57.40,1
46.00,58.37,1
65.00,59.25,1
102.00,60.26,1
103.00,62.11,1
66.00,64.55,1
78.00,66.87,1
64.00,68.78,1
68.00,70.22,1
56.00,71.11,1
72.00,71.52,1
39.00,71.43,1
45.00,70.62,1
53.00,69.17,1
37.00,67.33,1
39.00,65.08,1
95.00,62.95,1
60.00,61.63,1
34.00,60.66,1
47.00,59.36,1
39.00,57.78,1
61.00,56.21,1
56.00,54.96,1
70.00,54.19,1
57.00,53.91,1
71.00,54.03,1
46.00,54.36,1
106.00,55.03,1
36.00,56.16,1
36.00,56.93,1
55.00,56.98,1
114.00,57.29,1
62.00,58.48,1
42.00,59.77,1
77.00,60.61,1
124.00,61.89,1
66.00,64.05,1
43.00,66.05,1
55.00,67.10,1
47.00,67.32,1
53.00,66.92,1
38.00,65.98,1
49.00,64.55,1
57.00,62.92,1
71.00,61.53,1
44.00,60.45,1
64.00,59.48,1
38.00,58.51,1
49.00,57.39,1
56.00,56.24,1
39.00,55.15,1
35.00,53.90,1
52.00,52.50,1
47.00,51.23,1
48.00,50.18,1
39.00,49.23,1
134.00,49.03,1
42.00,50.15,1
87.00,51.87,1
48.00,53.64,1
94.00,55.51,1
80.00,57.70,1
59.00,60.05,1
86.00,62.20,1
87.00,64.41,1
52.00,66.53,1
85.00,68.23,1
87.00,69.82,1
64.00,71.38,1
38.00,72.29,1
70.00,72.33,1
74.00,72.05,1
35.00,71.54,1
67.00,70.53,1
132.00,69.92,1
78.00,70.53,1
50.00,71.46,1
52.00,71.70,1
92.00,71.55,1
62.00,71.53,1
70.00,71.52,1
58.00,71.29,1
68.00,70.86,1
86.00,70.50,1
87.00,70.60,1
51.00,70.92,1
108.00,71.27,1
115.00,72.34,1
67.00,74.10,1
129.00,76.13,1
91.00,78.58,1
123.00,81.44,1
77.00,84.34,1
94.00,86.83,1
70.00,88.62,1
59.00,89.45,1
56.00,89.15,1
54.00,87.83,1
40.00,85.59,1
44.00,82.52,1
41.00,78.85,1
90.00,75.23,1
83.00,72.50,1
35.00,70.44,1
48.00,68.20,1
73.00,65.93,1
89.00,64.37,1
59.00,63.62,1
78.00,63.31,1
54.00,63.20,1
90.00,63.32,1
73.00,63.85,1
76.00,64.72,1
44.00,65.47,1
70.00,65.80,1
114.00,66.35,1
62.00,67.55,1
61.00,68.70,1
36.00,69.12,1
46.00,68.63,1
133.00,68.15,1
92.00,68.87,1
36.00,70.06,1
54.00,70.44,1
65.00,70.12,1
49.00,69.49,1
44.00,68.41,1
115.00,67.42,1
35.00,66.98,1
39.00,66.29,1
105.00,65.37,1
43.00,64.93,1
52.00,64.45,1
37.00,63.48,1
42.00,62.02,1
59.00,60.36,1
88.00,59.15,1
146.00,59.43,1
96.00,61.62,1
80.00,64.71,1
88.00,67.77,1
39.00,70.29,1
73.00,71.85,1
69.00,72.76,1
97.00,73.59,1
113.00,74.90,1
118.00,77.07,1
31.00,79.31,1
56.00,80.34,1
61.00,80.14,1
86.00,79.52,1
61.00,78.85,1
65.00,77.99,1
63.00,76.85,1
37.00,75.33,1
90.00,73.55,1
60.00,72.06,1
39.00,70.60,1
56.00,68.76,1
62.00,66.84,1
54.00,65.11,1
49.00,63.46,1
64.00,61.89,1
70.00,60.69,1
35.00,59.75,1
100.00,59.04,1
43.00,58.86,1
64.00,58.84,1
84.00,58.99,1
91.00,59.83,1
81.00,61.36,1
46.00,62.97,1
38.00,63.86,1
58.00,63.91,1
51.00,63.53,1
50.00,62.87,1
57.00,62.01,1
37.00,60.97,1
37.00,59.54,1
69.00,57.98,1
35.00,56.61,1
63.00,55.37,1
52.00,54.36,1
39.00,53.49,1
53.00,52.58,1
50.00,51.75,1
77.00,51.32,1
60.00,51.48,1
40.00,51.86,1
120.00,52.58,1
48.00,54.11,1
54.00,55.71,1
116.00,57.34,1
60.00,59.53,1
107.00,62.07,1
63.00,64.74,1
56.00,67.02,1
52.00,68.40,1
56.00,68.98,1
79.00,69.14,1
92.00,69.52,1
100.00,70.50,1
51.00,71.76,1
42.00,72.36,1
96.00,72.32,1
56.00,72.30,1
41.00,71.96,1
51.00,70.86,1
72.00,69.47,1
70.00,68.30,1
68.00,67.47,1
37.00,66.61,1
53.00,65.38,1
36.00,63.75,1
57.00,61.91,1
54.00,60.15,1
119.00,59.17,1
109.00,59.78,1
69.00,61.62,1
65.00,63.56,1
101.00,65.41,1
46.00,67.24,1
39.00,68.33,1
56.00,68.38,1
53.00,67.84,1
123.00,67.54,1
172.00,68.97,1
90.00,72.38,1
80.00,76.16,1
60.00,79.07,1
47.00,80.70,1
36.00,80.85,1
102.00,80.12,1
84.00,79.59,1
40.00,79.12,1
70.00,78.08,1
54.00,76.63,1
91.00,75.22,1
46.00,73.99,1
36.00,72.42,1
96.00,70.60,1
35.00,69.05,1
110.00,67.88,1
64.00,67.38,1
36.00,67.04,1
69.00,66.26,1
62.00,65.43,1
81.00,64.90,1
55.00,64.66,1
68.00,64.48,1
113.00,64.73,1
55.00,65.66,1
77.00,66.68,1
64.00,67.51,1
83.00,68.28,1
42.00,68.86,1
39.00,68.73,1
82.00,68.02,1
74.00,67.52,1
84.00,67.51,1
107.00,68.16,1
42.00,69.21,1
75.00,69.91,1
37.00,70.03,1
76.00,69.66,1
82.00,69.32,1
36.00,69.05,1
69.00,68.40,1
53.00,67.52,1
34.00,66.35,1
36.00,64.55,1
47.00,62.31,1
45.00,60.00,1
57.00,57.86,1
59.00,56.12,1
50.00,54.81,1
174.00,54.75,1
118.00,57.18,1
79.00,61.21,1
116.00,65.48,1
36.00,69.44,1
164.00,73.06,1
75.00,77.03,1
39.00,80.41,1
111.00,82.50,1
116.00,84.48,1
69.00,86.59,1
56.00,87.90,1
49.00,87.88,1
72.00,86.82,1
114.00,85.68,1
40.00,84.80,1
41.00,83.26,1
39.00,80.68,1
52.00,77.44,1
114.00,74.55,1
51.00,72.62,1
37.00,70.84,1
52.00,68.61,1
45.00,66.18,1
104.00,64.18,1
105.00,63.50,1
42.00,63.83,1
98.00,64.35,1
49.00,64.99,1
38.00,65.25,1
67.00,64.88,1
90.00,64.62,1
127.00,65.39,1
141.00,67.83,1
40.00,71.17,1
40.00,73.50,1
56.00,74.31,1
67.00,74.26,1
77.00,73.98,1
48.00,73.54,1
54.00,72.65,1
62.00,71.36,1
62.00,70.01,1
74.00,68.82,1
92.00,68.14,1
34.00,67.78,1
58.00,67.06,1
44.00,65.89,1
35.00,64.32,1
75.00,62.56,1
57.00,61.15,1
47.00,60.01,1
100.00,59.24,1
42.00,59.08,1
74.00,59.14,1
56.00,59.27,1
69.00,59.51,1
121.00,60.34,1
68.00,62.11,1
56.00,63.99,1
65.00,65.33,1
87.00,66.44,1
111.00,68.00,1
71.00,70.07,1
56.00,71.88,1
88.00,73.12,1
99.00,74.38,1
38.00,75.55,1
56.00,75.85,1
36.00,75.10,1
82.00,73.78,1
60.00,72.48,1
36.00,71.07,1
67.00,69.29,1
132.00,68.14,1
119.00,68.76,1
58.00,70.50,1
57.00,71.90,1
45.00,72.38,1
60.00,72.06,1
44.00,71.16,1
80.00,70.00,1
74.00,69.10,1
52.00,68.45,1
93.00,67.93,1
80.00,67.92,1
96.00,68.55,1
52.00,69.45,1
41.00,69.83,1
38.00,69.24,1
105.00,68.33,1
106.00,68.32,1
60.00,69.16,1
56.00,69.84,1
52.00,69.90,1
41.00,69.29,1
50.00,68.06,1
58.00,66.51,1
82.00,65.18,1
61.00,64.35,1
36.00,63.58,1
44.00,62.36,1
68.00,60.96,1
44.00,59.73,1
71.00,58.69,1
48.00,57.90,1
86.00,57.48,1
54.00,57.52,1
47.00,57.65,1
50.00,57.47,1
144.00,57.84,1
84.00,59.72,1
44.00,62.13,1
57.00,63.79,1
71.00,64.84,1
72.00,65.73,1
141.00,67.18,1
49.00,69.40,1
80.00,71.43,1
65.00,72.87,1
86.00,74.00,1
48.00,74.77,1
82.00,75.07,1
97.00,75.37,1
42.00,75.73,1
57.00,75.46,1
46.00,74.44,1
69.00,73.00,1
51.00,71.42,1
36.00,69.58,1
59.00,67.36,1
80.00,65.39,1
67.00,64.09,1
64.00,63.29,1
62.00,62.71,1
91.00,62.50,1
129.00,63.37,1
61.00,65.33,1
73.00,67.34,1
58.00,68.82,1
86.00,69.95,1
182.00,71.90,1
118.00,75.72,1
123.00,80.61,1
76.00,85.29,1
99.00,89.13,1
96.00,92.15,1
61.00,94.30,1
116.00,95.58,1
133.00,96.91,1
82.00,98.56,1
161.00,100.34,1
103.00,102.57,1
110.00,104.82,1
91.00,106.48,1
54.00,107.08,1
36.00,105.92,1
79.00,103.23,1
90.00,100.10,1
36.00,96.86,1
84.00,93.22,1
140.00,90.22,1
137.00,89.10,1
112.00,89.66,1
122.00,91.11,1
147.00,93.37,1
56.00,95.90,1
43.00,97.15,1
183.00,97.56,1
160.00,99.35,1
60.00,102.09,1
62.00,103.61,1
96.00,103.64,1
63.00,102.86,1
61.00,101.18,1
122.00,99.10,1
127.00,97.82,1
92.00,97.48,1
161.00,97.91,1
78.00,99.06,1
40.00,99.61,1
68.00,98.59,1
86.00,96.72,1
57.00,94.56,1
68.00,91.99,1
107.00,89.48,1
62.00,87.45,1
127.00,85.99,1
36.00,84.94,1
49.00,83.38,1
97.00,81.35,1
92.00,79.87,1
152.00,79.70,1
117.00,81.16,1
97.00,83.59,1
101.00,86.08,1
54.00,88.05,1
85.00,89.05,1
86.00,89.43,1
46.00,89.26,1
59.00,88.13,1
128.00,86.77,1
93.00,86.24,1
48.00,85.98,1
100.00,85.34,1
83.00,84.76,1
76.00,84.34,1
90.00,83.93,1
58.00,83.43,1
36.00,82.28,1
42.00,80.10,1
40.00,77.12,1
42.00,73.66,1
62.00,70.12,1
61.00,67.00,1
61.00,64.44,1
48.00,62.27,1
136.00,60.98,1
143.00,61.81,1
36.00,64.20,1
77.00,66.31,1
44.00,67.65,1
46.00,68.17,1
54.00,67.87,1
105.00,67.54,1
40.00,67.57,1
185.00,68.42,1
72.00,70.78,1
45.00,73.34,1
52.00,74.62,1
41.00,74.69,1
58.00,73.86,1
132.00,73.17,1
77.00,73.53,1
87.00,74.46,1
71.00,75.36,1
68.00,76.01,1
64.00,76.23,1
40.00,75.82,1
34.00,74.46,1
88.00,72.59,1
98.00,71.32,1
56.00,70.81,1
40.00,70.14,1
44.00,68.79,1
80.00,67.20,1
58.00,65.94,1
88.00,65.16,1
80.00,65.00,1
74.00,65.40,1
64.00,65.96,1
115.00,66.82,1
74.00,68.32,1
59.00,69.87,1
38.00,70.63,1
94.00,70.76,1
62.00,70.91,1
120.00,71.47,1
63.00,72.55,1
69.00,73.57,1
98.00,74.39,1
110.00,75.65,1
93.00,77.52,1
93.00,79.59,1
69.00,81.41,1
84.00,82.70,1
80.00,83.57,1
51.00,83.91,1
58.00,83.38,1
51.00,82.01,1
68.00,80.14,1
87.00,78.33,1
95.00,77.17,1
37.00,76.32,1
94.00,75.33,1
46.00,74.32,1
127.00,73.69,1
38.00,73.57,1
129.00,73.79,1
123.00,74.99,1
56.00,76.99,1
67.00,78.45,1
81.00,79.22,1
76.00,79.70,1
43.00,79.71,1
90.00,79.16,1
136.00,79.10,1
82.00,80.10,1
62.00,81.20,1
80.00,81.72,1
84.00,81.94,1
69.00,82.02,1
90.00,81.95,1
36.00,81.53,1
60.00,80.35,1
48.00,78.47,1
57.00,76.20,1
106.00,74.18,1
88.00,73.15,1
90.00,73.02,1
52.00,73.16,1
103.00,73.30,1
94.00,73.90,1
50.00,74.72,1
112.00,75.41,1
77.00,76.34,1
90.00,77.47,1
102.00,78.73,1
85.00,80.22,1
61.00,81.46,1
160.00,82.73,1
107.00,85.02,1
56.00,87.50,1
124.00,89.32,1
80.00,90.93,1
106.00,92.37,1
81.00,93.49,1
50.00,93.88,1
84.00,93.25,1
68.00,92.05,1
48.00,90.29,1
104.00,88.19,1
69.00,86.35,1
58.00,84.58,1
136.00,83.10,1
98.00,82.76,1
85.00,83.22,1
67.00,83.59,1
37.00,83.23,1
51.00,81.78,1
87.00,79.84,1
40.00,77.92,1
98.00,76.07,1
58.00,74.58,1
128.00,73.81,1
173.00,74.81,1
131.00,78.08,1
98.00,82.41,1
106.00,86.56,1
58.00,89.89,1
58.00,91.75,1
103.00,92.42,1
74.00,92.66,1
59.00,92.34,1
67.00,91.18,1
46.00,89.25,1
43.00,86.48,1
58.00,83.09,1
38.00,79.39,1
49.00,75.45,1
156.00,72.38,1
36.00,70.93,1
50.00,69.78,1
77.00,68.36,1
49.00,67.12,1
89.00,66.13,1
86.00,65.78,1
39.00,65.83,1
59.00,65.53,1
72.00,65.03,1
58.00,64.65,1
93.00,64.55,1
72.00,64.96,1
66.00,65.63,1
44.00,66.02,1
82.00,66.08,1
65.00,66.19,1
53.00,66.29,1
153.00,66.85,1
70.00,68.60,1
99.00,70.91,1
59.00,73.02,1
54.00,74.45,1
110.00,75.36,1
48.00,76.22,1
46.00,76.44,1
41.00,75.56,1
69.00,74.02,1
45.00,72.25,1
124.00,70.85,1
143.00,71.06,1
50.00,72.67,1
81.00,74.17,1
58.00,75.09,1
73.00,75.54,1
49.00,75.47,1
46.00,74.70,1
63.00,73.34,1
62.00,71.81,1
89.00,70.55,1
73.00,69.86,1
145.00,70.17,1
100.00,71.90,1
80.00,74.35,1
114.00,76.85,1
35.00,79.05,1
35.00,79.90,1
110.00,79.69,1
41.00,79.33,1
52.00,78.45,1
69.00,76.96,1
48.00,75.25,1
35.00,73.11,1
44.00,70.41,1
39.00,67.36,1
84.00,64.52,1
47.00,62.33,1
54.00,60.52,1
53.00,58.86,1
42.00,57.32,1
71.00,55.98,1
87.00,55.36,1
53.00,55.51,1
35.00,55.68,1
58.00,55.46,1
85.00,55.41,1
79.00,56.08,1
66.00,57.29,1
104.00,58.93,1
76.00,61.12,1
51.00,63.30,1
82.00,65.02,1
162.00,67.30,1
73.00,70.76,1
131.00,74.69,1
56.00,78.44,1
83.00,81.39,1
52.00,83.20,1
80.00,84.03,1
37.00,83.94,1
76.00,82.98,1
47.00,81.45,1
93.00,79.77,1
61.00,78.28,1
52.00,76.77,1
63.00,74.98,1
102.00,73.44,1
77.00,72.71,1
75.00,72.48,1
57.00,72.26,1
42.00,71.61,1
74.00,70.52,1
120.00,69.93,1
120.00,70.77,1
104.00,72.91,1
46.00,75.22,1
63.00,76.61,1
61.00,77.07,1
48.00,76.79,1
82.00,76.02,1
97.00,75.47,1
106.00,75.72,1
39.00,76.29,1
142.00,76.89,1
38.00,77.80,1
58.00,78.18,1
156.00,78.46,1
60.00,79.63,1
78.00,80.83,1
100.00,81.67,1
55.00,82.36,1
110.00,82.81,1
40.00,83.02,1
163.00,83.34,1
53.00,84.32,1
67.00,85.05,1
54.00,84.78,1
81.00,83.88,1
58.00,82.68,1
37.00,80.97,1
89.00,78.82,1
62.00,76.86,1
53.00,75.04,1
80.00,73.22,1
120.00,72.17,1
64.00,72.16,1
40.00,72.14,1
50.00,71.34,1
47.00,69.91,1
122.00,68.71,1
48.00,68.34,1
61.00,68.11,1
108.00,67.98,1
36.00,68.23,1
84.00,68.34,1
48.00,68.25,1
38.00,67.72,1
82.00,66.78,1
60.00,66.03,1
50.00,65.35,1
56.00,64.46,1
45.00,63.36,1
55.00,62.09,1
125.00,61.39,1
50.00,61.77,1
122.00,62.88,1
140.00,65.24,1
108.00,69.11,1
60.00,73.20,1
83.00,76.46,1
47.00,78.65,1
91.00,79.94,1
42.00,80.51,1
151.00,80.98,1
127.00,82.55,1
106.00,85.25,1
59.00,87.77,1
48.00,89.03,1
38.00,88.65,1
46.00,86.80,1
56.00,84.07,1
68.00,81.08,1
39.00,78.03,1
53.00,74.78,1
103.00,71.89,1
53.00,69.89,1
57.00,68.26,1
97.00,66.95,1
145.00,67.03,1
56.00,68.56,1
37.00,69.89,1
70.00,70.24,1
121.00,70.64,1
71.00,71.79,1
66.00,73.01,1
121.00,74.20,1
42.00,75.54,1
58.00,76.24,1
261.00,77.72,1
109.00,81.99,1
84.00,87.18,1
88.00,91.25,1
94.00,94.24,1
40.00,96.01,1
38.00,95.93,1
89.00,94.38,1
90.00,92.61,1
88.00,91.15,1
182.00,90.73,1
112.00,92.11,1
48.00,93.87,1
79.00,94.47,1
37.00,93.79,1
39.00,91.75,1
59.00,88.60,1
131.00,85.66,1
71.00,83.82,1
68.00,82.48,1
64.00,80.97,1
72.00,79.36,1
154.00,78.50,1
44.00,78.78,1
55.00,78.85,1
101.00,78.40,1
57.00,78.06,1
107.00,77.88,1
156.00,78.70,1
161.00,81.53,1
102.00,85.77,1
129.00,90.25,1
71.00,94.23,1
37.00,96.68,1
86.00,97.25,1
41.00,96.52,1
122.00,95.17,1
54.00,93.81,1
55.00,92.02,1
54.00,89.40,1
93.00,86.58,1
49.00,83.96,1
101.00,81.60,1
52.00,79.62,1
35.00,77.46,1
38.00,74.57,1
82.00,71.50,1
70.00,69.06,1
177.00,68.23,1
43.00,69.22,1
86.00,70.57,1
62.00,71.55,1
57.00,72.14,1
105.00,72.52,1
150.00,73.86,1
145.00,76.99,1
85.00,81.17,1
135.00,85.38,1
97.00,89.49,1
96.00,93.17,1
44.00,95.64,1
164.00,97.23,1
90.00,99.04,1
84.00,100.69,1
235.00,102.69,1
127.00,106.47,1
84.00,110.57,1
51.00,112.87,1
96.00,113.18,1
58.00,112.15,1
193.00,111.02,1
38.00,110.47,1
75.00,109.24,1
56.00,106.71,1
90.00,103.55,1
169.00,101.06,1
90.00,100.13,1
78.00,99.64,1
189.00,99.57,1
159.00,101.32,1
36.00,103.81,1
158.00,105.49,1
40.00,106.51,1
70.00,106.31,1
103.00,104.96,1
277.00,105.04,1
160.00,108.44,1
159.00,113.69,1
105.00,118.73,1
61.00,122.20,1
82.00,123.31,1
154.00,123.20,1
174.00,123.71,1
34.00,124.45,1
54.00,123.33,1
108.00,120.48,1
256.00,118.69,1
75.00,119.15,1
133.00,120.02,1
98.00,120.33,1
76.00,119.94,1
203.00,119.42,1
42.00,119.41,1
188.00,119.39,1
66.00,119.42,1
90.00,118.88,1
40.00,116.88,1
125.00,113.93,1
43.00,110.66,1
169.00,107.66,1
104.00,105.83,1
60.00,104.56,1
68.00,102.55,1
62.00,99.75,1
181.00,97.42,1
216.00,97.73,1
42.00,100.17,1
161.00,102.54,1
57.00,104.42,1
110.00,105.57,1
117.00,106.20,1
75.00,106.64,1
141.00,106.81,1
66.00,106.91,1
86.00,106.40,1
135.00,105.59,1
70.00,105.00,1
135.00,104.47,1
107.00,104.30,1
114.00,104.57,1
65.00,104.61,1
44.00,103.55,1
38.00,100.88,1
186.00,98.04,1
233.00,98.02,1
263.00,102.33,1
146.00,109.71,1
100.00,117.12,1
184.00,123.26,1
108.00,128.62,1
50.00,132.13,1
99.00,132.97,1
50.00,131.67,1
95.00,128.71,1
248.00,126.24,1
48.00,125.48,1
64.00,124.11,1
51.00,120.82,1
79.00,116.37,1
68.00,111.41,1
97.00,106.53,1
104.00,102.33,1
52.00,98.71,1
135.00,95.52,1
77.00,93.25,1
142.00,92.01,1
66.00,91.56,1
72.00,91.05,1
84.00,90.08,1
128.00,89.41,1
210.00,90.49,1
68.00,93.42,1
102.00,96.27,1
67.00,98.05,1
92.00,98.88,1
89.00,99.04,1
219.00,99.92,1
70.00,102.25,1
107.00,104.49,1
59.00,105.57,1
147.00,105.97,1
79.00,106.34,1
112.00,106.55,1
37.00,106.00,1
46.00,103.98,1
152.00,101.32,1
93.00,99.61,1
142.00,99.00,1
55.00,98.83,1
59.00,98.00,1
86.00,96.27,1
80.00,94.33,1
59.00,92.26,1
125.00,90.31,1
171.00,89.82,1
69.00,90.92,1
38.00,91.62,1
180.00,91.80,1
47.00,92.59,1
60.00,92.89,1
61.00,91.91,1
52.00,90.06,1
88.00,87.77,1
94.00,85.78,1
49.00,84.12,1
106.00,82.55,1
109.00,81.69,1
48.00,81.41,1
62.00,80.71,1
61.00,79.44,1
88.00,78.09,1
48.00,76.84,1
42.00,75.22,1
46.00,72.97,1
189.00,71.51,1
40.00,71.88,1
99.00,72.82,1
74.00,73.71,1
134.00,75.10,1
43.00,76.85,1
42.00,77.80,1
78.00,77.65,1
43.00,76.96,1
52.00,75.67,1
41.00,73.74,1
61.00,71.44,1
100.00,69.51,1
139.00,69.05,1
75.00,70.17,1
122.00,72.10,1
124.00,74.86,1
161.00,78.87,1
98.00,83.82,1
37.00,88.07,1
80.00,90.46,1
49.00,91.31,1
61.00,90.90,1
146.00,90.20,1
104.00,90.48,1
50.00,91.04,1
94.00,90.91,1
221.00,91.61,1
131.00,94.60,1
81.00,98.42,1
112.00,101.42,1
91.00,103.61,1
61.00,104.78,1
100.00,104.80,1
81.00,104.16,1
41.00,102.73,1
61.00,100.10,1
164.00,97.49,1
87.00,96.23,1
105.00,95.76,1
55.00,95.14,1
89.00,94.03,1
50.00,92.41,1
73.00,90.29,1
224.00,89.17,1
144.00,90.87,1
68.00,93.97,1
103.00,96.38,1
118.00,98.26,1
75.00,99.87,1
47.00,100.38,1
35.00,99.14,1
35.00,96.19,1
84.00,92.32,1
79.00,88.65,1
47.00,85.32,1
47.00,81.80,1
41.00,77.92,1
66.00,74.00,1
114.00,70.94,1
67.00,69.26,1
136.00,68.88,1
41.00,69.46,1
114.00,70.34,1
72.00,71.51,1
46.00,72.54,1
47.00,72.68,1
88.00,72.26,1
53.00,71.84,1
68.00,71.30,1
65.00,70.64,1
37.00,69.73,1
208.00,69.61,1
159.00,72.29,1
38.00,76.63,1
81.00,80.01,1
90.00,82.33,1
49.00,83.92,1
120.00,84.90,1
64.00,85.76,1
63.00,86.15,1
64.00,85.68,1
75.00,84.70,1
61.00,83.42,1
44.00,81.67,1
56.00,79.34,1
173.00,77.66,1
41.00,77.48,1
111.00,77.82,1
58.00,78.15,1
54.00,78.13,1
59.00,77.39,1
86.00,76.40,1
131.00,76.12,1
160.00,77.60,1
199.00,81.55,1
87.00,87.20,1
98.00,92.51,1
43.00,96.18,1
106.00,98.16,1
57.00,99.00,1
40.00,98.50,1
65.00,96.52,1
97.00,94.02,1
81.00,91.82,1
71.00,89.85,1
46.00,87.59,1
127.00,85.38,1
67.00,83.90,1
79.00,82.82,1
38.00,81.43,1
39.00,79.28,1
38.00,76.28,1
104.00,73.29,1
94.00,71.41,1
51.00,70.46,1
118.00,70.00,1
78.00,70.36,1
59.00,71.07,1
55.00,71.33,1
37.00,70.87,1
38.00,69.56,1
48.00,67.59,1
51.00,65.39,1
62.00,63.31,1
87.00,61.80,1
66.00,61.11,1
146.00,61.58,1
76.00,63.51,1
44.00,65.70,1
164.00,67.90,1
39.00,70.74,1
57.00,73.03,1
196.00,75.24,1
68.00,78.70,1
69.00,82.06,1
72.00,84.19,1
85.00,85.49,1
124.00,86.68,1
84.00,88.16,1
182.00,90.29,1
118.00,93.62,1
51.00,96.94,1
35.00,98.35,1
72.00,97.75,1
71.00,96.11,1
71.00,94.04,1
206.00,92.83,1
85.00,93.55,1
58.00,94.60,1
49.00,94.31,1
56.00,92.71,1
193.00,91.36,1
167.00,92.38,1
70.00,95.03,1
39.00,96.76,1
81.00,96.75,1
201.00,96.86,1
77.00,98.39,1
98.00,100.04,1
62.00,100.76,1
56.00,100.28,1
64.00,98.56,1
48.00,95.90,1
96.00,92.83,1
36.00,89.70,1
121.00,86.75,1
132.00,85.02,1
69.00,84.65,1
66.00,84.35,1
52.00,83.42,1
195.00,82.97,1
43.00,83.89,1
199.00,85.79,1
70.00,88.61,1
64.00,91.17,1
104.00,92.58,1
68.00,93.40,1
53.00,93.36,1
45.00,92.03,1
72.00,89.75,1
143.00,87.80,1
37.00,86.68,1
65.00,85.29,1
124.00,83.82,1
67.00,83.08,1
61.00,82.40,1
55.00,81.18,1
118.00,79.95,1
202.00,80.47,1
37.00,82.83,1
99.00,84.98,1
190.00,87.32,1
105.00,91.06,1
48.00,94.59,1
156.00,97.10,1
42.00,99.13,1
165.00,100.73,1
60.00,102.19,1
47.00,102.66,1
207.00,102.61,1
175.00,104.42,1
198.00,108.57,1
94.00,113.63,1
112.00,117.84,1
61.00,120.27,1
63.00,120.60,1
102.00,119.25,1
85.00,117.18,1
58.00,114.47,1
73.00,110.87,1
96.00,106.96,1
174.00,104.08,1
55.00,102.59,1
174.00,101.85,1
65.00,101.80,1
39.00,101.21,1
192.00,100.19,1
92.00,100.37,1
34.00,100.57,1
79.00,99.37,1
64.00,97.29,1
63.00,94.72,1
121.00,92.20,1
105.00,90.63,1
226.00,91.07,1
91.00,93.76,1
129.00,97.14,1
70.00,99.96,1
108.00,101.91,1
147.00,103.60,1
111.00,105.70,1
102.00,107.69,1
126.00,109.29,1
49.00,110.23,1
186.00,110.67,1
207.00,112.54,1
120.00,116.20,1
46.00,119.21,1
90.00,120.06,1
97.00,119.41,1
113.00,118.25,1
62.00,116.64,1
37.00,113.82,1
106.00,109.91,1
100.00,106.18,1
45.00,102.74,1
46.00,98.68,1
64.00,93.99,1
115.00,89.71,1
62.00,86.43,1
81.00,83.73,1
70.00,81.34,1
72.00,79.25,1
43.00,77.17,1
81.00,75.01,1
104.00,73.44,1
124.00,73.23,1
74.00,74.18,1
58.00,75.17,1
43.00,75.37,1
138.00,75.35,1
58.00,75.97,1
57.00,76.50,1
40.00,76.12,1
85.00,75.15,1
177.00,75.13,1
92.00,77.02,1
75.00,79.52,1
115.00,81.74,1
93.00,84.01,1
145.00,86.65,1
67.00,89.51,1
99.00,91.85,1
52.00,93.22,1
39.00,93.16,1
37.00,91.40,1
39.00,88.30,1
45.00,84.33,1
152.00,80.85,1
79.00,79.07,1
70.00,78.25,1
62.00,77.36,1
62.00,76.24,1
68.00,74.96,1
50.00,73.56,1
130.00,72.53,1
160.00,73.25,1
66.00,75.64,1
128.00,78.44,1
91.00,81.38,1
48.00,83.89,1
142.00,85.74,1
91.00,87.80,1
84.00,89.84,1
47.00,90.94,1
178.00,91.71,1
179.00,94.08,1
71.00,97.81,1
64.00,100.58,1
92.00,101.76,1
144.00,102.53,1
99.00,103.69,1
212.00,105.73,1
57.00,108.58,1
111.00,110.78,1
285.00,113.44,1
66.00,117.90,1
51.00,121.26,1
169.00,122.60,1
112.00,123.71,1
346.00,126.60,1
358.00,134.25,1
68.00,144.99,1
129.00,153.50,1
111.00,158.50,1
109.00,160.85,1
202.00,161.70,1
85.00,161.95,1
272.00,162.10,1
330.00,164.84,1
279.00,171.49,1
61.00,178.72,1
77.00,182.27,1
325.00,183.38,1
336.00,186.97,1
283.00,194.13,1
99.00,201.45,1
145.00,205.51,1
141.00,206.18,1
245.00,205.41,1
150.00,204.50,1
54.00,201.99,1
55.00,195.92,1
144.00,187.35,1
245.00,179.51,1
240.00,174.88,1
328.00,174.28,1
270.00,177.72,1
465.00,185.56,1
50.00,195.75,1
39.00,202.00,1
58.00,201.54,1
51.00,196.21,1
113.00,187.91,1
375.00,180.78,1
147.00,177.75,1
99.00,175.92,1
285.00,173.91,1
310.00,174.74,1
160.00,178.39,1
272.00,182.73,1
285.00,188.18,1
88.00,193.79,1
100.00,196.26,1
136.00,195.13,1
73.00,191.49,1
237.00,186.67,1
111.00,182.28,1
55.00,177.17,1
48.00,169.62,1
91.00,160.23,1
66.00,150.23,1
42.00,139.87,1
58.00,129.06,1
99.00,118.69,1
63.00,109.53,1
45.00,101.18,1
49.00,93.15,1
103.00,86.00,1
141.00,81.00,1
54.00,78.15,1
75.00,76.08,1
75.00,74.31,1
129.00,73.43,1
67.00,73.64,1
55.00,73.99,1
43.00,73.62,1
57.00,72.55,1
38.00,70.94,1
58.00,68.94,1
39.00,66.73,1
70.00,64.55,1
65.00,62.78,1
66.00,61.56,1
41.00,60.56,1
81.00,59.69,1
36.00,59.04,1
