110.00,123.92,0
136.00,123.16,0
82.00,122.34,0
116.00,121.11,0
44.00,119.12,0
81.00,116.01,0
56.00,111.97,0
46.00,107.15,0
103.00,102.02,0
37.00,97.13,0
58.00,92.13,0
48.00,86.95,0
72.00,81.99,0
67.00,77.66,0
61.00,74.00,0
74.00,70.96,0
85.00,68.73,0
105.00,67.64,0
52.00,67.47,0
117.00,67.79,0
99.00,68.99,0
145.00,71.45,0
149.00,75.41,0
138.00,80.75,0
105.00,86.54,0
142.00,92.13,0
92.00,97.31,0
142.00,101.90,0
83.00,105.82,0
90.00,108.57,0
40.00,109.57,0
113.00,109.02,0
43.00,107.55,0
66.00,105.05,0
44.00,101.48,0
56.00,97.14,0
37.00,92.20,0
40.00,86.80,0
56.00,81.24,0
48.00,75.97,0
85.00,71.42,0
44.00,67.77,0
75.00,64.81,0
51.00,62.44,0
98.00,60.85,0
79.00,60.34,0
127.00,61.13,0
119.00,63.45,0
146.00,67.36,0
104.00,72.38,0
121.00,77.74,0
103.00,82.96,0
116.00,87.85,0
94.00,92.21,0
95.00,95.77,0
73.00,98.26,0
34.00,99.15,0
72.00,98.29,0
69.00,96.44,0
49.00,93.98,0
53.00,90.82,0
39.00,87.01,0
44.00,82.67,0
43.00,78.05,0
44.00,73.38,0
48.00,68.89,0
54.00,64.80,0
69.00,61.41,0
56.00,58.85,0
53.00,56.90,0
76.00,55.51,0
108.00,55.21,0
82.00,56.27,0
101.00,58.31,0
152.00,61.54,0
104.00,66.20,0
131.00,71.61,0
105.00,77.25,0
57.00,82.28,0
75.00,85.80,0
81.00,88.01,0
75.00,89.35,0
72.00,89.92,0
36.00,89.47,0
116.00,88.33,0
35.00,87.04,0
35.00,84.99,0
35.00,81.77,0
37.00,77.77,0
55.00,73.52,0
35.00,69.36,0
48.00,65.33,0
74.00,61.80,0
73.00,59.31,0
48.00,57.68,0
93.00,56.70,0
87.00,56.75,0
130.00,58.20,0
94.00,61.04,0
148.00,65.05,0
102.00,70.02,0
145.00,75.61,0
61.00,81.10,0
138.00,85.94,0
87.00,90.29,0
115.00,94.13,0
74.00,97.17,0
145.00,99.63,0
52.00,101.65,0
81.00,102.54,0
43.00,101.96,0
60.00,100.01,0
53.00,96.99,0
63.00,93.37,0
36.00,89.30,0
60.00,84.86,0
46.00,80.34,0
39.00,75.82,0
64.00,71.43,0
50.00,67.53,0
96.00,64.48,0
52.00,62.47,0
70.00,61.12,0
111.00,60.57,0
136.00,61.70,0
84.00,64.41,0
122.00,67.86,0
87.00,71.67,0
127.00,75.69,0
92.00,79.83,0
142.00,84.09,0
110.00,88.57,0
128.00,93.11,0
78.00,97.15,0
96.00,100.14,0
47.00,101.71,0
152.00,102.37,0
38.00,102.69,0
39.00,101.74,0
36.00,98.89,0
102.00,95.20,0
48.00,91.62,0
40.00,87.84,0
66.00,83.63,0
43.00,79.45,0
82.00,75.58,0
87.00,72.57,0
126.00,71.06,0
79.00,71.03,0
105.00,71.88,0
96.00,73.34,0
136.00,75.62,0
103.00,78.76,0
165.00,82.73,0
101.00,87.45,0
119.00,92.17,0
64.00,96.04,0
127.00,98.89,0
76.00,101.03,0
112.00,102.56,0
63.00,103.31,0
112.00,103.36,0
36.00,102.64,0
41.00,100.52,0
42.00,96.90,0
37.00,92.28,0
60.00,87.15,0
34.00,81.95,0
58.00,76.82,0
41.00,71.96,0
86.00,67.75,0
70.00,64.66,0
94.00,62.83,0
71.00,62.08,0
119.00,62.41,0
87.00,63.89,0
126.00,66.38,0
128.00,69.94,0
109.00,74.43,0
90.00,78.98,0
142.00,83.41,0
96.00,87.89,0
140.00,92.32,0
96.00,96.55,0
156.00,100.59,0
39.00,104.04,0
106.00,106.01,0
48.00,106.49,0
90.00,105.74,0
85.00,104.26,0
85.00,102.54,0
34.00,100.22,0
45.00,96.77,0
58.00,92.43,0
36.00,87.69,0
61.00,82.77,0
64.00,78.12,0
91.00,74.32,0
60.00,71.51,0
117.00,69.73,0
89.00,69.25,0
123.00,70.07,0
78.00,71.79,0
149.00,74.28,0
111.00,77.76,0
141.00,82.09,0
124.00,86.94,0
168.00,92.37,0
68.00,97.82,0
123.00,102.25,0
64.00,105.34,0
101.00,107.11,0
42.00,107.44,0
64.00,106.18,0
45.00,103.46,0
48.00,99.64,0
34.00,94.86,0
91.00,89.80,0
38.00,85.07,0
34.00,80.33,0
75.00,75.55,0
89.00,71.68,0
135.00,69.57,0
68.00,69.21,0
77.00,69.52,0
42.00,69.64,0
122.00,69.76,0
102.00,70.76,0
137.00,73.01,0
129.00,76.49,0
131.00,80.95,0
78.00,85.54,0
127.00,89.61,0
118.00,93.47,0
151.00,97.56,0
96.00,101.71,0
140.00,105.50,0
80.00,108.65,0
83.00,110.61,0
65.00,111.00,0
75.00,110.02,0
52.00,107.82,0
84.00,104.76,0
41.00,101.14,0
42.00,96.76,0
56.00,91.71,0
40.00,86.44,0
46.00,81.09,0
48.00,75.82,0
79.00,71.13,0
72.00,67.52,0
85.00,65.10,0
84.00,63.81,0
131.00,63.91,0
40.00,65.08,0
137.00,66.70,0
124.00,69.35,0
160.00,73.62,0
116.00,79.07,0
125.00,84.89,0
105.00,90.40,0
140.00,95.53,0
97.00,100.26,0
122.00,104.30,0
65.00,107.28,0
91.00,108.80,0
46.00,108.79,0
52.00,107.13,0
36.00,103.84,0
81.00,99.61,0
38.00,95.05,0
42.00,90.08,0
35.00,84.62,0
40.00,78.92,0
67.00,73.49,0
55.00,68.82,0
78.00,65.11,0
57.00,62.35,0
91.00,60.52,0
93.00,59.88,0
129.00,60.76,0
113.00,63.26,0
129.00,67.09,0
104.00,71.71,0
172.00,77.07,0
123.00,83.33,0
139.00,89.93,0
147.00,96.49,0
127.00,102.91,0
106.00,108.58,0
137.00,113.23,0
86.00,116.87,0
151.00,119.58,0
72.00,121.49,0
91.00,122.12,0
47.00,121.04,0
41.00,118.08,0
75.00,113.59,0
124.00,109.03,0
38.00,104.94,0
46.00,100.40,0
37.00,95.02,0
35.00,89.09,0
50.00,82.93,0
45.00,77.00,0
62.00,71.61,0
65.00,67.09,0
96.00,63.82,0
119.00,62.33,0
114.00,62.84,0
85.00,64.73,0
130.00,67.45,0
116.00,71.10,0
129.00,75.57,0
155.00,80.84,0
127.00,86.85,0
109.00,92.82,0
128.00,98.21,0
130.00,103.15,0
148.00,107.92,0
86.00,112.21,0
127.00,115.46,0
68.00,117.49,0
106.00,118.19,0
38.00,117.43,0
124.00,115.48,0
45.00,112.92,0
78.00,109.65,0
47.00,105.59,0
39.00,100.75,0
51.00,95.20,0
41.00,89.33,0
45.00,83.39,0
60.00,77.70,0
48.00,72.56,0
80.00,68.21,0
94.00,65.14,0
67.00,63.45,0
114.00,62.89,0
92.00,63.58,0
128.00,65.54,0
73.00,68.35,0
123.00,71.50,0
122.00,75.19,0
165.00,79.90,0
114.00,85.53,0
138.00,91.39,0
115.00,97.00,0
148.00,102.32,0
90.00,107.12,0
109.00,110.84,0
58.00,113.03,0
102.00,113.63,0
65.00,113.04,0
52.00,111.20,0
44.00,107.89,0
35.00,103.24,0
44.00,97.60,0
45.00,91.49,0
41.00,85.25,0
50.00,79.15,0
60.00,73.56,0
97.00,69.08,0
65.00,66.04,0
81.00,64.10,0
139.00,63.54,0
103.00,64.84,0
131.00,67.62,0
122.00,71.52,0
160.00,76.57,0
107.00,82.39,0
125.00,88.23,0
120.00,93.69,0
118.00,98.74,0
128.00,103.31,0
160.00,107.78,0
94.00,112.10,0
127.00,115.60,0
45.00,117.69,0
96.00,117.96,0
73.00,116.82,0
114.00,115.04,0
71.00,112.94,0
75.00,110.34,0
41.00,106.88,0
37.00,102.28,0
43.00,96.72,0
39.00,90.64,0
53.00,84.46,0
49.00,78.57,0
57.00,73.22,0
74.00,68.69,0
101.00,65.50,0
40.00,63.54,0
99.00,62.25,0
120.00,62.18,0
115.00,63.84,0
111.00,66.81,0
124.00,70.68,0
122.00,75.27,0
165.00,80.69,0
129.00,86.93,0
131.00,93.38,0
90.00,99.17,0
140.00,104.02,0
118.00,108.30,0
119.00,112.06,0
68.00,114.72,0
93.00,115.82,0
47.00,115.28,0
82.00,113.27,0
62.00,110.24,0
61.00,106.48,0
40.00,101.95,0
78.00,96.94,0
40.00,91.87,0
38.00,86.59,0
49.00,81.08,0
36.00,75.62,0
106.00,70.85,0
81.00,67.61,0
94.00,65.93,0
117.00,65.67,0
111.00,66.95,0
128.00,69.57,0
125.00,73.34,0
139.00,78.06,0
157.00,83.72,0
134.00,90.12,0
123.00,96.54,0
114.00,102.31,0
70.00,106.78,0
67.00,109.30,0
84.00,109.96,0
86.00,109.47,0
92.00,108.34,0
74.00,106.75,0
49.00,104.38,0
50.00,100.97,0
35.00,96.54,0
46.00,91.33,0
39.00,85.73,0
49.00,80.05,0
46.00,74.61,0
75.00,69.79,0
86.00,66.16,0
102.00,64.09,0
77.00,63.44,0
121.00,63.98,0
186.00,66.45,0
97.00,71.03,0
95.00,76.09,0
109.00,80.69,0
113.00,85.05,0
146.00,89.52,0
130.00,94.38,0
168.00,99.70,0
127.00,105.34,0
127.00,110.70,0
100.00,115.08,0
92.00,118.07,0
63.00,119.28,0
116.00,119.02,0
73.00,117.92,0
52.00,115.78,0
45.00,112.16,0
54.00,107.32,0
37.00,101.64,0
50.00,95.46,0
35.00,89.02,0
50.00,82.59,0
91.00,76.84,0
54.00,72.29,0
76.00,68.72,0
93.00,66.20,0
89.00,65.00,0
76.00,64.81,0
101.00,65.35,0
113.00,66.84,0
151.00,69.70,0
98.00,73.82,0
132.00,78.48,0
146.00,83.63,0
138.00,89.40,0
160.00,95.66,0
118.00,102.02,0
69.00,107.33,0
222.00,111.77,0
85.00,116.39,0
110.00,120.21,0
70.00,122.25,0
76.00,122.46,0
45.00,120.75,0
38.00,117.14,0
58.00,112.01,0
138.00,106.82,0
75.00,102.72,0
34.00,98.87,0
47.00,94.25,0
50.00,89.08,0
39.00,83.76,0
38.00,78.31,0
65.00,73.06,0
80.00,68.71,0
70.00,65.57,0
111.00,63.76,0
119.00,63.68,0
98.00,65.21,0
109.00,67.72,0
102.00,70.83,0
117.00,74.42,0
38.00,77.77,0
127.00,80.39,0
130.00,83.21,0
82.00,86.48,0
109.00,89.44,0
135.00,92.33,0
118.00,95.58,0
128.00,99.01,0
77.00,102.07,0
45.00,103.72,0
90.00,103.66,0
60.00,102.54,0
82.00,100.70,0
38.00,98.14,0
71.00,94.83,0
38.00,90.98,0
84.00,86.95,0
42.00,83.07,0
37.00,79.06,0
49.00,74.77,0
35.00,70.44,0
68.00,66.36,0
180.00,63.96,0
50.00,63.99,0
99.00,65.03,0
127.00,66.76,0
93.00,69.56,0
86.00,72.68,0
123.00,75.86,0
150.00,79.75,0
126.00,84.60,0
140.00,89.95,0
149.00,95.65,0
135.00,101.56,0
134.00,107.26,0
138.00,112.52,0
148.00,117.41,0
129.00,121.90,0
38.00,124.94,0
110.00,125.72,0
85.00,125.00,0
102.00,123.47,0
38.00,120.91,0
88.00,117.16,0
38.00,112.53,0
40.00,106.96,0
87.00,100.89,0
39.00,95.02,0
48.00,89.19,0
50.00,83.33,0
70.00,77.93,0
37.00,73.12,0
102.00,69.08,0
74.00,66.33,0
105.00,64.98,0
62.00,64.65,0
134.00,65.29,0
120.00,67.34,0
134.00,70.88,0
167.00,75.82,0
145.00,82.14,0
98.00,88.81,0
115.00,94.72,0
90.00,99.52,0
117.00,103.29,0
175.00,106.87,0
101.00,110.75,0
75.00,113.77,0
62.00,114.90,0
81.00,114.26,0
118.00,112.83,0
47.00,111.01,0
60.00,108.19,0
41.00,104.18,0
48.00,99.27,0
39.00,93.70,0
38.00,87.70,0
39.00,81.52,0
39.00,75.40,0
55.00,69.68,0
55.00,64.71,0
98.00,60.97,0
102.00,59.05,0
95.00,58.90,0
107.00,60.14,0
112.00,62.55,0
133.00,66.18,0
134.00,70.99,0
151.00,76.84,0
167.00,83.76,0
116.00,91.23,0
130.00,98.26,0
202.00,105.13,0
118.00,112.26,0
118.00,118.56,0
88.00,123.08,0
58.00,125.33,0
96.00,125.37,0
62.00,123.84,0
72.00,120.98,0
54.00,116.96,0
59.00,112.00,0
40.00,106.29,0
71.00,100.17,0
58.00,94.20,0
48.00,88.49,0
47.00,82.88,0
42.00,77.41,0
52.00,72.20,0
90.00,67.81,0
83.00,64.84,0
109.00,63.46,0
108.00,63.69,0
109.00,65.39,0
123.00,68.24,0
165.00,72.47,0
136.00,78.18,0
132.00,84.66,0
114.00,91.03,0
143.00,97.03,0
118.00,102.66,0
132.00,107.76,0
82.00,111.91,0
147.00,115.03,0
90.00,117.45,0
118.00,119.08,0
87.00,119.80,0
36.00,119.10,0
76.00,116.56,0
48.00,112.74,0
72.00,108.12,0
47.00,103.02,0
51.00,97.54,0
45.00,91.73,0
52.00,85.88,0
38.00,80.14,0
60.00,74.68,0
72.00,69.97,0
81.00,66.43,0
74.00,64.09,0
126.00,63.14,0
84.00,63.75,0
127.00,65.59,0
106.00,68.49,0
141.00,72.40,0
147.00,77.39,0
137.00,83.37,0
137.00,89.76,0
124.00,96.08,0
110.00,101.79,0
160.00,106.93,0
91.00,111.61,0
106.00,115.18,0
70.00,117.16,0
104.00,117.69,0
78.00,117.15,0
173.00,116.45,0
52.00,116.00,0
102.00,114.96,0
48.00,112.87,0
45.00,109.55,0
38.00,104.85,0
38.00,99.13,0
58.00,92.91,0
35.00,86.68,0
54.00,80.59,0
86.00,75.18,0
94.00,71.25,0
98.00,68.99,0
120.00,68.37,0
101.00,69.30,0
138.00,71.52,0
135.00,75.07,0
150.00,79.89,0
137.00,85.65,0
170.00,92.11,0
121.00,98.92,0
159.00,105.56,0
87.00,111.46,0
114.00,115.95,0
74.00,118.73,0
90.00,119.83,0
106.00,119.68,0
92.00,118.85,0
67.00,117.24,0
98.00,114.81,0
55.00,111.79,0
44.00,107.87,0
59.00,102.99,0
42.00,97.56,0
45.00,91.76,0
43.00,85.75,0
90.00,80.17,0
85.00,75.83,0
101.00,73.01,0
70.00,71.42,0
103.00,70.68,0
189.00,71.65,0
104.00,74.85,0
94.00,78.89,0
137.00,82.90,0
120.00,87.24,0
145.00,91.97,0
128.00,96.97,0
167.00,102.26,0
109.00,107.63,0
115.00,112.28,0
73.00,115.50,0
134.00,117.40,0
95.00,118.56,0
74.00,118.80,0
78.00,117.71,0
61.00,115.39,0
73.00,112.06,0
66.00,108.09,0
37.00,103.48,0
40.00,98.04,0
44.00,92.01,0
39.00,85.77,0
115.00,80.15,0
48.00,75.84,0
67.00,72.36,0
65.00,69.36,0
99.00,67.25,0
115.00,66.54,0
129.00,67.61,0
119.00,70.25,0
148.00,74.17,0
101.00,78.96,0
182.00,84.41,0
127.00,90.63,0
162.00,97.31,0
126.00,103.94,0
137.00,110.10,0
93.00,115.21,0
157.00,119.25,0
95.00,122.53,0
184.00,125.36,0
66.00,127.73,0
92.00,128.67,0
76.00,127.82,0
86.00,125.70,0
51.00,122.39,0
62.00,117.89,0
50.00,112.43,0
55.00,106.36,0
37.00,99.86,0
46.00,93.05,0
62.00,86.38,0
42.00,80.20,0
78.00,74.71,0
74.00,70.31,0
131.00,67.59,0
72.00,66.65,0
91.00,66.76,0
110.00,67.64,0
130.00,69.74,0
92.00,72.84,0
146.00,76.60,0
128.00,81.14,0
149.00,86.49,0
121.00,92.21,0
159.00,98.06,0
106.00,103.77,0
135.00,108.86,0
121.00,113.23,0
124.00,116.95,0
87.00,119.68,0
111.00,121.18,0
108.00,121.76,0
74.00,121.47,0
58.00,119.83,0
74.00,116.82,0
38.00,112.67,0
49.00,107.42,0
44.00,101.36,0
38.00,94.83,0
39.00,88.06,0
47.00,81.34,0
109.00,75.55,0
60.00,71.33,0
97.00,68.46,0
94.00,66.90,0
135.00,66.98,0
113.00,68.75,0
164.00,72.14,0
102.00,76.81,0
218.00,82.66,0
108.00,89.70,0
174.00,97.12,0
136.00,104.45,0
148.00,111.48,0
114.00,117.65,0
127.00,122.61,0
119.00,126.34,0
148.00,129.25,0
103.00,131.47,0
129.00,132.80,0
124.00,133.44,0
103.00,133.48,0
92.00,132.59,0
78.00,130.53,0
46.00,127.08,0
56.00,122.12,0
38.00,115.93,0
38.00,108.81,0
42.00,101.09,0
61.00,93.39,0
51.00,86.22,0
83.00,79.96,0
90.00,75.09,0
81.00,71.74,0
107.00,69.79,0
80.00,69.10,0
127.00,69.54,0
133.00,71.44,0
130.00,74.84,0
99.00,79.00,0
128.00,83.33,0
130.00,87.88,0
234.00,93.56,0
104.00,100.58,0
170.00,107.63,0
105.00,113.97,0
147.00,119.38,0
101.00,123.67,0
128.00,126.78,0
102.00,128.74,0
107.00,129.60,0
60.00,129.05,0
80.00,126.89,0
43.00,123.22,0
56.00,118.18,0
37.00,112.03,0
38.00,105.04,0
52.00,97.60,0
63.00,90.42,0
53.00,83.88,0
63.00,78.05,0
114.00,73.47,0
108.00,70.84,0
130.00,70.32,0
101.00,71.47,0
138.00,73.87,0
126.00,77.41,0
101.00,81.60,0
140.00,85.96,0
142.00,90.76,0
99.00,95.74,0
174.00,100.60,0
118.00,105.65,0
172.00,110.81,0
94.00,115.67,0
155.00,119.79,0
107.00,123.18,0
98.00,125.55,0
46.00,126.08,0
75.00,124.52,0
86.00,121.53,0
78.00,117.93,0
40.00,113.63,0
42.00,108.22,0
41.00,101.90,0
46.00,95.13,0
67.00,88.49,0
50.00,82.42,0
84.00,77.16,0
99.00,73.23,0
131.00,71.25,0
91.00,71.12,0
156.00,72.53,0
128.00,75.59,0
130.00,79.88,0
127.00,84.75,0
184.00,90.33,0
142.00,96.87,0
191.00,104.08,0
49.00,110.85,0
151.00,115.97,0
139.00,120.07,0
170.00,124.17,0
107.00,128.02,0
106.00,130.76,0
100.00,131.98,0
107.00,131.96,0
52.00,130.62,0
65.00,127.54,0
46.00,122.86,0
50.00,116.95,0
42.00,110.13,0
38.00,102.73,0
38.00,94.98,0
47.00,87.27,0
42.00,79.96,0
63.00,73.37,0
83.00,68.01,0
105.00,64.46,0
134.00,63.15,0
90.00,63.93,0
115.00,65.96,0
139.00,69.10,0
163.00,73.81,0
157.00,80.10,0
185.00,87.69,0
176.00,96.36,0
166.00,105.56,0
161.00,114.59,0
177.00,123.17,0
150.00,131.11,0
184.00,138.27,0
118.00,144.40,0
167.00,149.14,0
87.00,152.28,0
112.00,153.34,0
123.00,152.67,0
108.00,150.97,0
64.00,147.99,0
60.00,143.28,0
53.00,136.90,0
43.00,129.23,0
37.00,120.58,0
37.00,111.31,0
35.00,101.77,0
62.00,92.55,0
72.00,84.39,0
98.00,77.91,0
164.00,73.99,0
100.00,72.94,0
142.00,73.93,0
127.00,76.47,0
170.00,80.57,0
132.00,86.00,0
197.00,92.52,0
144.00,99.95,0
176.00,107.76,0
147.00,115.44,0
174.00,122.79,0
79.00,129.05,0
153.00,133.55,0
118.00,136.70,0
110.00,138.70,0
83.00,139.12,0
100.00,137.93,0
95.00,135.60,0
117.00,132.71,0
70.00,129.43,0
86.00,125.48,0
42.00,120.67,0
34.00,114.70,0
47.00,107.67,0
58.00,100.32,0
41.00,93.11,0
49.00,86.11,0
95.00,79.89,0
100.00,75.32,0
115.00,72.73,0
121.00,72.10,0
115.00,73.14,0
117.00,75.38,0
127.00,78.53,0
165.00,82.77,0
155.00,88.31,0
160.00,94.84,0
146.00,101.80,0
132.00,108.55,0
130.00,114.55,0
99.00,119.38,0
149.00,123.04,0
134.00,126.15,0
111.00,128.70,0
102.00,130.15,0
93.00,130.34,0
98.00,129.36,0
63.00,127.24,0
86.00,123.97,0
46.00,119.73,0
46.00,114.39,0
37.00,107.95,0
48.00,100.89,0
42.00,93.63,0
74.00,86.71,0
57.00,80.63,0
86.00,75.61,0
82.00,71.88,0
156.00,70.02,0
183.00,71.06,0
116.00,74.80,0
141.00,79.75,0
136.00,85.30,0
183.00,91.61,0
144.00,98.74,0
160.00,106.11,0
138.00,113.17,0
130.00,119.47,0
128.00,124.66,0
126.00,128.71,0
94.00,131.46,0
127.00,132.83,0
128.00,133.42,0
85.00,133.33,0
55.00,131.75,0
114.00,128.75,0
56.00,125.02,0
70.00,120.48,0
54.00,115.11,0
36.00,108.99,0
36.00,102.07,0
46.00,94.69,0
68.00,87.57,0
83.00,81.45,0
99.00,76.88,0
97.00,73.98,0
122.00,72.77,0
111.00,73.20,0
132.00,75.04,0
138.00,78.21,0
142.00,82.58,0
127.00,87.70,0
161.00,93.29,0
149.00,99.39,0
138.00,105.70,0
150.00,111.75,0
123.00,117.28,0
117.00,121.85,0
132.00,125.34,0
165.00,128.35,0
115.00,131.18,0
72.00,132.85,0
98.00,132.68,0
44.00,130.73,0
82.00,127.12,0
70.00,122.48,0
35.00,117.01,0
36.00,110.44,0
52.00,103.12,0
71.00,95.89,0
58.00,89.30,0
63.00,83.41,0
69.00,78.26,0
88.00,74.16,0
90.00,71.35,0
93.00,69.85,0
132.00,69.79,0
164.00,71.74,0
123.00,75.66,0
143.00,80.71,0
154.00,86.54,0
118.00,92.82,0
139.00,98.91,0
152.00,104.80,0
127.00,110.53,0
108.00,115.48,0
108.00,119.14,0
88.00,121.38,0
126.00,122.45,0
127.00,123.07,0
71.00,123.20,0
47.00,121.82,0
44.00,118.43,0
49.00,113.45,0
51.00,107.47,0
42.00,100.96,0
59.00,94.28,0
80.00,88.06,0
82.00,82.90,0
114.00,79.22,0
104.00,77.24,0
119.00,76.85,0
122.00,77.86,0
116.00,80.03,0
130.00,83.05,0
174.00,87.17,0
133.00,92.49,0
156.00,98.42,0
107.00,104.24,0
156.00,109.57,0
108.00,114.35,0
77.00,117.91,0
133.00,119.97,0
115.00,121.35,0
45.00,121.76,0
57.00,120.17,0
47.00,116.69,0
52.00,111.85,0
62.00,106.24,0
62.00,100.41,0
47.00,94.60,0
46.00,88.71,0
56.00,82.91,0
51.00,77.48,0
83.00,72.79,0
75.00,69.24,0
151.00,67.42,0
60.00,67.41,0
122.00,68.43,0
127.00,70.51,0
127.00,73.90,0
206.00,78.92,0
163.00,85.92,0
112.00,93.70,0
156.00,101.02,0
126.00,107.78,0
170.00,114.14,0
127.00,120.10,0
187.00,125.70,0
96.00,130.74,0
109.00,134.29,0
100.00,135.97,0
106.00,136.20,0
49.00,134.83,0
68.00,131.58,0
50.00,126.71,0
44.00,120.56,0
44.00,113.40,0
64.00,105.83,0
35.00,98.29,0
42.00,90.77,0
67.00,83.58,0
62.00,77.33,0
131.00,72.69,0
64.00,69.96,0
114.00,68.65,0
45.00,68.17,0
148.00,68.46,0
100.00,70.08,0
130.00,72.94,0
87.00,76.40,0
180.00,80.51,0
127.00,85.75,0
169.00,91.86,0
130.00,98.40,0
153.00,104.93,0
102.00,110.87,0
109.00,115.57,0
78.00,118.61,0
43.00,119.54,0
83.00,118.33,0
85.00,115.94,0
74.00,112.99,0
87.00,109.65,0
48.00,105.94,0
57.00,101.60,0
72.00,96.86,0
54.00,92.17,0
105.00,87.91,0
36.00,84.25,0
61.00,80.66,0
100.00,77.39,0
73.00,75.11,0
83.00,73.62,0
121.00,73.03,0
104.00,73.72,0
159.00,75.85,0
100.00,79.27,0
78.00,82.86,0
130.00,86.04,0
166.00,89.78,0
157.00,94.78,0
177.00,100.87,0
124.00,107.43,0
139.00,113.53,0
82.00,118.41,0
142.00,121.88,0
112.00,124.43,0
114.00,126.23,0
100.00,127.06,0
177.00,127.54,0
75.00,128.07,0
65.00,127.47,0
81.00,125.17,0
69.00,121.70,0
63.00,117.38,0
56.00,112.28,0
36.00,106.43,0
50.00,99.95,0
76.00,93.47,0
44.00,87.48,0
89.00,82.13,0
85.00,77.89,0
110.00,75.15,0
101.00,73.94,0
144.00,74.36,0
141.00,76.61,0
148.00,80.53,0
147.00,85.67,0
144.00,91.61,0
156.00,97.98,0
152.00,104.62,0
129.00,111.06,0
127.00,116.73,0
127.00,121.39,0
98.00,124.88,0
94.00,126.86,0
72.00,127.12,0
97.00,125.88,0
56.00,123.43,0
121.00,120.19,0
46.00,116.60,0
90.00,112.53,0
35.00,107.84,0
66.00,102.59,0
61.00,97.10,0
38.00,91.58,0
60.00,85.99,0
59.00,80.70,0
96.00,76.27,0
75.00,73.08,0
134.00,71.39,0
80.00,71.24,0
102.00,72.05,0
118.00,73.61,0
161.00,76.49,0
110.00,80.70,0
142.00,85.57,0
128.00,90.75,0
114.00,95.94,0
115.00,100.60,0
131.00,104.74,0
123.00,108.56,0
124.00,112.01,0
109.00,114.90,0
78.00,116.77,0
66.00,117.03,0
98.00,115.90,0
39.00,113.69,0
61.00,110.19,0
50.00,105.64,0
54.00,100.47,0
36.00,94.81,0
43.00,88.78,0
63.00,82.79,0
78.00,77.55,0
58.00,73.29,0
59.00,69.72,0
112.00,67.09,0
87.00,65.93,0
140.00,66.40,0
97.00,68.40,0
103.00,71.27,0
118.00,74.59,0
154.00,78.71,0
142.00,83.93,0
139.00,89.92,0
98.00,95.77,0
126.00,100.86,0
145.00,105.49,0
80.00,109.61,0
114.00,112.59,0
88.00,114.39,0
119.00,115.36,0
81.00,115.64,0
59.00,114.84,0
62.00,112.57,0
50.00,109.04,0
74.00,104.70,0
70.00,100.15,0
42.00,95.49,0
42.00,90.41,0
36.00,84.89,0
94.00,79.60,0
99.00,75.62,0
78.00,73.15,0
79.00,71.62,0
103.00,70.90,0
97.00,71.17,0
127.00,72.52,0
155.00,75.34,0
111.00,79.51,0
148.00,84.42,0
112.00,89.64,0
77.00,94.35,0
122.00,98.02,0
125.00,101.25,0
122.00,104.44,0
127.00,107.51,0
62.00,109.91,0
141.00,111.34,0
78.00,112.23,0
135.00,112.77,0
69.00,112.90,0
75.00,112.13,0
50.00,110.07,0
56.00,106.77,0
45.00,102.44,0
58.00,97.46,0
45.00,92.15,0
84.00,86.98,0
49.00,82.34,0
53.00,78.04,0
50.00,73.88,0
52.00,69.97,0
107.00,66.84,0
110.00,65.37,0
120.00,65.80,0
127.00,67.90,0
146.00,71.57,0
134.00,76.57,0
163.00,82.60,0
117.00,89.23,0
133.00,95.69,0
125.00,101.64,0
163.00,107.32,0
177.00,113.28,0
105.00,119.21,0
100.00,123.81,0
135.00,126.83,0
70.00,128.57,0
104.00,128.76,0
78.00,127.61,0
54.00,125.09,0
58.00,121.06,0
64.00,115.93,0
57.00,110.20,0
39.00,104.01,0
44.00,97.36,0
38.00,90.44,0
66.00,83.71,0
46.00,77.62,0
82.00,72.41,0
81.00,68.48,0
152.00,66.51,0
112.00,66.93,0
143.00,69.36,0
118.00,73.18,0
129.00,77.86,0
129.00,83.04,0
226.00,89.30,0
110.00,96.84,0
153.00,104.33,0
127.00,111.06,0
127.00,116.91,0
62.00,121.15,0
135.00,123.56,0
141.00,125.22,0
83.00,126.46,0
105.00,126.64,0
86.00,125.71,0
88.00,123.87,0
54.00,120.98,0
46.00,116.79,0
60.00,111.47,0
54.00,105.56,0
55.00,99.41,0
35.00,93.09,0
46.00,86.63,0
68.00,80.47,0
46.00,75.01,0
152.00,70.95,0
104.00,69.29,0
122.00,69.72,0
91.00,71.36,0
143.00,73.93,0
115.00,77.54,0
193.00,82.39,0
168.00,88.90,0
193.00,96.89,0
141.00,105.50,0
155.00,113.77,0
90.00,120.76,0
144.00,126.03,0
109.00,129.90,0
150.00,132.77,0
65.00,134.47,0
75.00,134.23,0
72.00,131.99,0
91.00,128.47,0
50.00,124.06,0
44.00,118.56,0
35.00,111.90,0
38.00,104.41,0
45.00,96.54,0
41.00,88.76,0
36.00,81.27,0
61.00,74.33,0
83.00,68.59,0
63.00,64.36,0
94.00,61.53,0
83.00,60.12,0
178.00,60.69,0
129.00,63.85,0
141.00,68.94,0
144.00,75.13,0
163.00,82.27,0
90.00,89.62,0
148.00,96.31,0
108.00,102.29,0
183.00,107.98,0
60.00,113.15,0
163.00,117.18,0
100.00,120.39,0
94.00,122.61,0
80.00,123.27,0
68.00,122.32,0
47.00,119.72,0
54.00,115.56,0
43.00,110.19,0
36.00,103.90,0
42.00,96.98,0
39.00,89.82,0
55.00,82.86,0
75.00,76.68,0
131.00,72.22,0
73.00,69.86,0
134.00,69.16,0
98.00,69.96,0
139.00,72.14,0
133.00,75.61,0
154.00,80.38,0
163.00,86.34,0
95.00,92.78,0
149.00,98.75,0
128.00,104.34,0
74.00,109.09,0
154.00,112.64,0
100.00,115.60,0
85.00,117.65,0
93.00,118.30,0
84.00,117.80,0
76.00,116.29,0
53.00,113.68,0
58.00,109.89,0
56.00,105.21,0
42.00,99.93,0
43.00,94.10,0
66.00,88.16,0
52.00,82.59,0
102.00,77.88,0
88.00,74.57,0
127.00,72.96,0
120.00,73.15,0
146.00,75.11,0
129.00,78.59,0
188.00,83.55,0
182.00,90.22,0
149.00,98.09,0
134.00,105.92,0
198.00,113.45,0
124.00,120.82,0
200.00,127.77,0
98.00,133.97,0
131.00,138.60,0
118.00,141.51,0
102.00,142.91,0
105.00,142.79,0
111.00,141.46,0
92.00,139.25,0
71.00,135.96,0
48.00,131.29,0
56.00,125.25,0
61.00,118.33,0
47.00,111.01,0
39.00,103.40,0
45.00,95.61,0
79.00,88.24,0
74.00,82.02,0
80.00,77.11,0
73.00,73.37,0
90.00,70.72,0
102.00,69.30,0
157.00,69.67,0
129.00,72.18,0
129.00,76.22,0
154.00,81.28,0
189.00,87.64,0
111.00,94.90,0
156.00,101.99,0
92.00,108.25,0
140.00,113.40,0
121.00,117.63,0
134.00,121.23,0
100.00,123.99,0
109.00,125.64,0
59.00,125.85,0
53.00,124.16,0
51.00,120.52,0
55.00,115.51,0
96.00,109.99,0
73.00,104.80,0
39.00,99.71,0
48.00,94.20,0
87.00,88.74,0
72.00,84.08,0
81.00,80.35,0
98.00,77.60,0
123.00,76.28,0
117.00,76.57,0
138.00,78.39,0
150.00,81.69,0
146.00,86.35,0
135.00,91.84,0
210.00,98.16,0
108.00,105.22,0
151.00,111.89,0
104.00,117.50,0
138.00,121.98,0
38.00,124.80,0
80.00,125.22,0
83.00,123.68,0
56.00,120.89,0
34.00,116.67,0
61.00,111.10,0
40.00,104.81,0
48.00,98.12,0
38.00,91.21,0
42.00,84.31,0
69.00,77.87,0
72.00,72.47,0
78.00,68.39,0
82.00,65.58,0
111.00,64.20,0
82.00,64.23,0
140.00,65.56,0
119.00,68.40,0
141.00,72.61,0
145.00,77.93,0
144.00,84.15,0
119.00,90.66,0
138.00,96.91,0
117.00,102.69,0
163.00,108.11,0
98.00,113.13,0
105.00,117.03,0
98.00,119.48,0
94.00,120.65,0
56.00,120.35,0
57.00,118.29,0
60.00,114.70,0
60.00,110.13,0
44.00,104.83,0
52.00,98.98,0
50.00,92.90,0
53.00,86.88,0
86.00,81.43,0
120.00,77.46,0
111.00,75.52,0
135.00,75.49,0
131.00,77.23,0
114.00,80.25,0
143.00,84.05,0
127.00,88.52,0
133.00,93.39,0
147.00,98.47,0
146.00,103.83,0
142.00,109.27,0
127.00,114.39,0
121.00,118.78,0
146.00,122.44,0
131.00,125.67,0
102.00,128.19,0
92.00,129.40,0
77.00,129.05,0
46.00,126.94,0
45.00,122.91,0
68.00,117.47,0
62.00,111.46,0
46.00,105.16,0
35.00,98.48,0
47.00,91.49,0
36.00,84.52,0
45.00,77.79,0
60.00,71.64,0
81.00,66.63,0
91.00,63.21,0
100.00,61.53,0
93.00,61.41,0
120.00,62.65,0
101.00,65.10,0
147.00,68.70,0
141.00,73.60,0
148.00,79.65,0
144.00,86.43,0
124.00,93.37,0
139.00,99.95,0
133.00,106.08,0
95.00,111.36,0
106.00,115.23,0
90.00,117.62,0
94.00,118.67,0
108.00,118.73,0
53.00,117.84,0
72.00,115.61,0
77.00,112.35,0
52.00,108.42,0
39.00,103.67,0
40.00,98.02,0
61.00,91.95,0
71.00,86.22,0
110.00,81.61,0
76.00,78.44,0
62.00,76.11,0
121.00,74.49,0
116.00,74.26,0
134.00,75.65,0
122.00,78.38,0
146.00,82.20,0
126.00,86.85,0
132.00,91.92,0
116.00,96.92,0
164.00,101.89,0
108.00,106.88,0
135.00,111.39,0
86.00,114.97,0
94.00,117.19,0
97.00,118.06,0
100.00,118.00,0
68.00,117.06,0
67.00,114.96,0
49.00,111.63,0
51.00,107.15,0
36.00,101.73,0
43.00,95.60,0
34.00,89.06,0
70.00,82.63,0
68.00,77.01,0
97.00,72.72,0
108.00,70.11,0
129.00,69.48,0
160.00,71.06,0
153.00,74.87,0
126.00,80.17,0
137.00,86.03,0
202.00,92.62,0
127.00,100.08,0
176.00,107.67,0
131.00,114.92,0
145.00,121.45,0
83.00,126.56,0
117.00,129.77,0
101.00,131.38,0
112.00,131.81,0
88.00,131.20,0
70.00,129.35,0
78.00,126.21,0
62.00,122.02,0
51.00,116.88,0
49.00,110.87,0
50.00,104.29,0
38.00,97.38,0
36.00,90.25,0
48.00,83.15,0
64.00,76.63,0
95.00,71.38,0
70.00,67.73,0
114.00,65.61,0
114.00,65.26,0
134.00,66.80,0
134.00,70.06,0
138.00,74.73,0
159.00,80.52,0
132.00,87.15,0
226.00,94.69,0
96.00,102.93,0
107.00,110.12,0
121.00,115.51,0
162.00,120.00,0
84.00,123.82,0
84.00,126.05,0
81.00,126.28,0
69.00,124.86,0
38.00,121.78,0
78.00,117.25,0
66.00,112.08,0
55.00,106.64,0
64.00,100.96,0
37.00,95.12,0
51.00,89.10,0
44.00,83.09,0
84.00,77.61,0
115.00,73.60,0
134.00,71.82,0
123.00,72.32,0
194.00,75.06,0
168.00,80.32,0
132.00,87.17,0
134.00,94.17,0
166.00,101.06,0
108.00,107.71,0
159.00,113.68,0
101.00,118.81,0
127.00,122.81,0
115.00,125.67,0
114.00,127.57,0
76.00,128.25,0
84.00,127.42,0
50.00,125.01,0
64.00,121.08,0
61.00,116.05,0
41.00,110.27,0
58.00,103.87,0
39.00,97.18,0
36.00,90.32,0
36.00,83.32,0
65.00,76.67,0
80.00,71.12,0
105.00,67.30,0
45.00,64.93,0
127.00,63.64,0
110.00,63.94,0
94.00,65.71,0
177.00,68.81,0
94.00,73.38,0
115.00,78.40,0
134.00,83.41,0
134.00,88.73,0
184.00,94.71,0
125.00,101.29,0
130.00,107.60,0
99.00,112.84,0
128.00,116.87,0
102.00,119.84,0
91.00,121.64,0
63.00,121.85,0
65.00,120.29,0
88.00,117.46,0
57.00,113.87,0
41.00,109.36,0
54.00,103.90,0
37.00,97.84,0
40.00,91.38,0
91.00,85.17,0
37.00,79.77,0
101.00,75.23,0
60.00,71.77,0
114.00,69.55,0
122.00,68.96,0
123.00,70.23,0
106.00,72.80,0
134.00,76.23,0
137.00,80.56,0
149.00,85.83,0
140.00,91.76,0
204.00,98.47,0
133.00,105.98,0
145.00,113.26,0
123.00,119.56,0
101.00,124.47,0
78.00,127.39,0
97.00,128.33,0
106.00,127.92,0
188.00,127.49,0
41.00,127.27,0
47.00,125.51,0
45.00,121.49,0
36.00,115.84,0
44.00,109.05,0
43.00,101.68,0
52.00,94.19,0
45.00,86.97,0
69.00,80.35,0
92.00,74.95,0
112.00,71.38,0
116.00,69.92,0
130.00,70.43,0
159.00,72.92,0
194.00,77.77,0
138.00,84.56,0
138.00,91.98,0
155.00,99.29,0
142.00,106.45,0
118.00,112.98,0
131.00,118.41,0
94.00,122.53,0
96.00,125.03,0
121.00,126.15,0
66.00,126.17,0
59.00,124.57,0
60.00,121.23,0
86.00,116.85,0
65.00,112.12,0
39.00,106.91,0
34.00,100.87,0
35.00,94.14,0
75.00,87.37,0
105.00,81.74,0
104.00,77.98,0
162.00,76.50,0
72.00,76.97,0
105.00,78.18,0
165.00,80.23,0
139.00,83.88,0
145.00,88.72,0
117.00,93.98,0
152.00,99.27,0
127.00,104.54,0
135.00,109.56,0
114.00,113.98,0
142.00,117.75,0
130.00,121.08,0
100.00,123.76,0
102.00,125.28,0
83.00,125.50,0
72.00,124.31,0
86.00,121.88,0
86.00,118.73,0
119.00,115.52,0
50.00,112.35,0
79.00,108.69,0
39.00,104.36,0
59.00,99.38,0
87.00,94.33,0
43.00,89.66,0
73.00,85.18,0
61.00,81.02,0
114.00,77.74,0
108.00,75.96,0
121.00,75.84,0
97.00,76.95,0
122.00,78.87,0
110.00,81.45,0
120.00,84.55,0
132.00,88.11,0
91.00,91.84,0
132.00,95.32,0
125.00,98.79,0
73.00,101.92,0
114.00,104.11,0
56.00,105.26,0
124.00,105.54,0
55.00,105.23,0
92.00,104.19,0
38.00,102.24,0
77.00,99.41,0
58.00,96.02,0
74.00,92.48,0
45.00,88.80,0
50.00,84.83,0
69.00,80.78,0
41.00,76.91,0
141.00,73.86,0
91.00,72.53,0
112.00,72.73,0
124.00,74.13,0
47.00,76.12,0
125.00,77.95,0
162.00,80.57,0
115.00,84.57,0
134.00,89.20,0
116.00,93.89,0
135.00,98.50,0
114.00,102.88,0
105.00,106.68,0
88.00,109.44,0
89.00,110.97,0
73.00,111.25,0
82.00,110.40,0
63.00,108.57,0
48.00,105.70,0
68.00,101.90,0
36.00,97.45,0
48.00,92.39,0
48.00,86.99,0
47.00,81.60,0
71.00,76.55,0
86.00,72.46,0
103.00,69.82,0
97.00,68.73,0
117.00,69.04,0
113.00,70.66,0
111.00,73.29,0
61.00,76.15,0
136.00,78.85,0
114.00,81.98,0
132.00,85.75,0
140.00,90.06,0
153.00,95.02,0
86.00,100.05,0
150.00,104.49,0
144.00,108.79,0
136.00,113.21,0
98.00,117.07,0
97.00,119.68,0
148.00,121.34,0
76.00,122.47,0
77.00,122.40,0
70.00,120.78,0
59.00,117.85,0
67.00,113.81,0
42.00,108.92,0
42.00,103.19,0
37.00,96.77,0
40.00,89.97,0
37.00,83.10,0
79.00,76.73,0
86.00,71.67,0
77.00,68.16,0
93.00,65.99,0
103.00,65.20,0
127.00,65.95,0
96.00,68.09,0
130.00,71.20,0
139.00,75.29,0
152.00,80.55,0
112.00,86.49,0
141.00,92.41,0
86.00,97.83,0
140.00,102.45,0
97.00,106.40,0
140.00,109.80,0
75.00,112.49,0
120.00,114.19,0
86.00,115.02,0
93.00,115.03,0
54.00,113.92,0
50.00,111.36,0
58.00,107.48,0
46.00,102.71,0
39.00,97.25,0
36.00,91.21,0
122.00,85.52,0
50.00,81.10,0
47.00,77.28,0
82.00,73.70,0
81.00,70.95,0
80.00,69.19,0
144.00,68.76,0
93.00,69.98,0
170.00,72.73,0
59.00,76.48,0
142.00,80.36,0
104.00,84.34,0
188.00,89.02,0
118.00,94.58,0
152.00,100.45,0
127.00,106.12,0
130.00,111.35,0
118.00,115.82,0
124.00,119.43,0
90.00,122.00,0
177.00,123.90,0
81.00,125.58,0
82.00,126.19,0
51.00,124.93,0
75.00,121.98,0
85.00,118.08,0
85.00,113.94,0
39.00,109.44,0
46.00,104.13,0
73.00,98.35,0
37.00,92.59,0
94.00,87.15,0
76.00,82.61,0
98.00,79.28,0
85.00,77.08,0
185.00,76.59,0
106.00,78.31,0
154.00,81.58,0
93.00,85.56,0
145.00,89.75,0
133.00,94.24,0
175.00,99.39,0
106.00,104.90,0
175.00,110.26,0
104.00,115.32,0
150.00,119.76,0
100.00,123.33,0
129.00,125.93,0
114.00,127.65,0
92.00,128.44,0
73.00,127.85,0
99.00,125.95,0
65.00,123.13,0
85.00,119.51,0
107.00,115.64,0
46.00,111.72,0
49.00,107.10,0
75.00,101.85,0
40.00,96.48,0
37.00,90.78,0
52.00,84.83,0
70.00,79.25,0
81.00,74.65,0
56.00,71.06,0
115.00,68.53,0
96.00,67.51,0
121.00,68.05,0
124.00,70.02,0
103.00,73.12,0
128.00,76.87,0
168.00,81.52,0
126.00,87.24,0
133.00,93.29,0
98.00,98.85,0
161.00,103.85,0
94.00,108.48,0
127.00,112.34,0
98.00,115.25,0
104.00,117.18,0
81.00,117.95,0
110.00,117.75,0
71.00,116.77,0
80.00,114.91,0
64.00,112.12,0
62.00,108.54,0
36.00,104.07,0
38.00,98.64,0
51.00,92.61,0
38.00,86.42,0
50.00,80.33,0
56.00,74.64,0
98.00,70.00,0
112.00,67.18,0
127.00,66.52,0
102.00,67.70,0
143.00,70.29,0
136.00,74.27,0
125.00,79.31,0
128.00,84.78,0
144.00,90.47,0
130.00,96.32,0
179.00,102.40,0
134.00,108.79,0
145.00,114.93,0
61.00,119.82,0
146.00,122.97,0
90.00,124.95,0
118.00,126.00,0
61.00,125.80,0
120.00,124.45,0
45.00,122.16,0
72.00,118.68,0
54.00,114.11,0
36.00,108.63,0
61.00,102.40,0
42.00,95.94,0
102.00,89.89,0
51.00,84.77,0
93.00,80.54,0
74.00,77.24,0
128.00,75.23,0
119.00,74.95,0
149.00,76.53,0
113.00,79.60,0
153.00,83.68,0
122.00,88.49,0
171.00,93.94,0
40.00,99.14,0
169.00,103.28,0
101.00,106.97,0
127.00,110.35,0
132.00,113.30,0
120.00,116.02,0
84.00,118.02,0
130.00,119.07,0
76.00,119.41,0
53.00,118.48,0
42.00,115.69,0
45.00,111.26,0
40.00,105.63,0
34.00,99.18,0
45.00,92.26,0
39.00,85.29,0
75.00,78.81,0
60.00,73.34,0
108.00,69.27,0
86.00,66.87,0
138.00,66.30,0
109.00,67.58,0
167.00,70.66,0
132.00,75.42,0
141.00,81.27,0
132.00,87.54,0
184.00,94.27,0
125.00,101.45,0
134.00,108.25,0
81.00,113.75,0
142.00,117.78,0
89.00,120.71,0
147.00,122.81,0
90.00,124.25,0
96.00,124.71,0
91.00,124.03,0
72.00,122.32,0
40.00,119.23,0
66.00,114.76,0
62.00,109.49,0
75.00,104.06,0
60.00,98.74,0
50.00,93.46,0
41.00,88.01,0
35.00,82.33,0
77.00,76.84,0
73.00,72.30,0
84.00,69.00,0
91.00,66.96,0
131.00,66.48,0
121.00,67.85,0
99.00,70.53,0
114.00,73.82,0
133.00,77.67,0
150.00,82.43,0
126.00,87.96,0
153.00,93.82,0
148.00,99.97,0
142.00,106.21,0
143.00,112.19,0
77.00,117.20,0
130.00,120.66,0
115.00,123.04,0
127.00,124.80,0
77.00,125.71,0
73.00,125.17,0
78.00,123.11,0
70.00,119.93,0
130.00,116.43,0
86.00,113.36,0
57.00,110.25,0
34.00,106.16,0
42.00,100.92,0
49.00,94.97,0
42.00,88.80,0
68.00,82.83,0
75.00,77.64,0
108.00,73.83,0
115.00,71.88,0
104.00,71.68,0
127.00,72.87,0
124.00,75.38,0
136.00,79.02,0
143.00,83.63,0
160.00,89.20,0
120.00,95.29,0
150.00,101.31,0
131.00,107.09,0
151.00,112.59,0
80.00,117.29,0
154.00,120.83,0
88.00,123.46,0
100.00,124.92,0
107.00,125.16,0
73.00,124.40,0
81.00,122.47,0
59.00,119.38,0
71.00,115.32,0
36.00,110.35,0
35.00,104.40,0
59.00,97.80,0
35.00,91.09,0
48.00,84.44,0
55.00,78.13,0
58.00,72.54,0
108.00,68.20,0
72.00,65.52,0
123.00,64.43,0
120.00,65.12,0
107.00,67.38,0
114.00,70.61,0
157.00,74.81,0
135.00,80.20,0
166.00,86.55,0
134.00,93.47,0
153.00,100.51,0
97.00,106.98,0
136.00,112.34,0
110.00,116.66,0
110.00,119.94,0
75.00,121.82,0
73.00,121.96,0
50.00,120.29,0
75.00,117.11,0
50.00,112.88,0
80.00,108.03,0
34.00,102.80,0
38.00,96.97,0
50.00,90.67,0
81.00,84.69,0
36.00,79.40,0
52.00,74.44,0
63.00,69.89,0
61.00,66.09,0
105.00,63.43,0
80.00,62.21,0
113.00,62.34,0
95.00,63.69,0
123.00,66.15,0
76.00,69.27,0
128.00,72.68,0
130.00,76.70,0
170.00,81.82,0
100.00,87.73,0
133.00,93.47,0
120.00,98.77,0
157.00,103.90,0
106.00,108.83,0
114.00,112.97,0
104.00,116.01,0
134.00,118.25,0
50.00,119.53,0
83.00,119.17,0
86.00,117.43,0
36.00,114.63,0
45.00,110.37,0
75.00,105.14,0
35.00,99.60,0
40.00,93.61,0
37.00,87.22,0
72.00,81.02,0
64.00,75.66,0
99.00,71.55,0
80.00,68.88,0
74.00,67.33,0
97.00,66.62,0
108.00,66.99,0
141.00,68.80,0
106.00,72.00,0
123.00,76.01,0
161.00,80.77,0
135.00,86.52,0
163.00,92.95,0
158.00,99.88,0
80.00,106.46,0
138.00,111.70,0
114.00,115.88,0
92.00,119.00,0
95.00,120.70,0
96.00,121.12,0
95.00,120.58,0
131.00,119.63,0
86.00,118.62,0
48.00,116.82,0
46.00,113.48,0
47.00,108.69,0
42.00,102.97,0
39.00,96.62,0
68.00,90.15,0
46.00,84.08,0
60.00,78.50,0
64.00,73.57,0
97.00,69.75,0
82.00,67.35,0
51.00,65.88,0
106.00,64.99,0
110.00,65.23,0
128.00,67.01,0
130.00,70.25,0
152.00,74.89,0
156.00,80.81,0
124.00,87.49,0
172.00,94.45,0
120.00,101.48,0
134.00,107.99,0
101.00,113.39,0
124.00,117.56,0
97.00,120.52,0
74.00,122.01,0
81.00,121.80,0
56.00,120.04,0
80.00,116.98,0
72.00,113.17,0
64.00,108.90,0
70.00,104.29,0
45.00,99.39,0
38.00,94.02,0
49.00,88.21,0
61.00,82.50,0
127.00,77.89,0
78.00,75.06,0
101.00,73.62,0
84.00,73.10,0
131.00,73.60,0
122.00,75.44,0
127.00,78.51,0
126.00,82.39,0
140.00,86.91,0
130.00,91.90,0
179.00,97.42,0
128.00,103.51,0
106.00,109.19,0
103.00,113.56,0
110.00,116.61,0
98.00,118.56,0
141.00,119.81,0
69.00,120.51,0
110.00,120.28,0
92.00,119.26,0
71.00,117.56,0
68.00,114.88,0
47.00,111.13,0
40.00,106.27,0
56.00,100.57,0
42.00,94.52,0
45.00,88.32,0
37.00,82.09,0
65.00,76.17,0
72.00,71.13,0
90.00,67.42,0
91.00,65.20,0
72.00,64.19,0
109.00,64.16,0
117.00,65.36,0
118.00,67.93,0
114.00,71.49,0
112.00,75.61,0
133.00,80.14,0
156.00,85.33,0
118.00,91.10,0
134.00,96.82,0
121.00,102.16,0
151.00,107.19,0
67.00,111.53,0
119.00,114.46,0
36.00,115.73,0
92.00,115.18,0
69.00,113.34,0
86.00,110.80,0
86.00,107.90,0
71.00,104.85,0
61.00,101.46,0
67.00,97.67,0
46.00,93.56,0
114.00,89.60,0
40.00,86.22,0
39.00,82.72,0
48.00,78.71,0
51.00,74.59,0
126.00,71.27,0
82.00,69.59,0
106.00,69.29,0
49.00,69.60,0
126.00,70.26,0
106.00,71.81,0
162.00,74.75,0
146.00,79.32,0
212.00,85.66,0
120.00,93.35,0
141.00,101.03,0
63.00,107.36,0
136.00,111.95,0
80.00,115.16,0
140.00,117.41,0
109.00,119.10,0
108.00,120.31,0
62.00,120.44,0
97.00,119.27,0
78.00,117.20,0
56.00,114.30,0
68.00,110.45,0
37.00,105.77,0
47.00,100.28,0
35.00,94.17,0
38.00,87.68,0
66.00,81.32,0
71.00,75.79,0
75.00,71.42,0
88.00,68.30,0
89.00,66.47,0
83.00,65.77,0
109.00,66.07,0
144.00,67.79,0
130.00,71.26,0
135.00,75.98,0
156.00,81.64,0
132.00,88.03,0
132.00,94.54,0
147.00,100.85,0
126.00,106.87,0
136.00,112.34,0
86.00,116.78,0
120.00,119.83,0
109.00,121.79,0
98.00,122.84,0
124.00,123.13,0
89.00,122.87,0
65.00,121.64,0
78.00,119.15,0
66.00,115.68,0
58.00,111.42,0
54.00,106.46,0
40.00,100.86,0
42.00,94.73,0
42.00,88.30,0
35.00,81.83,0
55.00,75.58,0
104.00,70.40,0
84.00,67.00,0
82.00,65.13,0
98.00,64.40,0
100.00,64.84,0
125.00,66.52,0
120.00,69.47,0
129.00,73.51,0
131.00,78.36,0
107.00,83.56,0
107.00,88.49,0
143.00,93.15,0
127.00,97.92,0
110.00,102.49,0
112.00,106.38,0
101.00,109.40,0
107.00,111.56,0
100.00,112.95,0
116.00,113.76,0
70.00,113.95,0
79.00,113.08,0
42.00,110.89,0
64.00,107.43,0
78.00,103.29,0
36.00,98.85,0
73.00,94.04,0
49.00,89.19,0
41.00,84.29,0
70.00,79.44,0
59.00,75.12,0
104.00,71.77,0
123.00,70.07,0
80.00,70.01,0
95.00,70.79,0
116.00,72.23,0
89.00,74.39,0
150.00,77.25,0
134.00,81.19,0
173.00,86.38,0
132.00,92.52,0
120.00,98.74,0
135.00,104.39,0
130.00,109.53,0
132.00,114.17,0
87.00,117.89,0
79.00,120.00,0
81.00,120.33,0
87.00,119.30,0
83.00,117.38,0
78.00,114.77,0
35.00,111.25,0
59.00,106.59,0
59.00,101.28,0
40.00,95.69,0
37.00,89.72,0
58.00,83.65,0
37.00,77.85,0
67.00,72.50,0
77.00,68.09,0
127.00,65.37,0
95.00,64.65,0
68.00,65.15,0
109.00,66.18,0
134.00,68.25,0
127.00,71.76,0
113.00,76.19,0
135.00,81.08,0
151.00,86.52,0
147.00,92.62,0
125.00,98.91,0
140.00,104.85,0
152.00,110.52,0
97.00,115.63,0
101.00,119.40,0
86.00,121.47,0
74.00,121.88,0
97.00,120.88,0
85.00,119.04,0
75.00,116.52,0
56.00,113.16,0
37.00,108.70,0
46.00,103.18,0
52.00,97.07,0
39.00,90.78,0
38.00,84.39,0
65.00,78.23,0
52.00,72.78,0
61.00,68.14,0
61.00,64.30,0
77.00,61.40,0
95.00,59.73,0
135.00,59.81,0
46.00,61.28,0
129.00,63.32,0
127.00,66.36,0
141.00,70.83,0
117.00,76.23,0
161.00,82.25,0
126.00,88.77,0
136.00,95.34,0
106.00,101.34,0
131.00,106.51,0
102.00,110.81,0
124.00,114.20,0
106.00,116.78,0
88.00,118.38,0
94.00,118.78,0
79.00,118.10,0
42.00,116.11,0
40.00,112.42,0
55.00,107.38,0
80.00,101.90,0
38.00,96.46,0
38.00,90.72,0
62.00,84.82,0
38.00,79.18,0
40.00,73.75,0
55.00,68.62,0
74.00,64.30,0
82.00,61.25,0
129.00,59.93,0
99.00,60.58,0
94.00,62.58,0
110.00,65.31,0
131.00,68.90,0
120.00,73.41,0
158.00,78.79,0
127.00,84.93,0
153.00,91.47,0
127.00,98.03,0
125.00,104.18,0
97.00,109.33,0
90.00,113.01,0
56.00,114.81,0
82.00,114.72,0
90.00,113.41,0
107.00,111.70,0
54.00,109.68,0
71.00,106.88,0
63.00,103.37,0
83.00,99.60,0
50.00,95.75,0
42.00,91.51,0
39.00,86.69,0
47.00,81.55,0
45.00,76.43,0
49.00,71.54,0
41.00,66.97,0
64.00,62.91,0
108.00,60.02,0
63.00,58.68,0
114.00,58.60,0
59.00,59.50,0
127.00,61.21,0
116.00,64.05,0
138.00,68.19,0
132.00,73.46,0
158.00,79.67,0
109.00,86.37,0
123.00,92.73,0
108.00,98.33,0
134.00,103.24,0
62.00,107.18,0
127.00,109.81,0
72.00,111.38,0
93.00,111.90,0
87.00,111.44,0
70.00,110.18,0
49.00,107.87,0
104.00,104.79,0
40.00,101.43,0
47.00,97.44,0
55.00,92.71,0
41.00,87.68,0
71.00,82.67,0
59.00,78.14,0
84.00,74.36,0
59.00,71.40,0
93.00,69.23,0
94.00,68.10,0
121.00,68.30,0
129.00,70.04,0
127.00,73.25,0
116.00,77.39,0
155.00,82.23,0
98.00,87.53,0
140.00,92.72,0
109.00,97.62,0
167.00,102.45,0
106.00,107.28,0
127.00,111.58,0
76.00,114.77,0
110.00,116.60,0
157.00,117.88,0
93.00,119.23,0
82.00,119.81,0
78.00,119.08,0
58.00,117.04,0
55.00,113.70,0
49.00,109.18,0
70.00,103.99,0
32.00,98.42,0
39.00,92.34,0
38.00,85.88,0
56.00,79.55,0
69.00,73.91,0
86.00,69.51,0
83.00,66.53,0
115.00,65.10,0
158.00,65.76,0
119.00,68.63,0
136.00,72.95,0
115.00,78.00,0
242.00,84.30,0
138.00,92.38,0
147.00,100.97,0
112.00,108.65,0
117.00,114.94,0
119.00,119.76,0
135.00,123.51,0
91.00,126.24,0
107.00,127.65,0
104.00,127.89,0
99.00,127.26,0
82.00,125.75,0
63.00,123.16,0
74.00,119.42,0
58.00,114.86,0
63.00,109.70,0
39.00,103.98,0
38.00,97.64,0
36.00,90.84,0
52.00,84.01,0
36.00,77.48,0
66.00,71.53,0
70.00,66.61,0
127.00,63.44,0
77.00,62.24,0
89.00,62.32,0
122.00,63.43,0
176.00,66.40,0
127.00,71.42,0
137.00,77.55,0
119.00,83.95,0
151.00,90.39,0
127.00,96.82,0
145.00,103.05,0
119.00,108.81,0
128.00,113.82,0
114.00,117.90,0
124.00,121.08,0
109.00,123.38,0
92.00,124.64,0
46.00,124.27,0
88.00,122.12,0
97.00,119.08,0
112.00,116.10,0
36.00,112.95,0
56.00,108.80,0
47.00,103.68,0
40.00,97.94,0
35.00,91.67,0
70.00,85.37,0
53.00,79.64,0
46.00,74.49,0
100.00,70.14,0
56.00,67.01,0
84.00,64.86,0
72.00,63.53,0
118.00,63.29,0
107.00,64.44,0
129.00,66.98,0
151.00,71.00,0
137.00,76.37,0
115.00,82.40,0
155.00,88.59,0
124.00,94.89,0
136.00,101.00,0
118.00,106.56,0
134.00,111.44,0
108.00,115.54,0
125.00,118.77,0
46.00,120.63,0
119.00,120.84,0
74.00,119.98,0
90.00,118.30,0
62.00,115.73,0
73.00,112.33,0
56.00,108.23,0
46.00,103.44,0
58.00,98.05,0
42.00,92.42,0
83.00,86.94,0
47.00,82.00,0
67.00,77.56,0
53.00,73.56,0
76.00,70.14,0
55.00,67.37,0
128.00,65.64,0
103.00,65.56,0
110.00,66.99,0
161.00,69.86,0
133.00,74.39,0
112.00,79.84,0
133.00,85.40,0
140.00,91.08,0
135.00,96.90,0
101.00,102.35,0
181.00,107.38,0
125.00,112.52,0
143.00,117.45,0
60.00,121.20,0
142.00,123.39,0
93.00,124.59,0
127.00,125.15,0
90.00,125.04,0
74.00,123.98,0
94.00,121.81,0
164.00,119.65,0
52.00,117.97,0
82.00,115.69,0
45.00,112.27,0
63.00,107.91,0
36.00,102.72,0
43.00,96.87,0
116.00,91.19,0
63.00,86.64,0
67.00,82.88,0
86.00,79.61,0
103.00,77.33,0
95.00,76.24,0
148.00,76.54,0
103.00,78.32,0
126.00,81.05,0
108.00,84.27,0
152.00,88.01,0
146.00,92.56,0
165.00,98.00,0
113.00,103.76,0
164.00,109.29,0
127.00,114.59,0
109.00,119.18,0
101.00,122.42,0
152.00,124.66,0
119.00,126.57,0
107.00,127.95,0
58.00,127.99,0
82.00,126.30,0
71.00,123.25,0
55.00,119.14,0
71.00,114.17,0
42.00,108.61,0
40.00,102.38,0
41.00,95.61,0
36.00,88.61,0
82.00,81.98,0
54.00,76.33,0
49.00,71.49,0
76.00,67.33,0
105.00,64.48,0
131.00,63.64,0
116.00,64.91,0
134.00,67.85,0
99.00,71.83,0
235.00,77.15,0
127.00,84.40,0
151.00,92.40,0
102.00,99.81,0
158.00,106.38,0
109.00,112.22,0
133.00,117.15,0
115.00,121.07,0
89.00,123.79,0
85.00,124.86,0
110.00,124.59,0
100.00,123.61,0
76.00,121.96,0
67.00,119.31,0
60.00,115.57,0
50.00,110.84,0
54.00,105.34,0
35.00,99.28,0
36.00,92.69,0
45.00,85.86,0
45.00,79.24,0
99.00,73.53,0
97.00,69.57,0
122.00,67.71,0
90.00,67.61,0
102.00,68.65,0
118.00,70.57,0
132.00,73.60,0
124.00,77.64,0
139.00,82.44,0
132.00,87.78,0
125.00,93.31,0
68.00,98.15,0
144.00,101.93,0
123.00,105.40,0
119.00,108.75,0
119.00,111.67,0
101.00,113.98,0
118.00,115.60,0
89.00,116.53,0
94.00,116.61,0
88.00,115.83,0
58.00,114.11,0
80.00,111.39,0
71.00,108.02,0
53.00,104.16,0
35.00,99.54,0
50.00,94.15,0
45.00,88.43,0
39.00,82.64,0
65.00,77.05,0
79.00,72.31,0
95.00,68.95,0
49.00,66.74,0
92.00,65.22,0
127.00,64.87,0
115.00,66.27,0
102.00,68.95,0
149.00,72.59,0
96.00,77.05,0
153.00,81.97,0
138.00,87.47,0
175.00,93.76,0
122.00,100.47,0
129.00,106.79,0
91.00,111.95,0
118.00,115.71,0
96.00,118.24,0
117.00,119.79,0
86.00,120.44,0
108.00,120.22,0
50.00,119.00,0
49.00,116.24,0
55.00,111.99,0
72.00,106.95,0
45.00,101.61,0
48.00,95.92,0
46.00,89.97,0
38.00,83.95,0
41.00,77.95,0
67.00,72.36,0
88.00,67.88,0
56.00,64.73,0
116.00,62.80,0
95.00,62.44,0
134.00,63.74,0
102.00,66.47,0
131.00,70.22,0
109.00,74.67,0
145.00,79.66,0
136.00,85.22,0
144.00,91.27,0
121.00,97.35,0
114.00,102.89,0
109.00,107.49,0
118.00,111.15,0
112.00,114.02,0
124.00,116.29,0
101.00,117.99,0
82.00,118.74,0
114.00,118.53,0
79.00,117.67,0
78.00,116.02,0
76.00,113.48,0
55.00,110.16,0
56.00,106.00,0
46.00,101.08,0
36.00,95.51,0
35.00,89.38,0
40.00,82.97,0
85.00,77.01,0
69.00,72.24,0
96.00,68.87,0
94.00,66.97,0
113.00,66.58,0
85.00,67.44,0
125.00,69.22,0
127.00,72.12,0
186.00,76.58,0
123.00,82.58,0
146.00,89.20,0
81.00,95.38,0
125.00,100.51,0
125.00,104.84,0
142.00,108.95,0
117.00,112.82,0
117.00,116.10,0
88.00,118.38,0
132.00,119.72,0
99.00,120.50,0
119.00,120.83,0
75.00,120.49,0
72.00,119.06,0
70.00,116.44,0
60.00,112.86,0
68.00,108.52,0
39.00,103.58,0
63.00,98.13,0
38.00,92.42,0
66.00,86.71,0
44.00,81.27,0
54.00,76.16,0
81.00,71.69,0
74.00,68.32,0
115.00,66.34,0
123.00,66.16,0
112.00,67.75,0
123.00,70.61,0
105.00,74.27,0
134.00,78.47,0
127.00,83.20,0
134.00,88.37,0
125.00,93.68,0
125.00,98.82,0
136.00,103.69,0
123.00,108.26,0
81.00,111.98,0
88.00,114.18,0
79.00,114.86,0
128.00,114.67,0
92.00,114.26,0
67.00,113.30,0
75.00,111.31,0
51.00,108.33,0
65.00,104.47,0
164.00,100.94,0
48.00,98.57,0
35.00,95.95,0
38.00,92.04,0
48.00,87.37,0
62.00,82.54,0
43.00,77.92,0
119.00,74.04,0
76.00,71.59,0
125.00,70.64,0
126.00,71.33,0
119.00,73.60,0
129.00,76.95,0
145.00,81.30,0
110.00,86.29,0
138.00,91.38,0
119.00,96.41,0
138.00,101.29,0
127.00,105.97,0
126.00,110.30,0
64.00,113.61,0
100.00,115.27,0
103.00,115.76,0
94.00,115.62,0
96.00,114.88,0
38.00,113.20,0
86.00,110.30,0
80.00,106.85,0
60.00,103.23,0
45.00,99.10,0
38.00,94.21,0
40.00,88.72,0
39.00,82.91,0
35.00,77.01,0
55.00,71.34,0
65.00,66.40,0
72.00,62.59,0
84.00,60.04,0
115.00,59.06,0
108.00,59.88,0
129.00,62.33,0
135.00,66.26,0
120.00,71.34,0
150.00,77.19,0
131.00,83.64,0
122.00,90.19,0
141.00,96.46,0
98.00,102.18,0
132.00,107.02,0
106.00,111.04,0
118.00,114.23,0
122.00,116.72,0
93.00,118.51,0
104.00,119.36,0
87.00,119.25,0
86.00,118.23,0
74.00,116.29,0
48.00,113.29,0
44.00,109.02,0
56.00,103.73,0
44.00,97.94,0
38.00,91.80,0
41.00,85.44,0
46.00,79.15,0
85.00,73.55,0
105.00,69.52,0
115.00,67.57,0
107.00,67.52,0
96.00,68.76,0
118.00,70.89,0
109.00,73.81,0
133.00,77.48,0
127.00,81.88,0
141.00,86.88,0
127.00,92.24,0
142.00,97.71,0
88.00,102.76,0
149.00,107.06,0
111.00,110.90,0
133.00,114.31,0
94.00,117.01,0
106.00,118.72,0
71.00,119.19,0
81.00,118.31,0
51.00,116.07,0
45.00,112.36,0
36.00,107.28,0
59.00,101.31,0
35.00,94.98,0
35.00,88.37,0
36.00,81.57,0
40.00,74.91,0
86.00,69.04,0
73.00,64.68,0
110.00,62.06,0
118.00,61.44,0
120.00,62.83,0
135.00,65.90,0
129.00,70.36,0
104.00,75.55,0
156.00,81.08,0
114.00,87.00,0
132.00,92.88,0
104.00,98.27,0
148.00,103.16,0
68.00,107.33,0
127.00,110.35,0
106.00,112.52,0
75.00,113.87,0
66.00,113.80,0
55.00,112.15,0
68.00,109.21,0
37.00,105.26,0
44.00,100.31,0
43.00,94.60,0
36.00,88.51,0
38.00,82.23,0
34.00,75.95,0
62.00,70.06,0
79.00,65.22,0
49.00,61.60,0
127.00,59.33,0
67.00,58.69,0
132.00,59.52,0
99.00,61.74,0
114.00,65.06,0
117.00,69.12,0
140.00,73.97,0
127.00,79.57,0
153.00,85.73,0
112.00,92.07,0
142.00,98.14,0
94.00,103.56,0
137.00,108.12,0
39.00,111.36,0
120.00,112.93,0
63.00,113.22,0
97.00,112.53,0
77.00,111.03,0
73.00,108.91,0
62.00,106.05,0
71.00,102.58,0
55.00,98.70,0
72.00,94.58,0
37.00,90.28,0
37.00,85.54,0
37.00,80.34,0
62.00,75.15,0
74.00,70.67,0
69.00,67.23,0
75.00,64.77,0
97.00,63.37,0
114.00,63.40,0
113.00,64.96,0
125.00,67.83,0
111.00,71.71,0
146.00,76.36,0
133.00,81.79,0
127.00,87.68,0
88.00,93.19,0
128.00,97.86,0
98.00,101.83,0
152.00,105.41,0
116.00,108.92,0
103.00,112.02,0
91.00,114.07,0
80.00,114.87,0
96.00,114.56,0
74.00,113.40,0
83.00,111.47,0
60.00,108.80,0
51.00,105.27,0
60.00,100.94,0
67.00,96.28,0
54.00,91.61,0
39.00,86.79,0
52.00,81.77,0
58.00,76.92,0
61.00,72.58,0
86.00,69.08,0
102.00,66.91,0
76.00,66.07,0
117.00,66.31,0
127.00,67.92,0
136.00,71.11,0
145.00,75.67,0
137.00,81.28,0
127.00,87.37,0
124.00,93.35,0
145.00,99.11,0
122.00,104.64,0
136.00,109.72,0
94.00,113.99,0
127.00,117.19,0
108.00,119.52,0
132.00,121.26,0
104.00,122.51,0
87.00,122.94,0
90.00,122.25,0
66.00,120.43,0
52.00,117.35,0
57.00,113.00,0
66.00,107.87,0
41.00,102.32,0
48.00,96.34,0
36.00,90.05,0
35.00,83.58,0
36.00,77.08,0
72.00,71.07,0
46.00,66.02,0
73.00,61.96,0
91.00,59.18,0
98.00,58.04,0
80.00,58.28,0
100.00,59.52,0
126.00,61.84,0
134.00,65.56,0
120.00,70.46,0
127.00,76.01,0
114.00,81.75,0
118.00,87.31,0
134.00,92.64,0
128.00,97.88,0
97.00,102.65,0
120.00,106.54,0
115.00,109.70,0
62.00,111.88,0
94.00,112.60,0
104.00,112.35,0
84.00,111.63,0
67.00,110.20,0
91.00,108.01,0
49.00,105.24,0
43.00,101.57,0
42.00,96.90,0
35.00,91.45,0
39.00,85.53,0
39.00,79.46,0
55.00,73.64,0
51.00,68.43,0
106.00,64.38,0
66.00,61.90,0
99.00,60.76,0
77.00,60.70,0
117.00,61.72,0
141.00,64.22,0
113.00,68.22,0
109.00,72.93,0
116.00,77.81,0
145.00,82.96,0
120.00,88.49,0
126.00,94.00,0
111.00,99.07,0
114.00,103.46,0
59.00,106.67,0
103.00,108.36,0
105.00,109.11,0
89.00,109.41,0
68.00,108.92,0
60.00,107.27,0
62.00,104.55,0
58.00,101.03,0
51.00,96.90,0
76.00,92.51,0
37.00,88.11,0
37.00,83.41,0
49.00,78.40,0
66.00,73.67,0
44.00,69.50,0
54.00,65.75,0
82.00,62.66,0
66.00,60.58,0
127.00,59.83,0
87.00,60.64,0
144.00,62.94,0
133.00,66.82,0
120.00,71.98,0
101.00,77.43,0
156.00,82.97,0
127.00,88.93,0
139.00,95.06,0
115.00,100.87,0
127.00,106.06,0
78.00,110.18,0
104.00,112.87,0
99.00,114.36,0
99.00,115.02,0
66.00,114.73,0
65.00,113.16,0
47.00,110.22,0
52.00,106.07,0
71.00,101.26,0
39.00,96.19,0
49.00,90.77,0
35.00,85.08,0
39.00,79.24,0
48.00,73.51,0
44.00,68.20,0
48.00,63.44,0
84.00,59.57,0
88.00,57.17,0
109.00,56.52,0
73.00,57.32,0
130.00,59.22,0
86.00,62.16,0
118.00,65.83,0
130.00,70.18,0
115.00,75.24,0
142.00,80.75,0
108.00,86.46,0
113.00,91.84,0
133.00,96.75,0
116.00,101.37,0
110.00,105.47,0
93.00,108.63,0
85.00,110.59,0
70.00,111.17,0
66.00,110.34,0
76.00,108.37,0
70.00,105.67,0
44.00,102.28,0
40.00,97.96,0
62.00,92.96,0
40.00,87.76,0
43.00,82.44,0
40.00,77.05,0
43.00,71.77,0
63.00,66.95,0
75.00,63.09,0
66.00,60.38,0
103.00,58.88,0
94.00,58.80,0
123.00,60.23,0
109.00,63.05,0
101.00,66.75,0
70.00,70.51,0
130.00,74.11,0
105.00,77.99,0
120.00,82.17,0
116.00,86.43,0
117.00,90.68,0
91.00,94.56,0
114.00,97.80,0
75.00,100.28,0
68.00,101.59,0
109.00,101.88,0
83.00,101.78,0
78.00,101.26,0
72.00,100.07,0
65.00,98.23,0
50.00,95.67,0
50.00,92.33,0
50.00,88.41,0
39.00,84.07,0
34.00,79.33,0
39.00,74.32,0
40.00,69.31,0
65.00,64.73,0
57.00,60.99,0
90.00,58.35,0
92.00,57.13,0
96.00,57.39,0
86.00,58.75,0
113.00,60.99,0
113.00,64.19,0
167.00,68.69,0
107.00,74.42,0
137.00,80.60,0
92.00,86.54,0
141.00,92.00,0
116.00,97.17,0
132.00,102.06,0
79.00,106.20,0
130.00,109.30,0
92.00,111.61,0
83.00,112.94,0
59.00,112.84,0
98.00,111.49,0
61.00,109.38,0
86.00,106.69,0
45.00,103.42,0
40.00,99.28,0
40.00,94.22,0
36.00,88.54,0
40.00,82.54,0
37.00,76.51,0
52.00,70.78,0
45.00,65.61,0
106.00,61.57,0
90.00,59.33,0
99.00,58.84,0
105.00,59.77,0
117.00,62.00,0
97.00,65.25,0
121.00,69.14,0
109.00,73.51,0
130.00,78.29,0
144.00,83.57,0
132.00,89.38,0
109.00,95.11,0
129.00,100.28,0
91.00,104.68,0
149.00,108.36,0
97.00,111.60,0
121.00,114.21,0
87.00,115.93,0
67.00,116.39,0
61.00,115.24,0
92.00,112.88,0
45.00,109.74,0
92.00,106.00,0
47.00,101.93,0
143.00,98.19,0
39.00,95.18,0
43.00,91.92,0
37.00,87.75,0
35.00,82.94,0
55.00,77.89,0
60.00,73.17,0
92.00,69.37,0
80.00,66.87,0
96.00,65.63,0
100.00,65.61,0
128.00,66.93,0
116.00,69.61,0
127.00,73.37,0
119.00,77.84,0
128.00,82.73,0
121.00,87.80,0
152.00,93.06,0
113.00,98.43,0
127.00,103.43,0
93.00,107.62,0
122.00,110.83,0
72.00,112.98,0
104.00,113.95,0
70.00,113.82,0
97.00,112.77,0
88.00,111.16,0
72.00,109.11,0
50.00,106.27,0
51.00,102.44,0
55.00,97.86,0
49.00,92.90,0
38.00,87.62,0
42.00,82.09,0
39.00,76.50,0
39.00,71.03,0
85.00,66.19,0
58.00,62.53,0
92.00,60.11,0
91.00,59.04,0
123.00,59.54,0
101.00,61.56,0
120.00,64.74,0
127.00,68.88,0
138.00,73.97,0
99.00,79.53,0
145.00,85.11,0
127.00,90.80,0
154.00,96.70,0
118.00,102.55,0
153.00,108.09,0
92.00,113.00,0
134.00,116.89,0
73.00,119.55,0
109.00,120.83,0
79.00,120.88,0
114.00,120.05,0
74.00,118.61,0
64.00,116.27,0
80.00,112.96,0
59.00,109.06,0
36.00,104.42,0
48.00,98.91,0
38.00,92.85,0
46.00,86.58,0
85.00,80.74,0
47.00,75.80,0
68.00,71.59,0
66.00,68.08,0
106.00,65.68,0
73.00,64.59,0
124.00,64.74,0
94.00,66.15,0
99.00,68.42,0
111.00,71.22,0
140.00,74.81,0
135.00,79.43,0
156.00,85.00,0
134.00,91.24,0
147.00,97.69,0
116.00,103.86,0
131.00,109.33,0
88.00,113.72,0
106.00,116.71,0
60.00,118.09,0
127.00,118.15,0
73.00,117.48,0
76.00,115.96,0
54.00,113.28,0
42.00,109.34,0
49.00,104.28,0
52.00,98.58,0
39.00,92.58,0
38.00,86.34,0
39.00,80.01,0
71.00,74.11,0
87.00,69.39,0
83.00,66.22,0
90.00,64.46,0
77.00,63.81,0
108.00,64.11,0
110.00,65.56,0
128.00,68.25,0
119.00,72.03,0
128.00,76.62,0
127.00,81.71,0
151.00,87.29,0
137.00,93.32,0
142.00,99.50,0
55.00,104.84,0
94.00,108.27,0
115.00,110.25,0
137.00,111.92,0
76.00,113.33,0
124.00,114.07,0
77.00,114.17,0
83.00,113.46,0
48.00,111.56,0
75.00,108.54,0
48.00,104.69,0
59.00,100.20,0
35.00,95.15,0
39.00,89.57,0
46.00,83.68,0
71.00,78.11,0
39.00,73.17,0
40.00,68.57,0
75.00,64.41,0
75.00,61.31,0
78.00,59.43,0
79.00,58.60,0
114.00,58.93,0
112.00,60.69,0
130.00,63.88,0
130.00,68.36,0
78.00,73.40,0
137.00,78.29,0
146.00,83.54,0
103.00,89.17,0
138.00,94.54,0
118.00,99.60,0
106.00,104.12,0
113.00,107.78,0
102.00,110.58,0
87.00,112.40,0
108.00,113.23,0
80.00,113.29,0
98.00,112.61,0
78.00,111.30,0
74.00,109.33,0
57.00,106.56,0
49.00,102.90,0
47.00,98.37,0
50.00,93.28,0
42.00,87.89,0
36.00,82.30,0
70.00,76.86,0
46.00,72.01,0
50.00,67.70,0
74.00,64.00,0
86.00,61.43,0
100.00,60.31,0
121.00,60.82,0
108.00,62.93,0
112.00,66.16,0
106.00,70.06,0
147.00,74.59,0
96.00,79.67,0
122.00,84.70,0
135.00,89.65,0
141.00,94.85,0
108.00,100.00,0
138.00,104.70,0
95.00,108.77,0
128.00,112.03,0
76.00,114.34,0
101.00,115.47,0
101.00,115.62,0
88.00,115.15,0
42.00,113.63,0
86.00,110.82,0
54.00,107.24,0
53.00,103.03,0
46.00,98.13,0
53.00,92.79,0
34.00,87.21,0
35.00,81.39,0
75.00,75.74,0
42.00,70.83,0
38.00,66.37,0
76.00,62.40,0
70.00,59.48,0
85.00,57.78,0
112.00,57.50,0
86.00,58.67,0
142.00,61.14,0
107.00,64.94,0
154.00,69.90,0
104.00,75.63,0
85.00,81.17,0
128.00,86.03,0
169.00,91.10,0
92.00,96.55,0
128.00,101.47,0
89.00,105.47,0
104.00,108.41,0
100.00,110.34,0
66.00,111.20,0
62.00,110.60,0
89.00,108.80,0
49.00,106.23,0
52.00,102.71,0
47.00,98.31,0
82.00,93.61,0
34.00,88.95,0
54.00,84.16,0
46.00,79.31,0
56.00,74.65,0
94.00,70.73,0
85.00,68.13,0
69.00,66.65,0
79.00,65.82,0
85.00,65.59,0
112.00,66.23,0
137.00,68.25,0
104.00,71.58,0
127.00,75.66,0
96.00,80.02,0
124.00,84.34,0
84.00,88.38,0
140.00,92.10,0
112.00,95.82,0
131.00,99.56,0
95.00,103.00,0
104.00,105.71,0
70.00,107.35,0
96.00,107.88,0
123.00,107.88,0
94.00,107.92,0
59.00,107.44,0
62.00,105.81,0
52.00,103.00,0
51.00,99.26,0
35.00,94.69,0
75.00,89.71,0
34.00,84.77,0
36.00,79.69,0
49.00,74.48,0
65.00,69.71,0
46.00,65.63,0
86.00,62.38,0
90.00,60.39,0
116.00,60.05,0
121.00,61.47,0
122.00,64.47,0
103.00,68.51,0
94.00,72.80,0
114.00,77.00,0
125.00,81.35,0
162.00,86.33,0
109.00,91.85,0
141.00,97.31,0
134.00,102.58,0
122.00,107.59,0
91.00,111.71,0
142.00,114.83,0
63.00,117.02,0
88.00,117.75,0
60.00,116.89,0
82.00,114.75,0
62.00,111.69,0
64.00,107.91,0
42.00,103.36,0
43.00,98.07,0
42.00,92.21,0
36.00,86.07,0
40.00,79.83,0
43.00,73.76,0
38.00,68.07,0
63.00,63.01,0
124.00,59.45,0
70.00,57.93,0
96.00,57.82,0
112.00,58.95,0
123.00,61.51,0
108.00,65.29,0
132.00,69.91,0
138.00,75.33,0
134.00,81.45,0
128.00,87.83,0
114.00,93.95,0
107.00,99.32,0
142.00,104.01,0
98.00,108.17,0
103.00,111.40,0
90.00,113.42,0
103.00,114.39,0
42.00,114.14,0
85.00,112.42,0
49.00,109.52,0
63.00,105.73,0
44.00,101.18,0
60.00,96.10,0
38.00,90.74,0
37.00,85.10,0
91.00,79.69,0
73.00,75.35,0
37.00,71.83,0
61.00,68.49,0
84.00,65.71,0
82.00,63.99,0
92.00,63.38,0
86.00,63.73,0
187.00,65.63,0
116.00,69.65,0
98.00,74.68,0
109.00,79.51,0
127.00,84.21,0
142.00,89.17,0
134.00,94.50,0
98.00,99.63,0
134.00,104.07,0
107.00,107.91,0
133.00,111.24,0
40.00,113.51,0
101.00,114.08,0
92.00,113.50,0
77.00,112.29,0
84.00,110.39,0
64.00,107.86,0
81.00,104.78,0
44.00,101.20,0
56.00,97.01,0
36.00,92.18,0
48.00,86.91,0
43.00,81.49,0
34.00,76.07,0
65.00,70.89,0
106.00,66.84,0
87.00,64.56,0
65.00,63.55,0
66.00,63.02,0
125.00,63.19,0
114.00,64.78,0
117.00,67.75,0
142.00,71.79,0
111.00,76.72,0
133.00,82.03,0
108.00,87.37,0
141.00,92.59,0
126.00,97.76,0
129.00,102.78,0
113.00,107.30,0
105.00,110.99,0
59.00,113.29,0
90.00,113.87,0
83.00,113.21,0
97.00,111.86,0
152.00,110.69,0
88.00,110.18,0
44.00,109.23,0
77.00,106.97,0
37.00,103.66,0
65.00,99.50,0
44.00,94.77,0
39.00,89.64,0
88.00,84.51,0
68.00,80.16,0
77.00,76.70,0
95.00,74.14,0
75.00,72.58,0
75.00,71.63,0
182.00,71.92,0
104.00,74.24,0
109.00,77.65,0
103.00,81.20,0
94.00,84.60,0
130.00,87.86,0
135.00,91.49,0
105.00,95.39,0
127.00,99.10,0
80.00,102.27,0
78.00,104.32,0
109.00,105.29,0
86.00,105.70,0
84.00,105.53,0
92.00,104.77,0
62.00,103.46,0
87.00,101.55,0
72.00,99.28,0
103.00,97.03,0
62.00,94.93,0
57.00,92.54,0
68.00,89.68,0
42.00,86.50,0
38.00,82.80,0
48.00,78.62,0
52.00,74.37,0
43.00,70.30,0
109.00,66.92,0
50.00,64.71,0
94.00,63.39,0
84.00,62.97,0
61.00,63.23,0
98.00,63.86,0
51.00,64.77,0
117.00,65.94,0
117.00,67.98,0
115.00,71.13,0
117.00,74.99,0
173.00,79.77,0
104.00,85.45,0
132.00,91.18,0
82.00,96.23,0
97.00,100.14,0
78.00,102.72,0
95.00,104.15,0
77.00,104.65,0
83.00,104.32,0
44.00,102.99,0
54.00,100.42,0
43.00,96.77,0
52.00,92.37,0
67.00,87.73,0
41.00,83.18,0
38.00,78.52,0
44.00,73.70,0
60.00,69.14,0
42.00,65.08,0
89.00,61.78,0
67.00,59.59,0
81.00,58.46,0
117.00,58.53,0
119.00,60.23,0
90.00,63.23,0
122.00,66.90,0
109.00,71.14,0
110.00,75.73,0
97.00,80.24,0
121.00,84.53,0
122.00,88.81,0
188.00,93.69,0
99.00,99.24,0
112.00,104.29,0
65.00,107.89,0
102.00,109.89,0
86.00,110.71,0
85.00,110.63,0
62.00,109.56,0
59.00,107.34,0
42.00,103.92,0
51.00,99.50,0
46.00,94.43,0
74.00,89.24,0
38.00,84.26,0
49.00,79.35,0
62.00,74.62,0
51.00,70.42,0
43.00,66.60,0
56.00,63.10,0
45.00,60.00,0
71.00,57.46,0
120.00,56.18,0
95.00,56.69,0
190.00,59.36,0
93.00,64.11,0
119.00,69.69,0
102.00,75.20,0
136.00,80.70,0
104.00,86.16,0
132.00,91.39,0
95.00,96.17,0
101.00,100.11,0
148.00,103.48,0
140.00,107.07,0
109.00,110.69,0
97.00,113.55,0
70.00,115.06,0
94.00,115.13,0
80.00,114.16,0
53.00,112.18,0
44.00,108.87,0
34.00,104.16,0
39.00,98.40,0
36.00,91.99,0
49.00,85.40,0
35.00,78.95,0
50.00,72.84,0
58.00,67.38,0
114.00,63.30,0
80.00,61.15,0
87.00,60.46,0
89.00,60.79,0
92.00,61.98,0
123.00,64.11,0
101.00,67.27,0
119.00,71.11,0
125.00,75.50,0
102.00,80.23,0
124.00,84.92,0
118.00,89.54,0
122.00,94.08,0
71.00,98.00,0
109.00,100.81,0
129.00,103.07,0
99.00,105.23,0
83.00,106.78,0
87.00,107.33,0
52.00,106.74,0
50.00,104.77,0
47.00,101.45,0
39.00,97.06,0
41.00,91.88,0
41.00,86.24,0
36.00,80.41,0
90.00,74.99,0
61.00,70.68,0
54.00,67.27,0
50.00,64.26,0
82.00,61.81,0
101.00,60.51,0
93.00,60.62,0
95.00,61.85,0
112.00,64.01,0
137.00,67.32,0
88.00,71.53,0
119.00,75.92,0
100.00,80.28,0
113.00,84.51,0
129.00,88.69,0
127.00,93.05,0
80.00,97.11,0
110.00,100.27,0
67.00,102.40,0
127.00,103.69,0
66.00,104.44,0
65.00,104.23,0
58.00,102.71,0
66.00,100.21,0
49.00,96.97,0
81.00,93.32,0
44.00,89.57,0
37.00,85.45,0
62.00,80.99,0
36.00,76.55,0
52.00,72.18,0
64.00,68.16,0
59.00,64.83,0
59.00,62.15,0
106.00,60.40,0
86.00,60.02,0
122.00,61.08,0
106.00,63.48,0
105.00,66.83,0
96.00,70.57,0
112.00,74.45,0
104.00,78.45,0
145.00,82.73,0
127.00,87.58,0
127.00,92.70,0
94.00,97.46,0
96.00,101.25,0
99.00,103.96,0
121.00,106.02,0
79.00,107.55,0
102.00,108.30,0
80.00,108.28,0
73.00,107.45,0
55.00,105.59,0
118.00,103.16,0
56.00,100.77,0
63.00,98.05,0
69.00,94.80,0
36.00,91.15,0
41.00,86.88,0
41.00,82.05,0
51.00,77.11,0
49.00,72.40,0
75.00,68.28,0
74.00,65.14,0
90.00,63.20,0
104.00,62.61,0
102.00,63.40,0
109.00,65.33,0
125.00,68.31,0
107.00,72.18,0
124.00,76.57,0
112.00,81.24,0
144.00,86.17,0
90.00,91.12,0
135.00,95.66,0
70.00,99.51,0
118.00,102.39,0
94.00,104.49,0
109.00,106.07,0
61.00,106.84,0
109.00,106.72,0
43.00,105.77,0
73.00,103.77,0
43.00,100.72,0
64.00,96.92,0
86.00,92.95,0
48.00,89.20,0
54.00,85.36,0
37.00,81.22,0
72.00,77.04,0
42.00,73.15,0
48.00,69.47,0
88.00,66.24,0
103.00,64.30,0
82.00,63.80,0
108.00,64.41,0
85.00,65.91,0
125.00,68.19,0
117.00,71.42,0
125.00,75.51,0
102.00,79.98,0
136.00,84.59,0
91.00,89.14,0
201.00,93.94,0
106.00,99.45,0
132.00,104.86,0
157.00,109.86,0
111.00,114.63,0
66.00,118.16,0
101.00,119.77,0
59.00,119.72,0
86.00,118.26,0
66.00,115.68,0
58.00,112.20,0
50.00,107.75,0
42.00,102.48,0
35.00,96.47,0
38.00,89.95,0
36.00,83.22,0
41.00,76.60,0
68.00,70.57,0
43.00,65.47,0
78.00,61.35,0
78.00,58.50,0
160.00,57.67,0
124.00,59.46,0
115.00,63.23,0
126.00,67.97,0
118.00,73.37,0
95.00,78.82,0
129.00,83.98,0
112.00,88.97,0
128.00,93.80,0
97.00,98.21,0
98.00,101.79,0
92.00,104.31,0
105.00,105.97,0
78.00,106.87,0
74.00,106.77,0
57.00,105.49,0
64.00,103.07,0
47.00,99.73,0
57.00,95.68,0
37.00,91.04,0
52.00,86.01,0
56.00,80.96,0
73.00,76.41,0
58.00,72.57,0
75.00,69.44,0
105.00,67.34,0
55.00,66.33,0
126.00,66.18,0
82.00,67.09,0
153.00,69.23,0
109.00,72.69,0
130.00,77.06,0
127.00,81.92,0
131.00,87.18,0
98.00,92.32,0
146.00,97.08,0
89.00,101.45,0
129.00,105.16,0
85.00,108.08,0
90.00,109.92,0
95.00,110.66,0
100.00,110.71,0
88.00,110.24,0
86.00,109.23,0
69.00,107.56,0
83.00,105.29,0
59.00,102.50,0
35.00,98.95,0
42.00,94.38,0
52.00,89.20,0
36.00,83.81,0
52.00,78.40,0
71.00,73.43,0
55.00,69.29,0
104.00,66.21,0
37.00,64.17,0
103.00,62.81,0
98.00,62.53,0
106.00,63.60,0
103.00,65.71,0
122.00,68.74,0
127.00,72.69,0
131.00,77.50,0
104.00,82.67,0
114.00,87.61,0
93.00,91.98,0
166.00,96.11,0
82.00,100.26,0
115.00,103.78,0
69.00,106.16,0
113.00,107.50,0
59.00,107.88,0
95.00,107.30,0
70.00,105.94,0
39.00,103.66,0
68.00,100.26,0
39.00,96.13,0
38.00,91.33,0
34.00,85.87,0
35.00,80.04,0
47.00,74.21,0
63.00,68.91,0
62.00,64.55,0
83.00,61.34,0
87.00,59.48,0
126.00,59.28,0
109.00,60.86,0
117.00,63.90,0
108.00,67.81,0
142.00,72.47,0
110.00,77.77,0
122.00,83.23,0
124.00,88.58,0
128.00,93.83,0
100.00,98.69,0
124.00,102.86,0
85.00,106.20,0
120.00,108.65,0
77.00,110.24,0
79.00,110.72,0
69.00,109.95,0
76.00,108.13,0
60.00,105.50,0
58.00,102.11,0
65.00,98.16,0
48.00,93.85,0
53.00,89.24,0
43.00,84.42,0
61.00,79.61,0
57.00,75.15,0
58.00,71.21,0
70.00,67.86,0
83.00,65.40,0
93.00,64.08,0
105.00,64.08,0
96.00,65.25,0
120.00,67.42,0
102.00,70.45,0
127.00,74.15,0
109.00,78.35,0
132.00,82.90,0
153.00,88.00,0
139.00,93.75,0
90.00,99.32,0
137.00,104.03,0
58.00,107.67,0
114.00,109.91,0
92.00,111.10,0
138.00,111.94,0
88.00,112.64,0
86.00,112.75,0
67.00,111.81,0
54.00,109.66,0
42.00,106.18,0
46.00,101.54,0
44.00,96.11,0
38.00,90.25,0
40.00,84.12,0
44.00,78.02,0
56.00,72.33,0
61.00,67.41,0
76.00,63.54,0
104.00,61.13,0
90.00,60.35,0
106.00,61.02,0
120.00,62.98,0
95.00,66.03,0
127.00,69.77,0
108.00,74.08,0
138.00,78.88,0
135.00,84.20,0
132.00,89.92,0
122.00,95.60,0
151.00,101.11,0
106.00,106.34,0
61.00,110.30,0
109.00,112.45,0
121.00,113.66,0
76.00,114.36,0
79.00,114.00,0
52.00,112.31,0
77.00,109.45,0
38.00,105.68,0
136.00,101.71,0
40.00,98.23,0
40.00,94.46,0
46.00,89.85,0
36.00,84.76,0
39.00,79.41,0
44.00,74.02,0
49.00,68.93,0
67.00,64.52,0
82.00,61.21,0
66.00,59.14,0
66.00,57.92,0
93.00,57.49,0
133.00,58.47,0
103.00,61.12,0
122.00,64.90,0
112.00,69.44,0
135.00,74.57,0
108.00,80.06,0
139.00,85.63,0
116.00,91.19,0
130.00,96.54,0
76.00,101.15,0
119.00,104.62,0
100.00,107.23,0
117.00,109.26,0
90.00,110.70,0
101.00,111.42,0
70.00,111.27,0
74.00,110.08,0
53.00,107.77,0
62.00,104.46,0
35.00,100.24,0
58.00,95.30,0
35.00,89.92,0
37.00,84.21,0
50.00,78.41,0
46.00,72.92,0
70.00,68.09,0
77.00,64.34,0
104.00,62.11,0
87.00,61.44,0
127.00,62.26,0
124.00,64.71,0
127.00,68.58,0
95.00,73.17,0
127.00,77.92,0
94.00,82.61,0
133.00,87.16,0
90.00,91.45,0
106.00,95.15,0
86.00,98.02,0
125.00,100.30,0
46.00,101.86,0
162.00,102.82,0
53.00,103.64,0
77.00,103.68,0
68.00,102.53,0
52.00,100.47,0
48.00,97.37,0
83.00,93.71,0
37.00,89.91,0
39.00,85.65,0
51.00,80.96,0
41.00,76.23,0
55.00,71.66,0
58.00,67.54,0
86.00,64.31,0
47.00,62.02,0
108.00,60.61,0
104.00,60.58,0
110.00,62.08,0
100.00,64.68,0
121.00,68.07,0
122.00,72.24,0
134.00,77.12,0
108.00,82.41,0
136.00,87.73,0
117.00,92.98,0
124.00,97.97,0
61.00,102.06,0
149.00,105.05,0
94.00,107.60,0
95.00,109.54,0
83.00,110.43,0
95.00,110.39,0
53.00,109.41,0
58.00,107.17,0
74.00,103.93,0
69.00,100.30,0
46.00,96.36,0
34.00,91.80,0
43.00,86.59,0
37.00,81.06,0
50.00,75.56,0
46.00,70.40,0
64.00,65.85,0
74.00,62.27,0
178.00,60.70,0
110.00,62.02,0
108.00,65.15,0
109.00,68.97,0
114.00,73.25,0
104.00,77.73,0
130.00,82.30,0
130.00,87.16,0
143.00,92.38,0
120.00,97.72,0
125.00,102.75,0
101.00,107.07,0
106.00,110.39,0
101.00,112.69,0
100.00,114.08,0
82.00,114.52,0
99.00,114.06,0
109.00,113.16,0
46.00,111.73,0
44.00,108.98,0
64.00,104.93,0
54.00,100.23,0
41.00,95.10,0
35.00,89.48,0
45.00,83.52,0
58.00,77.74,0
38.00,72.42,0
75.00,67.71,0
67.00,64.00,0
83.00,61.49,0
76.00,60.10,0
135.00,60.13,0
124.00,62.07,0
127.00,65.72,0
111.00,70.37,0
126.00,75.50,0
109.00,80.82,0
125.00,86.07,0
114.00,91.12,0
102.00,95.71,0
94.00,99.44,0
127.00,102.43,0
87.00,104.91,0
84.00,106.51,0
76.00,106.93,0
73.00,106.27,0
82.00,104.77,0
66.00,102.67,0
57.00,99.92,0
43.00,96.35,0
36.00,91.91,0
40.00,86.78,0
53.00,81.40,0
39.00,76.16,0
57.00,71.21,0
46.00,66.74,0
85.00,63.07,0
103.00,60.83,0
93.00,60.29,0
103.00,61.12,0
117.00,63.16,0
124.00,66.43,0
135.00,70.85,0
112.00,76.06,0
107.00,81.34,0
127.00,86.41,0
122.00,91.42,0
93.00,96.03,0
115.00,99.86,0
98.00,102.94,0
127.00,105.50,0
91.00,107.62,0
83.00,108.91,0
61.00,108.92,0
69.00,107.58,0
53.00,105.09,0
80.00,101.84,0
74.00,98.37,0
50.00,94.78,0
51.00,90.78,0
48.00,86.39,0
38.00,81.73,0
38.00,76.83,0
57.00,71.98,0
48.00,67.56,0
69.00,63.81,0
75.00,61.00,0
89.00,59.41,0
87.00,59.04,0
115.00,59.93,0
134.00,62.36,0
124.00,66.32,0
126.00,71.32,0
127.00,76.92,0
123.00,82.81,0
133.00,88.72,0
109.00,94.39,0
164.00,99.84,0
126.00,105.33,0
129.00,110.53,0
84.00,114.69,0
114.00,117.44,0
69.00,118.79,0
124.00,119.01,0
84.00,118.56,0
72.00,117.29,0
68.00,114.91,0
67.00,111.57,0
40.00,107.33,0
39.00,102.10,0
38.00,96.03,0
46.00,89.56,0
40.00,83.09,0
34.00,76.76,0
68.00,70.86,0
78.00,66.07,0
158.00,63.42,0
57.00,63.03,0
72.00,63.50,0
86.00,64.13,0
100.00,65.33,0
94.00,67.23,0
125.00,69.86,0
83.00,73.08,0
127.00,76.55,0
133.00,80.54,0
162.00,85.51,0
116.00,91.19,0
219.00,97.56,0
125.00,104.79,0
115.00,111.65,0
93.00,116.87,0
124.00,120.47,0
67.00,122.61,0
92.00,123.06,0
62.00,121.91,0
68.00,119.33,0
75.00,115.66,0
41.00,111.17,0
115.00,106.32,0
51.00,101.78,0
36.00,97.03,0
37.00,91.53,0
65.00,85.76,0
64.00,80.44,0
87.00,76.06,0
81.00,72.85,0
88.00,70.79,0
52.00,69.44,0
110.00,68.61,0
123.00,69.00,0
147.00,71.17,0
109.00,74.80,0
124.00,79.16,0
118.00,83.77,0
134.00,88.59,0
105.00,93.39,0
130.00,97.86,0
107.00,101.93,0
110.00,105.41,0
93.00,108.04,0
90.00,109.65,0
60.00,110.00,0
84.00,109.07,0
72.00,107.22,0
48.00,104.56,0
36.00,100.77,0
61.00,96.06,0
59.00,91.09,0
53.00,86.23,0
36.00,81.34,0
35.00,76.26,0
42.00,71.10,0
56.00,66.28,0
140.00,62.85,0
60.00,61.43,0
75.00,61.09,0
97.00,61.35,0
65.00,62.29,0
85.00,63.52,0
110.00,65.20,0
106.00,67.71,0
138.00,71.20,0
125.00,75.70,0
133.00,80.93,0
103.00,86.32,0
135.00,91.48,0
94.00,96.23,0
103.00,100.18,0
84.00,103.04,0
127.00,105.10,0
76.00,106.60,0
94.00,107.30,0
79.00,107.12,0
90.00,106.26,0
63.00,104.75,0
59.00,102.42,0
56.00,99.21,0
60.00,95.39,0
36.00,91.08,0
58.00,86.37,0
54.00,81.63,0
34.00,76.97,0
43.00,72.26,0
56.00,67.74,0
88.00,64.08,0
60.00,61.59,0
94.00,60.15,0
90.00,59.88,0
129.00,61.01,0
115.00,63.70,0
127.00,67.68,0
117.00,72.48,0
166.00,78.09,0
125.00,84.52,0
147.00,91.27,0
125.00,97.87,0
122.00,103.94,0
95.00,108.94,0
108.00,112.62,0
91.00,115.02,0
105.00,116.30,0
80.00,116.57,0
88.00,115.85,0
71.00,114.17,0
64.00,111.55,0
80.00,108.16,0
42.00,104.22,0
39.00,99.45,0
44.00,93.88,0
34.00,87.88,0
36.00,81.62,0
53.00,75.49,0
58.00,69.98,0
78.00,65.53,0
81.00,62.42,0
84.00,60.68,0
123.00,60.44,0
153.00,62.29,0
138.00,66.34,0
144.00,71.98,0
135.00,78.55,0
128.00,85.44,0
118.00,92.05,0
167.00,98.43,0
110.00,104.67,0
123.00,110.17,0
94.00,114.41,0
230.00,118.33,0
116.00,122.93,0
70.00,126.75,0
65.00,128.12,0
81.00,127.26,0
68.00,124.82,0
72.00,121.22,0
38.00,116.53,0
41.00,110.70,0
39.00,103.91,0
51.00,96.72,0
35.00,89.52,0
97.00,82.89,0
42.00,77.35,0
83.00,72.77,0
93.00,69.36,0
75.00,67.33,0
81.00,66.24,0
82.00,65.86,0
98.00,66.22,0
101.00,67.45,0
201.00,70.26,0
116.00,75.19,0
140.00,81.22,0
105.00,87.25,0
127.00,92.89,0
116.00,98.03,0
164.00,103.02,0
107.00,107.96,0
124.00,112.29,0
92.00,115.56,0
106.00,117.65,0
99.00,118.67,0
100.00,118.87,0
107.00,118.45,0
77.00,117.45,0
69.00,115.53,0
74.00,112.67,0
65.00,109.09,0
56.00,104.93,0
52.00,100.17,0
42.00,94.90,0
40.00,89.21,0
41.00,83.29,0
39.00,77.35,0
44.00,71.63,0
65.00,66.50,0
74.00,62.46,0
109.00,59.98,0
95.00,59.29,0
82.00,59.95,0
77.00,61.27,0
43.00,62.54,0
112.00,63.72,0
120.00,65.70,0
97.00,68.74,0
137.00,72.50,0
119.00,77.01,0
144.00,82.17,0
107.00,87.63,0
175.00,93.29,0
46.00,98.66,0
104.00,102.52,0
61.00,104.66,0
109.00,105.58,0
70.00,105.68,0
85.00,105.01,0
74.00,103.64,0
51.00,101.53,0
45.00,98.39,0
64.00,94.46,0
45.00,90.15,0
45.00,85.55,0
42.00,80.68,0
38.00,75.70,0
48.00,70.78,0
60.00,66.31,0
53.00,62.54,0
61.00,59.49,0
67.00,57.20,0
87.00,55.90,0
75.00,55.69,0
83.00,56.33,0
124.00,57.98,0
97.00,60.86,0
127.00,64.70,0
81.00,69.07,0
151.00,73.74,0
114.00,78.96,0
155.00,84.73,0
166.00,91.21,0
98.00,97.96,0
94.00,103.61,0
133.00,107.95,0
118.00,111.63,0
91.00,114.53,0
68.00,115.98,0
50.00,115.53,0
71.00,113.32,0
62.00,110.01,0
35.00,105.74,0
54.00,100.53,0
35.00,94.71,0
37.00,88.46,0
45.00,82.05,0
50.00,75.94,0
69.00,70.55,0
54.00,66.13,0
85.00,62.75,0
100.00,60.78,0
95.00,60.43,0
101.00,61.38,0
124.00,63.56,0
110.00,66.94,0
122.00,71.15,0
131.00,76.02,0
130.00,81.47,0
118.00,87.12,0
135.00,92.68,0
80.00,97.70,0
101.00,101.57,0
76.00,104.11,0
101.00,105.52,0
91.00,106.14,0
113.00,106.38,0
94.00,106.45,0
79.00,106.11,0
61.00,104.94,0
156.00,103.53,0
69.00,102.69,0
61.00,101.59,0
45.00,99.34,0
36.00,95.88,0
38.00,91.33,0
55.00,86.22,0
53.00,81.16,0
71.00,76.55,0
79.00,72.78,0
99.00,70.22,0
117.00,69.20,0
102.00,69.75,0
102.00,71.35,0
87.00,73.47,0
111.00,75.84,0
110.00,78.60,0
134.00,81.93,0
123.00,85.92,0
151.00,90.49,0
119.00,95.46,0
127.00,100.34,0
98.00,104.63,0
133.00,108.19,0
92.00,111.10,0
121.00,113.25,0
72.00,114.49,0
75.00,114.47,0
79.00,113.15,0
57.00,110.80,0
64.00,107.48,0
52.00,103.35,0
50.00,98.62,0
47.00,93.39,0
38.00,87.84,0
40.00,82.07,0
43.00,76.29,0
40.00,70.74,0
61.00,65.71,0
91.00,61.82,0
101.00,59.64,0
83.00,59.11,0
82.00,59.63,0
99.00,60.92,0
195.00,63.81,0
103.00,68.80,0
132.00,74.73,0
108.00,80.69,0
126.00,86.47,0
97.00,91.79,0
128.00,96.49,0
116.00,100.75,0
133.00,104.73,0
87.00,108.17,0
75.00,110.37,0
90.00,111.08,0
85.00,110.75,0
72.00,109.57,0
80.00,107.62,0
39.00,104.82,0
85.00,101.22,0
44.00,97.24,0
44.00,92.79,0
44.00,87.78,0
41.00,82.51,0
83.00,77.50,0
38.00,73.16,0
51.00,69.17,0
66.00,65.56,0
101.00,62.99,0
79.00,61.83,0
103.00,61.88,0
81.00,62.89,0
106.00,64.65,0
120.00,67.28,0
151.00,71.17,0
112.00,76.19,0
112.00,81.52,0
54.00,86.09,0
181.00,90.04,0
117.00,94.48,0
124.00,99.19,0
78.00,103.15,0
124.00,106.07,0
78.00,108.12,0
111.00,109.34,0
65.00,109.65,0
57.00,108.73,0
70.00,106.50,0
57.00,103.38,0
53.00,99.55,0
44.00,95.04,0
44.00,90.01,0
34.00,84.56,0
35.00,78.85,0
38.00,73.06,0
57.00,67.64,0
62.00,63.05,0
65.00,59.52,0
84.00,57.15,0
89.00,56.11,0
106.00,56.52,0
97.00,58.25,0
97.00,60.92,0
129.00,64.41,0
122.00,68.87,0
148.00,74.31,0
127.00,80.49,0
140.00,87.00,0
106.00,93.30,0
124.00,98.95,0
74.00,103.50,0
217.00,107.57,0
84.00,112.02,0
70.00,115.45,0
89.00,116.82,0
68.00,116.59,0
55.00,114.87,0
64.00,111.79,0
46.00,107.61,0
99.00,103.00,0
56.00,98.56,0
40.00,94.00,0
56.00,89.02,0
57.00,84.02,0
37.00,79.15,0
48.00,74.31,0
74.00,69.88,0
67.00,66.38,0
72.00,63.84,0
78.00,62.19,0
114.00,61.72,0
70.00,62.42,0
88.00,63.72,0
106.00,65.52,0
140.00,68.35,0
113.00,72.38,0
176.00,77.53,0
109.00,83.63,0
107.00,89.65,0
77.00,94.57,0
112.00,98.27,0
89.00,101.06,0
121.00,103.23,0
58.00,104.68,0
82.00,104.96,0
76.00,104.16,0
66.00,102.58,0
59.00,100.20,0
62.00,97.12,0
35.00,93.37,0
37.00,88.83,0
42.00,83.68,0
57.00,78.46,0
55.00,73.64,0
51.00,69.35,0
43.00,65.44,0
78.00,62.09,0
85.00,59.83,0
74.00,58.80,0
92.00,58.76,0
96.00,59.72,0
117.00,61.81,0
82.00,64.76,0
128.00,68.24,0
118.00,72.41,0
164.00,77.54,0
192.00,84.17,0
138.00,92.08,0
95.00,99.70,0
127.00,105.96,0
103.00,110.95,0
139.00,114.97,0
70.00,117.94,0
77.00,119.25,0
73.00,118.77,0
64.00,116.86,0
57.00,113.69,0
152.00,110.24,0
43.00,107.31,0
64.00,104.03,0
49.00,99.92,0
38.00,95.14,0
44.00,89.74,0
60.00,84.21,0
58.00,79.06,0
51.00,74.40,0
82.00,70.41,0
80.00,67.49,0
84.00,65.74,0
97.00,65.09,0
111.00,65.67,0
121.00,67.58,0
112.00,70.66,0
119.00,74.50,0
151.00,79.09,0
123.00,84.45,0
140.00,90.19,0
109.00,95.79,0
121.00,100.84,0
71.00,104.83,0
140.00,107.73,0
83.00,109.97,0
100.00,111.39,0
82.00,111.79,0
80.00,111.26,0
78.00,109.83,0
67.00,107.62,0
61.00,104.63,0
52.00,100.89,0
44.00,96.44,0
41.00,91.36,0
42.00,85.87,0
102.00,80.73,0
44.00,76.56,0
45.00,72.80,0
74.00,69.25,0
67.00,66.42,0
89.00,64.52,0
92.00,63.73,0
105.00,64.14,0
113.00,65.77,0
50.00,67.98,0
94.00,69.96,0
112.00,72.04,0
107.00,74.75,0
122.00,78.04,0
112.00,81.79,0
127.00,85.85,0
102.00,89.96,0
139.00,94.01,0
100.00,97.94,0
100.00,101.32,0
70.00,103.60,0
80.00,104.53,0
82.00,104.36,0
81.00,103.46,0
58.00,101.84,0
63.00,99.38,0
54.00,96.19,0
49.00,92.41,0
36.00,88.02,0
37.00,83.08,0
38.00,77.81,0
42.00,72.50,0
73.00,67.68,0
84.00,64.02,0
120.00,62.12,0
78.00,61.94,0
82.00,62.71,0
59.00,63.72,0
106.00,64.91,0
104.00,66.77,0
132.00,69.67,0
114.00,73.56,0
132.00,78.16,0
105.00,83.07,0
96.00,87.67,0
96.00,91.51,0
116.00,94.75,0
73.00,97.39,0
108.00,99.23,0
89.00,100.47,0
96.00,101.25,0
47.00,101.19,0
58.00,99.85,0
54.00,97.31,0
55.00,93.98,0
93.00,90.45,0
33.00,87.05,0
37.00,83.20,0
37.00,78.70,0
41.00,73.94,0
51.00,69.28,0
76.00,65.26,0
80.00,62.37,0
89.00,60.80,0
81.00,60.42,0
121.00,61.20,0
104.00,63.30,0
127.00,66.60,0
110.00,70.76,0
126.00,75.51,0
121.00,80.63,0
136.00,86.01,0
98.00,91.31,0
108.00,95.95,0
82.00,99.59,0
116.00,102.26,0
66.00,104.04,0
113.00,104.94,0
81.00,105.23,0
101.00,105.07,0
55.00,104.26,0
49.00,102.33,0
48.00,99.15,0
48.00,95.03,0
43.00,90.32,0
68.00,85.41,0
35.00,80.62,0
43.00,75.81,0
51.00,71.07,0
49.00,66.72,0
91.00,63.19,0
77.00,60.97,0
95.00,60.09,0
82.00,60.32,0
106.00,61.52,0
89.00,63.55,0
120.00,66.35,0
100.00,69.83,0
227.00,74.69,0
111.00,81.37,0
110.00,88.39,0
109.00,94.44,0
137.00,99.76,0
101.00,104.50,0
120.00,108.44,0
85.00,111.37,0
94.00,113.08,0
93.00,113.66,0
82.00,113.34,0
52.00,111.87,0
109.00,109.51,0
67.00,106.88,0
46.00,103.72,0
44.00,99.57,0
44.00,94.58,0
38.00,89.05,0
37.00,83.20,0
49.00,77.33,0
50.00,71.83,0
71.00,67.10,0
76.00,63.51,0
122.00,61.54,0
75.00,61.30,0
122.00,62.36,0
107.00,64.63,0
132.00,68.12,0
83.00,72.27,0
129.00,76.56,0
107.00,81.01,0
118.00,85.53,0
117.00,89.96,0
126.00,94.29,0
65.00,98.06,0
98.00,100.59,0
83.00,102.02,0
70.00,102.49,0
57.00,101.76,0
66.00,99.89,0
53.00,97.17,0
39.00,93.61,0
34.00,89.18,0
52.00,84.19,0
38.00,79.05,0
46.00,73.97,0
69.00,69.31,0
69.00,65.57,0
68.00,62.84,0
68.00,60.94,0
92.00,59.92,0
98.00,60.05,0
123.00,61.58,0
105.00,64.41,0
118.00,68.15,0
98.00,72.38,0
126.00,76.84,0
114.00,81.52,0
145.00,86.51,0
116.00,91.73,0
127.00,96.84,0
102.00,101.41,0
121.00,105.27,0
91.00,108.32,0
135.00,110.67,0
69.00,112.35,0
84.00,112.87,0
67.00,112.05,0
65.00,110.06,0
49.00,106.94,0
69.00,102.93,0
62.00,98.54,0
47.00,93.93,0
42.00,88.95,0
37.00,83.61,0
42.00,78.09,0
48.00,72.72,0
85.00,68.07,0
76.00,64.72,0
95.00,62.80,0
82.00,62.15,0
95.00,62.53,0
101.00,63.83,0
135.00,66.28,0
100.00,69.84,0
134.00,74.12,0
115.00,78.93,0
148.00,84.20,0
107.00,89.69,0
128.00,94.97,0
78.00,99.49,0
110.00,102.89,0
106.00,105.40,0
95.00,107.27,0
65.00,108.13,0
100.00,107.90,0
80.00,107.00,0
73.00,105.54,0
48.00,103.19,0
63.00,99.92,0
46.00,95.96,0
40.00,91.38,0
38.00,86.23,0
36.00,80.72,0
40.00,75.10,0
48.00,69.71,0
74.00,65.04,0
62.00,61.47,0
85.00,59.07,0
76.00,57.84,0
100.00,57.77,0
100.00,58.91,0
118.00,61.29,0
88.00,64.59,0
122.00,68.39,0
118.00,72.74,0
134.00,77.73,0
119.00,83.11,0
110.00,88.44,0
90.00,93.12,0
107.00,96.87,0
88.00,99.76,0
101.00,101.83,0
82.00,103.10,0
85.00,103.57,0
82.00,103.25,0
70.00,102.23,0
66.00,100.46,0
73.00,98.06,0
50.00,95.15,0
36.00,91.52,0
36.00,87.04,0
31.00,81.86,0
49.00,76.44,0
51.00,71.28,0
52.00,66.68,0
56.00,62.73,0
99.00,59.82,0
91.00,58.48,0
116.00,58.80,0
65.00,60.31,0
105.00,62.37,0
88.00,64.88,0
122.00,67.96,0
104.00,71.67,0
130.00,75.92,0
119.00,80.65,0
123.00,85.63,0
75.00,90.22,0
114.00,93.92,0
58.00,96.62,0
108.00,98.26,0
98.00,99.33,0
92.00,100.13,0
57.00,100.23,0
67.00,99.24,0
42.00,97.13,0
42.00,93.90,0
35.00,89.67,0
66.00,84.96,0
39.00,80.27,0
35.00,75.53,0
59.00,70.83,0
45.00,66.55,0
73.00,62.94,0
46.00,60.07,0
78.00,57.92,0
85.00,56.74,0
105.00,56.89,0
88.00,58.30,0
108.00,60.66,0
92.00,63.73,0
119.00,67.36,0
127.00,71.67,0
125.00,76.67,0
105.00,81.92,0
133.00,87.09,0
106.00,92.07,0
113.00,96.60,0
71.00,100.17,0
110.00,102.59,0
91.00,104.20,0
88.00,105.12,0
69.00,105.12,0
73.00,104.12,0
44.00,102.05,0
52.00,98.86,0
55.00,94.84,0
51.00,90.41,0
39.00,85.66,0
35.00,80.56,0
56.00,75.38,0
38.00,70.47,0
84.00,66.19,0
77.00,63.10,0
91.00,61.37,0
70.00,60.74,0
107.00,61.06,0
102.00,62.48,0
138.00,65.20,0
123.00,69.27,0
141.00,74.40,0
114.00,80.16,0
135.00,86.04,0
104.00,91.71,0
108.00,96.71,0
104.00,100.82,0
125.00,104.26,0
83.00,107.03,0
95.00,108.78,0
69.00,109.35,0
105.00,108.95,0
81.00,108.00,0
100.00,106.75,0
60.00,105.08,0
62.00,102.66,0
45.00,99.30,0
62.00,95.23,0
41.00,90.71,0
36.00,85.77,0
52.00,80.54,0
40.00,75.38,0
66.00,70.61,0
88.00,66.79,0
128.00,64.74,0
98.00,64.73,0
92.00,66.01,0
82.00,67.82,0
134.00,70.20,0
78.00,73.23,0
124.00,76.54,0
118.00,80.21,0
132.00,84.42,0
93.00,88.76,0
127.00,92.80,0
73.00,96.28,0
88.00,98.72,0
69.00,99.93,0
77.00,100.05,0
72.00,99.29,0
85.00,97.95,0
66.00,96.24,0
63.00,94.07,0
38.00,91.22,0
56.00,87.66,0
36.00,83.58,0
41.00,79.12,0
37.00,74.41,0
34.00,69.58,0
59.00,64.97,0
46.00,60.96,0
75.00,57.76,0
51.00,55.46,0
131.00,54.42,0
85.00,55.14,0
130.00,57.42,0
115.00,61.07,0
130.00,65.87,0
79.00,71.08,0
133.00,76.18,0
39.00,80.70,0
160.00,84.54,0
127.00,88.68,0
110.00,93.22,0
100.00,97.28,0
117.00,100.68,0
103.00,103.54,0
105.00,105.84,0
96.00,107.46,0
80.00,108.26,0
80.00,108.07,0
79.00,106.97,0
61.00,105.07,0
80.00,102.48,0
35.00,99.24,0
41.00,95.05,0
45.00,90.06,0
38.00,84.70,0
38.00,79.13,0
42.00,73.56,0
55.00,68.37,0
63.00,63.93,0
113.00,60.88,0
88.00,59.67,0
90.00,59.90,0
40.00,60.64,0
89.00,61.34,0
107.00,62.53,0
168.00,65.24,0
108.00,69.69,0
147.00,75.17,0
87.00,80.89,0
133.00,86.31,0
114.00,91.43,0
119.00,96.27,0
92.00,100.43,0
127.00,103.83,0
74.00,106.45,0
104.00,108.05,0
95.00,108.82,0
84.00,108.92,0
71.00,108.14,0
71.00,106.43,0
70.00,103.95,0
34.00,100.64,0
64.00,96.47,0
45.00,91.81,0
34.00,86.80,0
37.00,81.35,0
44.00,75.78,0
44.00,70.43,0
50.00,65.55,0
60.00,61.36,0
72.00,58.15,0
55.00,55.93,0
102.00,54.74,0
99.00,54.98,0
127.00,56.87,0
84.00,60.05,0
140.00,64.07,0
95.00,68.81,0
127.00,73.91,0
120.00,79.21,0
132.00,84.74,0
59.00,89.80,0
118.00,93.72,0
71.00,96.62,0
104.00,98.64,0
97.00,100.01,0
104.00,101.07,0
83.00,101.74,0
71.00,101.71,0
44.00,100.55,0
55.00,98.11,0
51.00,94.71,0
89.00,91.01,0
39.00,87.41,0
38.00,83.48,0
51.00,79.11,0
49.00,74.74,0
42.00,70.54,0
44.00,66.46,0
62.00,62.75,0
84.00,59.94,0
87.00,58.46,0
90.00,58.27,0
80.00,59.07,0
78.00,60.45,0
127.00,62.51,0
106.00,65.63,0
137.00,69.79,0
117.00,74.74,0
153.00,80.35,0
94.00,86.24,0
124.00,91.70,0
104.00,96.52,0
103.00,100.58,0
75.00,103.51,0
127.00,105.46,0
88.00,106.91,0
70.00,107.56,0
53.00,106.82,0
53.00,104.63,0
65.00,101.34,0
38.00,97.31,0
40.00,92.52,0
59.00,87.27,0
48.00,82.10,0
44.00,77.10,0
48.00,72.28,0
70.00,67.96,0
85.00,64.70,0
79.00,62.72,0
93.00,61.93,0
112.00,62.42,0
114.00,64.31,0
108.00,67.29,0
116.00,71.02,0
90.00,75.07,0
131.00,79.19,0
108.00,83.53,0
168.00,88.30,0
110.00,93.59,0
107.00,98.61,0
70.00,102.42,0
104.00,104.82,0
95.00,106.27,0
88.00,107.01,0
81.00,106.94,0
72.00,106.01,0
60.00,104.17,0
76.00,101.53,0
45.00,98.30,0
46.00,94.35,0
42.00,89.70,0
43.00,84.62,0
40.00,79.35,0
41.00,74.09,0
49.00,69.05,0
50.00,64.51,0
60.00,60.64,0
76.00,57.75,0
84.00,56.08,0
89.00,55.73,0
120.00,56.79,0
90.00,59.18,0
82.00,62.20,0
118.00,65.52,0
116.00,69.46,0
116.00,74.03,0
152.00,79.18,0
94.00,84.74,0
124.00,90.01,0
92.00,94.62,0
104.00,98.40,0
72.00,101.09,0
82.00,102.52,0
80.00,102.82,0
95.00,102.44,0
76.00,101.62,0
56.00,100.13,0
48.00,97.65,0
56.00,94.23,0
56.00,90.30,0
37.00,86.02,0
36.00,81.29,0
49.00,76.31,0
41.00,71.44,0
36.00,66.75,0
102.00,62.76,0
88.00,60.39,0
84.00,59.57,0
85.00,59.81,0
120.00,61.13,0
92.00,63.55,0
114.00,66.74,0
110.00,70.53,0
156.00,75.13,0
100.00,80.46,0
121.00,85.80,0
120.00,90.84,0
106.00,95.53,0
103.00,99.53,0
89.00,102.59,0
83.00,104.53,0
80.00,105.31,0
78.00,105.06,0
63.00,103.87,0
63.00,101.73,0
51.00,98.72,0
65.00,95.07,0
50.00,91.05,0
38.00,86.66,0
35.00,81.78,0
63.00,76.78,0
36.00,72.06,0
69.00,67.78,0
65.00,64.26,0
77.00,61.75,0
90.00,60.35,0
105.00,60.28,0
98.00,61.52,0
110.00,63.85,0
99.00,66.95,0
109.00,70.53,0
124.00,74.56,0
136.00,79.24,0
83.00,84.12,0
121.00,88.55,0
92.00,92.43,0
111.00,95.77,0
92.00,98.49,0
105.00,100.61,0
92.00,102.14,0
45.00,102.69,0
88.00,101.94,0
65.00,100.34,0
66.00,98.15,0
53.00,95.30,0
38.00,91.70,0
64.00,87.54,0
34.00,83.13,0
45.00,78.48,0
50.00,73.79,0
60.00,69.49,0
63.00,65.84,0
105.00,63.30,0
98.00,62.35,0
81.00,62.75,0
101.00,63.96,0
94.00,65.89,0
127.00,68.62,0
114.00,72.24,0
136.00,76.68,0
113.00,81.63,0
137.00,86.84,0
84.00,91.82,0
124.00,96.12,0
90.00,99.69,0
118.00,102.60,0
97.00,104.91,0
93.00,106.55,0
82.00,107.28,0
62.00,106.92,0
63.00,105.32,0
56.00,102.65,0
46.00,99.05,0
35.00,94.58,0
38.00,89.31,0
36.00,83.56,0
42.00,77.69,0
59.00,72.13,0
39.00,67.16,0
42.00,62.64,0
76.00,58.79,0
74.00,56.12,0
108.00,54.97,0
76.00,55.32,0
111.00,56.84,0
93.00,59.34,0
116.00,62.67,0
122.00,66.85,0
146.00,71.99,0
103.00,77.81,0
127.00,83.61,0
163.00,89.56,0
124.00,95.90,0
94.00,101.72,0
110.00,106.26,0
74.00,109.41,0
94.00,111.10,0
76.00,111.50,0
83.00,110.85,0
92.00,109.44,0
82.00,107.63,0
58.00,105.28,0
73.00,102.24,0
43.00,98.59,0
33.00,94.14,0
48.00,88.97,0
37.00,83.46,0
41.00,77.86,0
43.00,72.37,0
57.00,67.33,0
91.00,63.31,0
102.00,61.00,0
78.00,60.29,0
99.00,60.70,0
86.00,62.01,0
111.00,64.11,0
113.00,67.07,0
132.00,70.98,0
107.00,75.63,0
137.00,80.63,0
90.00,85.67,0
145.00,90.48,0
93.00,95.06,0
112.00,99.06,0
65.00,101.97,0
104.00,103.67,0
73.00,104.40,0
92.00,104.32,0
68.00,103.48,0
74.00,101.92,0
62.00,99.66,0
80.00,96.93,0
42.00,93.84,0
41.00,90.09,0
47.00,85.68,0
36.00,80.90,0
38.00,75.89,0
42.00,70.85,0
56.00,66.14,0
58.00,62.13,0
60.00,58.95,0
82.00,56.74,0
95.00,55.81,0
85.00,56.21,0
102.00,57.68,0
159.00,60.63,0
114.00,65.28,0
115.00,70.79,0
128.00,76.56,0
106.00,82.34,0
134.00,87.93,0
98.00,93.18,0
148.00,98.03,0
94.00,102.51,0
98.00,106.11,0
69.00,108.28,0
74.00,108.92,0
81.00,108.26,0
84.00,106.83,0
74.00,104.88,0
127.00,102.89,0
36.00,100.99,0
41.00,98.17,0
46.00,94.14,0
54.00,89.50,0
36.00,84.58,0
39.00,79.41,0
54.00,74.24,0
58.00,69.54,0
60.00,65.58,0
78.00,62.51,0
85.00,60.59,0
91.00,59.95,0
86.00,60.41,0
105.00,61.79,0
147.00,64.50,0
78.00,68.35,0
122.00,72.54,0
120.00,76.98,0
132.00,81.91,0
80.00,86.78,0
118.00,91.00,0
104.00,94.68,0
108.00,97.92,0
98.00,100.61,0
103.00,102.68,0
93.00,104.14,0
66.00,104.73,0
45.00,103.95,0
77.00,101.83,0
41.00,98.82,0
47.00,94.96,0
38.00,90.33,0
45.00,85.20,0
41.00,79.87,0
42.00,74.58,0
54.00,69.57,0
73.00,65.31,0
68.00,62.13,0
58.00,59.86,0
87.00,58.41,0
97.00,58.09,0
122.00,59.27,0
102.00,61.88,0
114.00,65.45,0
137.00,69.86,0
135.00,75.23,0
115.00,81.14,0
138.00,87.10,0
78.00,92.62,0
112.00,97.12,0
83.00,100.51,0
120.00,103.05,0
73.00,104.85,0
115.00,105.90,0
88.00,106.44,0
119.00,106.71,0
56.00,106.54,0
62.00,105.30,0
46.00,102.74,0
63.00,99.20,0
42.00,94.97,0
49.00,90.26,0
45.00,85.21,0
36.00,80.02,0
80.00,75.06,0
42.00,70.77,0
99.00,67.35,0
54.00,64.95,0
107.00,63.60,0
91.00,63.43,0
104.00,64.47,0
96.00,66.41,0
119.00,69.11,0
101.00,72.47,0
120.00,76.29,0
114.00,80.43,0
145.00,84.99,0
99.00,89.81,0
125.00,94.38,0
77.00,98.24,0
114.00,101.18,0
89.00,103.33,0
92.00,104.72,0
70.00,105.15,0
103.00,104.75,0
76.00,103.89,0
88.00,102.64,0
60.00,100.87,0
81.00,98.58,0
37.00,95.72,0
49.00,92.08,0
47.00,87.77,0
39.00,83.10,0
43.00,78.18,0
42.00,73.24,0
63.00,68.64,0
50.00,64.67,0
97.00,61.67,0
83.00,60.06,0
100.00,59.86,0
82.00,60.74,0
106.00,62.47,0
104.00,65.00,0
130.00,68.43,0
91.00,72.52,0
119.00,76.81,0
90.00,80.98,0
131.00,85.02,0
88.00,88.92,0
125.00,92.52,0
40.00,95.31,0
122.00,96.99,0
66.00,97.94,0
99.00,98.34,0
94.00,98.36,0
96.00,98.29,0
61.00,97.85,0
68.00,96.64,0
52.00,94.59,0
56.00,91.79,0
47.00,88.37,0
66.00,84.62,0
39.00,80.78,0
35.00,76.67,0
45.00,72.28,0
60.00,68.08,0
68.00,64.57,0
60.00,61.88,0
82.00,60.02,0
70.00,59.05,0
103.00,59.05,0
163.00,60.74,0
117.00,64.52,0
106.00,69.41,0
120.00,74.56,0
89.00,79.61,0
121.00,84.27,0
100.00,88.60,0
145.00,92.81,0
77.00,96.80,0
88.00,99.83,0
67.00,101.49,0
117.00,102.21,0
104.00,102.71,0
98.00,103.20,0
81.00,103.31,0
85.00,102.82,0
63.00,101.64,0
52.00,99.55,0
58.00,96.52,0
69.00,92.99,0
45.00,89.23,0
38.00,85.05,0
45.00,80.43,0
34.00,75.59,0
44.00,70.71,0
78.00,66.32,0
85.00,63.14,0
84.00,61.39,0
92.00,60.89,0
103.00,61.56,0
114.00,63.43,0
106.00,66.37,0
117.00,70.09,0
104.00,74.28,0
127.00,78.74,0
108.00,83.40,0
143.00,88.20,0
102.00,93.02,0
121.00,97.49,0
89.00,101.24,0
106.00,104.08,0
70.00,105.86,0
73.00,106.32,0
67.00,105.49,0
46.00,103.47,0
74.00,100.42,0
61.00,96.91,0
46.00,93.02,0
39.00,88.57,0
37.00,83.59,0
55.00,78.43,0
49.00,73.54,0
46.00,69.03,0
56.00,64.95,0
72.00,61.61,0
73.00,59.28,0
99.00,58.18,0
132.00,58.76,0
82.00,60.93,0
126.00,64.07,0
125.00,68.12,0
141.00,73.22,0
120.00,79.04,0
131.00,85.07,0
106.00,90.89,0
132.00,96.24,0
101.00,101.01,0
129.00,105.13,0
98.00,108.56,0
125.00,111.29,0
72.00,113.15,0
98.00,113.86,0
54.00,113.31,0
82.00,111.53,0
60.00,108.78,0
79.00,105.42,0
39.00,101.51,0
45.00,96.82,0
42.00,91.48,0
38.00,85.77,0
39.00,79.87,0
44.00,74.07,0
56.00,68.73,0
56.00,64.16,0
110.00,60.85,0
73.00,59.21,0
104.00,58.99,0
52.00,59.63,0
136.00,61.00,0
117.00,63.66,0
133.00,67.77,0
101.00,72.64,0
160.00,78.04,0
105.00,83.91,0
138.00,89.79,0
100.00,95.27,0
124.00,100.10,0
104.00,104.20,0
121.00,107.61,0
91.00,110.26,0
88.00,111.84,0
90.00,112.29,0
79.00,111.79,0
42.00,110.09,0
