82.00,61.82,0
75.00,63.64,0
82.00,65.52,0
79.00,67.42,0
69.00,69.18,0
68.00,70.59,0
69.00,71.59,0
66.00,72.23,0
65.00,72.52,0
45.00,72.34,0
51.00,71.50,0
33.00,69.99,0
42.00,67.84,0
36.00,65.24,0
35.00,62.32,0
38.00,59.24,0
35.00,56.15,0
44.00,53.19,0
45.00,50.58,0
47.00,48.42,0
45.00,46.70,0
45.00,45.35,0
47.00,44.33,0
57.00,43.71,0
57.00,43.60,0
72.00,44.08,0
65.00,45.19,0
72.00,46.80,0
77.00,48.85,0
71.00,51.24,0
83.00,53.86,0
66.00,56.58,0
79.00,59.21,0
54.00,61.55,0
79.00,63.48,0
56.00,65.07,0
71.00,66.30,0
53.00,67.11,0
49.00,67.37,0
38.00,66.91,0
35.00,65.68,0
34.00,63.73,0
34.00,61.27,0
36.00,58.52,0
37.00,55.66,0
44.00,52.93,0
41.00,50.47,0
55.00,48.43,0
44.00,46.89,0
55.00,45.81,0
42.00,45.10,0
59.00,44.70,0
49.00,44.65,0
64.00,44.96,0
64.00,45.71,0
76.00,46.99,0
69.00,48.76,0
78.00,50.92,0
55.00,53.20,0
79.00,55.38,0
50.00,57.38,0
74.00,59.09,0
47.00,60.47,0
68.00,61.46,0
45.00,62.06,0
49.00,62.18,0
36.00,61.71,0
36.00,60.59,0
35.00,58.92,0
37.00,56.89,0
39.00,54.68,0
40.00,52.47,0
49.00,50.44,0
45.00,48.75,0
57.00,47.47,0
46.00,46.62,0
54.00,46.12,0
45.00,45.85,0
56.00,45.79,0
46.00,45.90,0
60.00,46.19,0
57.00,46.73,0
58.00,47.51,0
69.00,48.53,0
73.00,49.92,0
59.00,51.60,0
68.00,53.31,0
54.00,54.90,0
68.00,56.32,0
49.00,57.50,0
66.00,58.42,0
49.00,59.09,0
59.00,59.49,0
42.00,59.56,0
39.00,59.13,0
42.00,58.20,0
36.00,56.87,0
35.00,55.21,0
42.00,53.34,0
35.00,51.43,0
46.00,49.58,0
47.00,47.98,0
53.00,46.77,0
46.00,45.95,0
51.00,45.43,0
49.00,45.15,0
52.00,45.12,0
51.00,45.29,0
55.00,45.65,0
48.00,46.14,0
70.00,46.82,0
61.00,47.84,0
73.00,49.23,0
64.00,50.90,0
74.00,52.76,0
64.00,54.71,0
56.00,56.52,0
58.00,57.95,0
54.00,59.00,0
59.00,59.70,0
53.00,60.12,0
46.00,60.19,0
49.00,59.86,0
35.00,59.11,0
38.00,57.87,0
41.00,56.28,0
36.00,54.49,0
44.00,52.62,0
36.00,50.79,0
54.00,49.12,0
39.00,47.74,0
55.00,46.66,0
44.00,45.89,0
58.00,45.46,0
42.00,45.29,0
58.00,45.33,0
40.00,45.49,0
72.00,45.85,0
50.00,46.53,0
82.00,47.62,0
57.00,49.12,0
78.00,50.89,0
57.00,52.78,0
66.00,54.61,0
61.00,56.27,0
64.00,57.74,0
54.00,58.97,0
57.00,59.84,0
51.00,60.33,0
62.00,60.54,0
40.00,60.48,0
56.00,60.06,0
36.00,59.31,0
40.00,58.17,0
50.00,56.74,0
34.00,55.23,0
53.00,53.65,0
38.00,52.16,0
64.00,50.89,0
44.00,49.98,0
53.00,49.33,0
43.00,48.80,0
68.00,48.50,0
36.00,48.43,0
63.00,48.47,0
39.00,48.55,0
69.00,48.74,0
38.00,49.05,0
61.00,49.37,0
55.00,49.75,0
72.00,50.41,0
52.00,51.32,0
71.00,52.35,0
50.00,53.43,0
73.00,54.49,0
36.00,55.42,0
71.00,56.07,0
61.00,56.69,0
50.00,57.30,0
37.00,57.50,0
47.00,57.17,0
44.00,56.47,0
41.00,55.52,0
62.00,54.52,0
36.00,53.62,0
44.00,52.63,0
35.00,51.46,0
33.00,50.07,0
79.00,48.85,0
42.00,48.24,0
45.00,47.90,0
50.00,47.56,0
47.00,47.32,0
49.00,47.17,0
53.00,47.13,0
96.00,47.62,0
48.00,48.84,0
60.00,50.24,0
87.00,51.75,0
102.00,53.98,0
56.00,56.77,0
105.00,59.65,0
56.00,62.53,0
98.00,65.26,0
54.00,67.71,0
97.00,69.83,0
49.00,71.59,0
77.00,72.80,0
50.00,73.41,0
46.00,73.27,0
34.00,72.19,0
60.00,70.42,0
33.00,68.28,0
50.00,65.85,0
41.00,63.26,0
50.00,60.70,0
57.00,58.39,0
42.00,56.40,0
70.00,54.77,0
34.00,53.51,0
58.00,52.40,0
59.00,51.55,0
76.00,51.29,0
54.00,51.59,0
70.00,52.21,0
58.00,53.05,0
79.00,54.12,0
59.00,55.42,0
55.00,56.66,0
56.00,57.59,0
58.00,58.25,0
48.00,58.64,0
66.00,58.82,0
36.00,58.79,0
53.00,58.41,0
41.00,57.70,0
36.00,56.66,0
33.00,55.20,0
44.00,53.47,0
77.00,52.02,0
34.00,51.12,0
50.00,50.35,0
43.00,49.57,0
43.00,48.82,0
46.00,48.08,0
44.00,47.41,0
59.00,46.92,0
71.00,46.94,0
72.00,47.65,0
78.00,49.04,0
41.00,50.70,0
99.00,52.43,0
65.00,54.52,0
90.00,56.94,0
62.00,59.43,0
76.00,61.77,0
40.00,63.59,0
86.00,64.88,0
49.00,65.87,0
68.00,66.53,0
57.00,66.83,0
64.00,66.88,0
36.00,66.53,0
60.00,65.68,0
62.00,64.67,0
72.00,63.87,0
49.00,63.27,0
77.00,62.76,0
39.00,62.29,0
42.00,61.51,0
40.00,60.23,0
36.00,58.57,0
40.00,56.62,0
42.00,54.58,0
35.00,52.54,0
35.00,50.47,0
46.00,48.47,0
34.00,46.69,0
64.00,45.26,0
48.00,44.41,0
81.00,44.29,0
89.00,45.21,0
66.00,47.12,0
98.00,49.64,0
86.00,52.81,0
64.00,56.22,0
74.00,59.34,0
91.00,62.25,0
116.00,65.48,0
83.00,69.12,0
108.00,72.83,0
57.00,76.18,0
77.00,78.67,0
51.00,80.13,0
114.00,81.01,0
49.00,81.71,0
74.00,81.91,0
42.00,81.33,0
48.00,79.88,0
35.00,77.58,0
39.00,74.56,0
36.00,71.04,0
36.00,67.22,0
50.00,63.41,0
36.00,59.83,0
67.00,56.70,0
38.00,54.17,0
82.00,52.32,0
84.00,51.54,0
77.00,51.94,0
119.00,53.49,0
109.00,56.42,0
102.00,60.41,0
128.00,65.09,0
108.00,70.35,0
133.00,75.97,0
113.00,81.77,0
162.00,87.76,0
90.00,93.79,0
117.00,99.07,0
74.00,103.09,0
95.00,105.72,0
62.00,106.90,0
75.00,106.70,0
60.00,105.28,0
47.00,102.72,0
51.00,99.08,0
56.00,94.72,0
31.00,89.87,0
40.00,84.53,0
39.00,78.91,0
37.00,73.31,0
44.00,67.92,0
43.00,62.97,0
67.00,58.75,0
52.00,55.50,0
90.00,53.36,0
84.00,52.58,0
112.00,53.31,0
112.00,55.59,0
96.00,59.04,0
121.00,63.23,0
123.00,68.15,0
93.00,73.44,0
116.00,78.54,0
106.00,83.39,0
156.00,88.32,0
97.00,93.40,0
143.00,98.24,0
63.00,102.36,0
95.00,105.11,0
72.00,106.41,0
121.00,106.86,0
46.00,106.64,0
63.00,105.22,0
45.00,102.47,0
42.00,98.58,0
37.00,93.73,0
48.00,88.32,0
56.00,82.85,0
35.00,77.56,0
68.00,72.58,0
35.00,68.11,0
65.00,64.13,0
59.00,60.84,0
117.00,58.81,0
94.00,58.54,0
134.00,60.02,0
120.00,63.14,0
117.00,67.50,0
75.00,72.11,0
75.00,76.07,0
133.00,79.52,0
128.00,83.38,0
143.00,87.96,0
124.00,93.00,0
94.00,97.76,0
127.00,101.77,0
79.00,104.98,0
108.00,107.19,0
79.00,108.43,0
78.00,108.62,0
56.00,107.58,0
72.00,105.40,0
49.00,102.29,0
50.00,98.35,0
38.00,93.66,0
42.00,88.37,0
36.00,82.75,0
41.00,77.02,0
72.00,71.68,0
50.00,67.20,0
98.00,63.80,0
55.00,61.59,0
107.00,60.48,0
102.00,60.72,0
125.00,62.50,0
123.00,65.74,0
79.00,69.75,0
117.00,73.78,0
108.00,77.90,0
133.00,82.30,0
134.00,87.11,0
155.00,92.47,0
131.00,98.24,0
99.00,103.64,0
118.00,108.01,0
81.00,111.20,0
108.00,113.16,0
53.00,113.80,0
87.00,113.03,0
49.00,110.98,0
60.00,107.79,0
58.00,103.66,0
58.00,99.04,0
37.00,93.99,0
36.00,88.42,0
39.00,82.48,0
41.00,76.51,0
48.00,70.84,0
48.00,65.72,0
79.00,61.50,0
72.00,58.57,0
119.00,57.23,0
93.00,57.69,0
114.00,59.60,0
121.00,62.75,0
133.00,67.13,0
114.00,72.39,0
121.00,77.98,0
127.00,83.64,0
122.00,89.29,0
118.00,94.67,0
128.00,99.65,0
105.00,104.10,0
135.00,107.95,0
54.00,110.85,0
79.00,112.04,0
62.00,111.49,0
93.00,109.84,0
46.00,107.37,0
49.00,103.86,0
38.00,99.28,0
44.00,93.91,0
33.00,88.02,0
48.00,81.94,0
34.00,75.96,0
39.00,70.17,0
67.00,64.94,0
59.00,60.72,0
115.00,58.01,0
76.00,57.05,0
136.00,57.76,0
102.00,60.15,0
106.00,63.66,0
84.00,67.52,0
120.00,71.47,0
102.00,75.63,0
99.00,79.79,0
102.00,83.63,0
134.00,87.40,0
119.00,91.41,0
131.00,95.60,0
54.00,99.21,0
96.00,101.44,0
81.00,102.48,0
92.00,102.78,0
50.00,102.20,0
85.00,100.68,0
43.00,98.38,0
72.00,95.38,0
37.00,91.79,0
42.00,87.58,0
35.00,82.77,0
44.00,77.66,0
37.00,72.54,0
44.00,67.58,0
92.00,63.37,0
82.00,60.65,0
111.00,59.60,0
74.00,59.99,0
96.00,61.24,0
98.00,63.16,0
119.00,65.94,0
115.00,69.60,0
118.00,73.94,0
118.00,78.67,0
122.00,83.62,0
104.00,88.47,0
119.00,92.95,0
74.00,96.71,0
96.00,99.38,0
84.00,101.02,0
93.00,101.86,0
57.00,101.83,0
70.00,100.74,0
41.00,98.54,0
70.00,95.44,0
62.00,91.93,0
47.00,88.23,0
38.00,84.08,0
36.00,79.46,0
38.00,74.54,0
38.00,69.57,0
66.00,64.98,0
42.00,61.09,0
70.00,57.94,0
43.00,55.49,0
96.00,53.87,0
66.00,53.35,0
95.00,53.87,0
86.00,55.32,0
93.00,57.58,0
93.00,60.42,0
94.00,63.66,0
80.00,67.00,0
89.00,70.16,0
89.00,73.10,0
103.00,75.98,0
74.00,78.71,0
98.00,81.06,0
90.00,83.15,0
88.00,85.00,0
64.00,86.34,0
90.00,87.02,0
59.00,87.16,0
91.00,86.85,0
41.00,86.08,0
67.00,84.63,0
36.00,82.48,0
41.00,79.61,0
42.00,76.12,0
42.00,72.34,0
36.00,68.41,0
38.00,64.41,0
45.00,60.53,0
53.00,57.08,0
80.00,54.48,0
48.00,52.87,0
100.00,52.17,0
62.00,52.48,0
74.00,53.45,0
63.00,54.67,0
86.00,56.16,0
83.00,58.06,0
107.00,60.55,0
86.00,63.61,0
114.00,67.09,0
66.00,70.66,0
79.00,73.72,0
51.00,75.88,0
71.00,77.08,0
53.00,77.49,0
67.00,77.25,0
47.00,76.45,0
49.00,75.06,0
45.00,73.09,0
61.00,70.82,0
40.00,68.48,0
96.00,66.39,0
42.00,64.87,0
33.00,63.34,0
55.00,61.42,0
38.00,59.43,0
50.00,57.44,0
69.00,55.74,0
65.00,54.70,0
88.00,54.48,0
93.00,55.26,0
73.00,56.89,0
80.00,58.88,0
70.00,60.95,0
83.00,63.02,0
88.00,65.18,0
89.00,67.55,0
94.00,70.09,0
96.00,72.79,0
47.00,75.19,0
88.00,76.82,0
48.00,77.76,0
110.00,78.34,0
49.00,78.81,0
52.00,78.71,0
52.00,77.72,0
86.00,76.40,0
39.00,75.04,0
36.00,73.19,0
36.00,70.58,0
36.00,67.45,0
37.00,64.04,0
37.00,60.55,0
52.00,57.24,0
38.00,54.32,0
52.00,51.78,0
41.00,49.66,0
70.00,48.09,0
58.00,47.28,0
103.00,47.49,0
74.00,48.89,0
108.00,51.31,0
65.00,54.38,0
64.00,57.42,0
80.00,60.09,0
76.00,62.61,0
75.00,65.00,0
95.00,67.31,0
103.00,69.89,0
83.00,72.71,0
51.00,75.10,0
67.00,76.51,0
48.00,76.98,0
62.00,76.64,0
38.00,75.58,0
36.00,73.71,0
42.00,71.11,0
36.00,68.07,0
42.00,64.80,0
49.00,61.57,0
37.00,58.55,0
42.00,55.68,0
59.00,53.15,0
36.00,51.09,0
64.00,49.44,0
55.00,48.37,0
82.00,48.08,0
58.00,48.57,0
76.00,49.59,0
52.00,50.89,0
72.00,52.28,0
63.00,53.75,0
67.00,55.28,0
75.00,56.87,0
83.00,58.67,0
76.00,60.73,0
96.00,63.02,0
66.00,65.45,0
106.00,67.89,0
58.00,70.28,0
85.00,72.31,0
44.00,73.71,0
59.00,74.26,0
40.00,73.87,0
44.00,72.65,0
37.00,70.69,0
34.00,68.10,0
48.00,65.15,0
36.00,62.12,0
35.00,59.05,0
62.00,56.15,0
47.00,53.79,0
43.00,51.87,0
84.00,50.49,0
70.00,50.09,0
69.00,50.56,0
78.00,51.61,0
67.00,53.12,0
69.00,54.84,0
78.00,56.67,0
87.00,58.77,0
90.00,61.25,0
78.00,63.95,0
88.00,66.66,0
84.00,69.31,0
74.00,71.75,0
64.00,73.69,0
79.00,75.04,0
41.00,75.77,0
54.00,75.60,0
67.00,74.74,0
44.00,73.54,0
50.00,71.89,0
40.00,69.77,0
40.00,67.26,0
34.00,64.41,0
49.00,61.41,0
37.00,58.49,0
42.00,55.70,0
44.00,53.10,0
36.00,50.75,0
50.00,48.65,0
47.00,46.96,0
57.00,45.79,0
60.00,45.21,0
75.00,45.36,0
67.00,46.27,0
82.00,47.83,0
69.00,49.92,0
95.00,52.46,0
62.00,55.32,0
55.00,57.93,0
52.00,59.84,0
83.00,61.32,0
57.00,62.69,0
84.00,63.98,0
51.00,65.12,0
75.00,66.00,0
54.00,66.59,0
64.00,66.88,0
37.00,66.69,0
50.00,65.90,0
32.00,64.53,0
42.00,62.63,0
35.00,60.36,0
44.00,57.93,0
36.00,55.49,0
51.00,53.17,0
57.00,51.27,0
35.00,49.78,0
61.00,48.56,0
50.00,47.73,0
38.00,47.17,0
49.00,46.64,0
68.00,46.37,0
59.00,46.66,0
94.00,47.66,0
39.00,49.21,0
88.00,50.92,0
41.00,52.65,0
90.00,54.37,0
65.00,56.25,0
49.00,58.05,0
39.00,59.15,0
82.00,59.76,0
41.00,60.26,0
45.00,60.37,0
42.00,59.89,0
44.00,58.97,0
39.00,57.71,0
46.00,56.23,0
44.00,54.70,0
60.00,53.32,0
43.00,52.23,0
36.00,51.17,0
43.00,49.98,0
42.00,48.78,0
45.00,47.67,0
83.00,47.04,0
65.00,47.29,0
50.00,48.10,0
38.00,48.80,0
64.00,49.29,0
54.00,49.85,0
44.00,50.41,0
62.00,50.86,0
50.00,51.32,0
49.00,51.72,0
43.00,51.89,0
59.00,51.91,0
36.00,51.84,0
49.00,51.55,0
70.00,51.31,0
43.00,51.36,0
36.00,51.28,0
42.00,50.82,0
47.00,50.17,0
58.00,49.62,0
38.00,49.22,0
40.00,48.73,0
94.00,48.50,0
38.00,48.92,0
44.00,49.39,0
45.00,49.52,0
51.00,49.52,0
79.00,49.74,0
43.00,50.35,0
83.00,51.20,0
72.00,52.48,0
59.00,54.09,0
62.00,55.60,0
42.00,56.76,0
62.00,57.49,0
61.00,58.02,0
62.00,58.54,0
70.00,59.11,0
92.00,60.01,0
57.00,61.29,0
72.00,62.53,0
107.00,63.95,0
36.00,65.57,0
76.00,66.75,0
55.00,67.45,0
42.00,67.63,0
37.00,66.98,0
36.00,65.52,0
36.00,63.45,0
38.00,60.99,0
41.00,58.36,0
41.00,55.76,0
36.00,53.26,0
36.00,50.83,0
41.00,48.54,0
38.00,46.48,0
80.00,45.00,0
76.00,44.67,0
82.00,45.55,0
70.00,47.27,0
87.00,49.57,0
49.00,52.11,0
116.00,54.79,0
71.00,57.95,0
61.00,61.06,0
86.00,63.72,0
88.00,66.28,0
83.00,68.89,0
79.00,71.35,0
42.00,73.19,0
87.00,74.23,0
37.00,74.66,0
69.00,74.42,0
46.00,73.60,0
63.00,72.39,0
39.00,70.82,0
35.00,68.74,0
37.00,66.09,0
43.00,63.15,0
36.00,60.14,0
42.00,57.16,0
138.00,55.15,0
35.00,54.71,0
55.00,54.74,0
40.00,54.48,0
103.00,54.45,0
40.00,54.98,0
105.00,55.95,0
56.00,57.37,0
101.00,59.18,0
69.00,61.30,0
72.00,63.47,0
63.00,65.29,0
66.00,66.71,0
72.00,67.78,0
69.00,68.66,0
76.00,69.42,0
43.00,69.88,0
34.00,69.55,0
60.00,68.41,0
54.00,66.99,0
60.00,65.59,0
43.00,64.15,0
47.00,62.52,0
37.00,60.66,0
40.00,58.57,0
70.00,56.59,0
47.00,55.09,0
45.00,53.86,0
55.00,52.73,0
49.00,51.82,0
35.00,50.96,0
73.00,50.22,0
38.00,49.80,0
91.00,49.82,0
76.00,50.64,0
87.00,52.33,0
46.00,54.32,0
80.00,56.18,0
70.00,58.02,0
75.00,59.94,0
68.00,61.80,0
44.00,63.28,0
52.00,64.03,0
67.00,64.25,0
40.00,64.17,0
70.00,63.78,0
49.00,63.27,0
64.00,62.70,0
52.00,62.09,0
54.00,61.41,0
37.00,60.49,0
38.00,59.17,0
56.00,57.60,0
40.00,56.07,0
81.00,54.84,0
54.00,54.22,0
89.00,54.25,0
57.00,54.87,0
73.00,55.81,0
52.00,56.78,0
82.00,57.79,0
72.00,59.02,0
102.00,60.73,0
64.00,62.83,0
124.00,65.28,0
74.00,68.18,0
102.00,71.23,0
76.00,74.12,0
60.00,76.46,0
91.00,78.08,0
92.00,79.49,0
73.00,80.81,0
48.00,81.50,0
46.00,81.10,0
50.00,79.70,0
34.00,77.47,0
42.00,74.54,0
68.00,71.38,0
45.00,68.45,0
55.00,65.73,0
42.00,63.12,0
94.00,60.97,0
61.00,59.73,0
65.00,59.13,0
48.00,58.69,0
115.00,58.71,0
66.00,59.62,0
115.00,61.33,0
62.00,63.57,0
111.00,66.07,0
104.00,69.00,0
105.00,72.44,0
89.00,75.99,0
103.00,79.36,0
106.00,82.61,0
98.00,85.77,0
78.00,88.48,0
50.00,90.12,0
56.00,90.34,0
89.00,89.59,0
56.00,88.45,0
71.00,86.91,0
37.00,84.80,0
54.00,82.03,0
41.00,78.76,0
42.00,75.14,0
40.00,71.28,0
40.00,67.32,0
40.00,63.41,0
59.00,59.82,0
56.00,56.88,0
102.00,55.03,0
38.00,54.26,0
68.00,53.92,0
91.00,54.06,0
71.00,55.03,0
77.00,56.52,0
64.00,58.17,0
79.00,59.85,0
94.00,61.76,0
96.00,64.18,0
66.00,66.81,0
102.00,69.33,0
127.00,72.24,0
70.00,75.58,0
71.00,78.41,0
96.00,80.52,0
75.00,82.25,0
102.00,83.72,0
72.00,84.97,0
55.00,85.60,0
57.00,85.22,0
56.00,83.96,0
46.00,82.01,0
39.00,79.35,0
37.00,76.04,0
44.00,72.31,0
44.00,68.48,0
42.00,64.75,0
76.00,61.45,0
38.00,58.83,0
51.00,56.58,0
64.00,54.68,0
50.00,53.32,0
68.00,52.45,0
117.00,52.55,0
83.00,54.07,0
90.00,56.53,0
70.00,59.28,0
90.00,62.07,0
86.00,64.91,0
94.00,67.87,0
110.00,71.06,0
100.00,74.55,0
82.00,77.98,0
71.00,80.78,0
47.00,82.47,0
71.00,82.98,0
67.00,82.74,0
77.00,82.15,0
50.00,81.23,0
42.00,79.65,0
42.00,77.26,0
38.00,74.24,0
35.00,70.76,0
46.00,67.04,0
74.00,63.67,0
46.00,60.98,0
60.00,58.79,0
50.00,56.97,0
53.00,55.47,0
51.00,54.20,0
95.00,53.52,0
61.00,53.73,0
72.00,54.51,0
74.00,55.61,0
102.00,57.27,0
59.00,59.41,0
83.00,61.58,0
72.00,63.65,0
88.00,65.72,0
86.00,67.88,0
90.00,70.17,0
64.00,72.33,0
80.00,74.04,0
55.00,75.19,0
70.00,75.73,0
61.00,75.75,0
38.00,75.15,0
39.00,73.66,0
49.00,71.46,0
34.00,68.83,0
35.00,65.80,0
55.00,62.65,0
40.00,59.71,0
73.00,57.22,0
42.00,55.32,0
62.00,53.86,0
36.00,52.63,0
68.00,51.63,0
46.00,50.97,0
77.00,50.73,0
65.00,51.07,0
103.00,52.20,0
77.00,54.21,0
92.00,56.83,0
106.00,59.99,0
110.00,63.84,0
65.00,67.89,0
104.00,71.57,0
88.00,74.99,0
70.00,77.99,0
82.00,80.26,0
75.00,81.88,0
59.00,82.82,0
60.00,82.87,0
45.00,82.02,0
38.00,80.21,0
37.00,77.47,0
79.00,74.41,0
42.00,71.58,0
41.00,68.75,0
63.00,65.88,0
43.00,63.25,0
61.00,60.89,0
64.00,58.99,0
112.00,58.08,0
39.00,58.18,0
72.00,58.50,0
66.00,58.87,0
96.00,59.68,0
68.00,61.03,0
87.00,62.68,0
86.00,64.57,0
104.00,66.88,0
72.00,69.46,0
84.00,71.86,0
75.00,73.92,0
84.00,75.66,0
62.00,77.01,0
80.00,77.86,0
75.00,78.39,0
64.00,78.63,0
54.00,78.33,0
68.00,77.50,0
33.00,76.14,0
43.00,74.03,0
45.00,71.32,0
42.00,68.34,0
42.00,65.24,0
37.00,62.06,0
43.00,58.90,0
41.00,55.92,0
61.00,53.33,0
51.00,51.38,0
68.00,50.10,0
65.00,49.57,0
108.00,50.05,0
55.00,51.55,0
111.00,53.72,0
89.00,56.61,0
84.00,60.02,0
87.00,63.48,0
90.00,66.88,0
90.00,70.21,0
86.00,73.36,0
76.00,76.12,0
84.00,78.37,0
66.00,80.04,0
83.00,81.13,0
36.00,81.50,0
74.00,80.98,0
49.00,79.82,0
68.00,78.29,0
46.00,76.45,0
41.00,74.19,0
36.00,71.36,0
38.00,68.10,0
47.00,64.69,0
43.00,61.40,0
42.00,58.32,0
51.00,55.52,0
84.00,53.44,0
53.00,52.35,0
68.00,51.92,0
92.00,52.20,0
100.00,53.61,0
72.00,55.93,0
102.00,58.70,0
88.00,61.89,0
89.00,65.30,0
63.00,68.45,0
113.00,71.30,0
51.00,73.92,0
100.00,76.06,0
90.00,78.00,0
77.00,79.84,0
56.00,81.08,0
52.00,81.33,0
40.00,80.48,0
47.00,78.65,0
65.00,76.29,0
39.00,73.75,0
38.00,70.88,0
45.00,67.67,0
43.00,64.39,0
39.00,61.18,0
45.00,58.09,0
45.00,55.26,0
69.00,52.97,0
46.00,51.36,0
66.00,50.33,0
57.00,49.81,0
83.00,49.95,0
76.00,50.87,0
96.00,52.62,0
66.00,54.97,0
90.00,57.56,0
80.00,60.33,0
98.00,63.32,0
89.00,66.51,0
64.00,69.54,0
61.00,71.85,0
93.00,73.53,0
80.00,75.08,0
93.00,76.64,0
62.00,78.00,0
73.00,78.86,0
39.00,78.93,0
66.00,78.18,0
36.00,76.73,0
37.00,74.55,0
49.00,71.74,0
39.00,68.68,0
51.00,65.55,0
39.00,62.49,0
41.00,59.51,0
55.00,56.72,0
60.00,54.48,0
53.00,52.86,0
66.00,51.80,0
65.00,51.35,0
115.00,51.89,0
59.00,53.50,0
87.00,55.61,0
62.00,57.80,0
76.00,59.93,0
67.00,61.89,0
107.00,63.96,0
72.00,66.33,0
93.00,68.79,0
47.00,70.90,0
61.00,72.21,0
82.00,72.89,0
120.00,73.85,0
76.00,75.43,0
81.00,77.06,0
50.00,78.13,0
48.00,78.25,0
36.00,77.26,0
36.00,75.24,0
42.00,72.45,0
50.00,69.33,0
37.00,66.14,0
46.00,62.93,0
73.00,60.09,0
45.00,57.89,0
54.00,56.10,0
54.00,54.60,0
62.00,53.51,0
67.00,52.93,0
103.00,53.21,0
58.00,54.40,0
80.00,55.98,0
52.00,57.56,0
114.00,59.32,0
77.00,61.65,0
110.00,64.51,0
94.00,67.78,0
97.00,71.29,0
80.00,74.65,0
84.00,77.55,0
76.00,79.87,0
99.00,81.76,0
86.00,83.47,0
60.00,84.74,0
39.00,84.92,0
35.00,83.68,0
31.00,81.12,0
37.00,77.60,0
37.00,73.54,0
36.00,69.23,0
48.00,64.97,0
56.00,61.13,0
51.00,57.94,0
58.00,55.39,0
64.00,53.52,0
63.00,52.40,0
59.00,51.86,0
55.00,51.70,0
76.00,51.89,0
57.00,52.52,0
113.00,53.77,0
72.00,55.88,0
92.00,58.53,0
78.00,61.38,0
65.00,64.10,0
81.00,66.44,0
99.00,68.72,0
84.00,71.18,0
87.00,73.63,0
58.00,75.66,0
71.00,76.96,0
84.00,77.75,0
62.00,78.27,0
34.00,78.06,0
56.00,76.87,0
41.00,74.97,0
40.00,72.53,0
35.00,69.56,0
43.00,66.28,0
74.00,63.20,0
42.00,60.71,0
53.00,58.54,0
48.00,56.58,0
39.00,54.78,0
54.00,53.09,0
56.00,51.72,0
58.00,50.82,0
78.00,50.54,0
64.00,50.94,0
88.00,51.99,0
71.00,53.63,0
77.00,55.64,0
68.00,57.75,0
123.00,60.22,0
70.00,63.28,0
79.00,66.35,0
62.00,68.88,0
91.00,70.95,0
78.00,72.85,0
67.00,74.47,0
50.00,75.41,0
66.00,75.56,0
35.00,74.97,0
42.00,73.50,0
42.00,71.30,0
50.00,68.71,0
44.00,66.00,0
64.00,63.44,0
38.00,61.12,0
35.00,58.79,0
73.00,56.57,0
47.00,54.90,0
52.00,53.64,0
61.00,52.65,0
44.00,51.97,0
47.00,51.35,0
65.00,50.86,0
47.00,50.67,0
84.00,50.85,0
69.00,51.66,0
98.00,53.23,0
84.00,55.56,0
73.00,58.29,0
78.00,61.00,0
75.00,63.55,0
73.00,65.88,0
72.00,67.89,0
56.00,69.43,0
75.00,70.45,0
46.00,70.97,0
49.00,70.80,0
48.00,69.92,0
44.00,68.49,0
37.00,66.57,0
46.00,64.27,0
34.00,61.73,0
46.00,59.08,0
48.00,56.55,0
39.00,54.25,0
64.00,52.28,0
53.00,50.88,0
42.00,49.88,0
47.00,48.99,0
80.00,48.49,0
74.00,48.82,0
94.00,50.13,0
89.00,52.36,0
80.00,55.24,0
83.00,58.34,0
71.00,61.40,0
84.00,64.24,0
68.00,66.82,0
77.00,69.02,0
56.00,70.71,0
63.00,71.74,0
64.00,72.19,0
83.00,72.40,0
47.00,72.46,0
44.00,71.93,0
35.00,70.54,0
41.00,68.45,0
36.00,65.85,0
37.00,62.95,0
45.00,59.93,0
38.00,57.03,0
43.00,54.29,0
50.00,51.85,0
68.00,50.03,0
50.00,48.94,0
73.00,48.49,0
54.00,48.61,0
52.00,49.02,0
51.00,49.44,0
82.00,50.07,0
43.00,51.02,0
82.00,52.13,0
79.00,53.60,0
70.00,55.52,0
91.00,57.71,0
78.00,60.19,0
43.00,62.49,0
77.00,64.16,0
49.00,65.34,0
59.00,66.01,0
38.00,66.04,0
83.00,65.67,0
36.00,65.21,0
50.00,64.40,0
40.00,63.11,0
35.00,61.42,0
41.00,59.34,0
38.00,57.08,0
46.00,54.82,0
40.00,52.70,0
63.00,50.91,0
37.00,49.54,0
66.00,48.54,0
48.00,47.97,0
71.00,47.88,0
53.00,48.24,0
71.00,48.97,0
57.00,49.99,0
84.00,51.33,0
75.00,53.14,0
52.00,55.13,0
50.00,56.71,0
72.00,57.88,0
50.00,58.88,0
75.00,59.73,0
49.00,60.46,0
57.00,60.92,0
38.00,60.91,0
77.00,60.63,0
49.00,60.40,0
62.00,60.19,0
43.00,59.82,0
52.00,59.22,0
39.00,58.34,0
33.00,57.09,0
36.00,55.41,0
37.00,53.48,0
45.00,51.52,0
35.00,49.67,0
74.00,48.18,0
40.00,47.31,0
67.00,46.91,0
48.00,46.88,0
64.00,47.20,0
48.00,47.73,0
72.00,48.47,0
51.00,49.45,0
64.00,50.53,0
88.00,51.88,0
63.00,53.69,0
63.00,55.59,0
50.00,57.17,0
58.00,58.31,0
69.00,59.19,0
88.00,60.25,0
58.00,61.56,0
54.00,62.66,0
52.00,63.22,0
51.00,63.27,0
36.00,62.80,0
60.00,61.87,0
36.00,60.70,0
35.00,59.19,0
58.00,57.43,0
36.00,55.74,0
48.00,54.08,0
52.00,52.56,0
54.00,51.36,0
75.00,50.70,0
52.00,50.64,0
49.00,50.80,0
82.00,51.17,0
62.00,52.03,0
53.00,53.11,0
62.00,54.08,0
66.00,55.04,0
43.00,55.90,0
79.00,56.62,0
73.00,57.56,0
78.00,58.87,0
41.00,60.15,0
72.00,61.05,0
61.00,61.76,0
81.00,62.52,0
57.00,63.35,0
65.00,64.03,0
42.00,64.33,0
42.00,64.00,0
55.00,63.13,0
40.00,61.97,0
42.00,60.50,0
47.00,58.78,0
58.00,57.14,0
34.00,55.63,0
93.00,54.46,0
39.00,53.90,0
60.00,53.61,0
40.00,53.27,0
55.00,52.85,0
41.00,52.37,0
88.00,52.13,0
62.00,52.53,0
55.00,53.31,0
61.00,54.06,0
84.00,55.00,0
48.00,56.19,0
80.00,57.39,0
74.00,58.73,0
94.00,60.47,0
71.00,62.55,0
94.00,64.78,0
61.00,66.98,0
76.00,68.86,0
60.00,70.26,0
70.00,71.20,0
64.00,71.73,0
62.00,71.92,0
47.00,71.62,0
51.00,70.74,0
43.00,69.32,0
73.00,67.68,0
60.00,66.25,0
34.00,64.86,0
58.00,63.19,0
35.00,61.36,0
43.00,59.36,0
48.00,57.27,0
55.00,55.39,0
42.00,53.78,0
58.00,52.41,0
55.00,51.40,0
57.00,50.79,0
55.00,50.50,0
81.00,50.65,0
64.00,51.43,0
107.00,52.93,0
66.00,55.18,0
82.00,57.70,0
79.00,60.28,0
99.00,63.04,0
75.00,65.97,0
74.00,68.69,0
44.00,70.69,0
79.00,71.86,0
50.00,72.45,0
61.00,72.48,0
48.00,71.93,0
55.00,70.87,0
36.00,69.33,0
48.00,67.32,0
36.00,64.94,0
35.00,62.26,0
49.00,59.45,0
35.00,56.74,0
46.00,54.16,0
39.00,51.78,0
67.00,49.85,0
53.00,48.60,0
62.00,47.98,0
52.00,47.83,0
84.00,48.19,0
41.00,49.04,0
77.00,50.06,0
66.00,51.35,0
78.00,52.99,0
69.00,54.90,0
118.00,57.30,0
76.00,60.39,0
105.00,63.83,0
55.00,67.16,0
72.00,69.83,0
62.00,71.71,0
115.00,73.35,0
66.00,75.12,0
80.00,76.69,0
45.00,77.59,0
62.00,77.63,0
40.00,76.82,0
45.00,75.21,0
36.00,72.86,0
37.00,69.95,0
64.00,66.86,0
40.00,64.00,0
46.00,61.28,0
45.00,58.66,0
51.00,56.26,0
44.00,54.17,0
70.00,52.51,0
49.00,51.44,0
56.00,50.78,0
48.00,50.33,0
71.00,50.16,0
69.00,50.52,0
82.00,51.53,0
82.00,53.20,0
102.00,55.60,0
68.00,58.50,0
86.00,61.46,0
80.00,64.32,0
117.00,67.36,0
86.00,70.75,0
73.00,73.98,0
52.00,76.33,0
71.00,77.64,0
75.00,78.29,0
94.00,78.80,0
37.00,79.06,0
66.00,78.59,0
71.00,77.62,0
36.00,76.33,0
34.00,74.28,0
50.00,71.55,0
36.00,68.52,0
35.00,65.23,0
78.00,62.10,0
42.00,59.60,0
64.00,57.60,0
67.00,56.13,0
68.00,55.36,0
49.00,55.02,0
77.00,54.96,0
55.00,55.23,0
64.00,55.68,0
46.00,56.07,0
82.00,56.48,0
73.00,57.26,0
88.00,58.57,0
65.00,60.24,0
93.00,62.08,0
76.00,64.12,0
62.00,66.10,0
57.00,67.54,0
97.00,68.66,0
66.00,69.86,0
65.00,70.89,0
44.00,71.31,0
72.00,71.13,0
47.00,70.59,0
52.00,69.64,0
37.00,68.18,0
44.00,66.23,0
66.00,64.13,0
35.00,62.15,0
39.00,60.04,0
57.00,57.85,0
45.00,55.92,0
38.00,54.13,0
84.00,52.67,0
51.00,51.96,0
59.00,51.73,0
51.00,51.65,0
61.00,51.73,0
65.00,52.04,0
81.00,52.81,0
69.00,54.11,0
92.00,55.87,0
88.00,58.18,0
48.00,60.63,0
82.00,62.68,0
66.00,64.47,0
74.00,66.07,0
81.00,67.55,0
72.00,68.98,0
71.00,70.23,0
54.00,71.08,0
67.00,71.40,0
34.00,71.12,0
55.00,70.12,0
41.00,68.57,0
47.00,66.63,0
49.00,64.49,0
43.00,62.27,0
42.00,59.99,0
54.00,57.77,0
57.00,55.89,0
47.00,54.38,0
78.00,53.33,0
49.00,52.85,0
50.00,52.61,0
46.00,52.30,0
71.00,52.09,0
69.00,52.34,0
109.00,53.42,0
90.00,55.60,0
84.00,58.51,0
72.00,61.52,0
78.00,64.29,0
74.00,66.78,0
76.00,68.95,0
76.00,70.82,0
74.00,72.40,0
62.00,73.57,0
54.00,74.10,0
65.00,73.99,0
64.00,73.51,0
39.00,72.62,0
72.00,71.32,0
36.00,69.77,0
41.00,67.83,0
58.00,65.56,0
42.00,63.31,0
51.00,61.11,0
47.00,58.99,0
61.00,57.14,0
49.00,55.64,0
64.00,54.50,0
50.00,53.72,0
35.00,52.99,0
42.00,52.02,0
64.00,51.08,0
69.00,50.65,0
93.00,51.10,0
66.00,52.40,0
86.00,54.24,0
83.00,56.49,0
98.00,59.24,0
60.00,62.16,0
72.00,64.73,0
69.00,66.80,0
72.00,68.50,0
65.00,69.82,0
64.00,70.71,0
60.00,71.14,0
79.00,71.30,0
39.00,71.18,0
52.00,70.46,0
34.00,69.03,0
37.00,66.97,0
57.00,64.55,0
37.00,62.14,0
42.00,59.68,0
42.00,57.18,0
43.00,54.79,0
44.00,52.58,0
48.00,50.65,0
68.00,49.23,0
53.00,48.48,0
47.00,48.14,0
56.00,47.97,0
68.00,48.13,0
91.00,49.00,0
66.00,50.66,0
124.00,53.14,0
73.00,56.48,0
88.00,60.11,0
75.00,63.57,0
72.00,66.66,0
75.00,69.23,0
60.00,71.22,0
96.00,72.78,0
92.00,74.41,0
56.00,75.96,0
35.00,76.60,0
38.00,75.90,0
51.00,74.17,0
48.00,71.96,0
35.00,69.39,0
45.00,66.49,0
48.00,63.51,0
52.00,60.75,0
47.00,58.28,0
50.00,56.10,0
75.00,54.42,0
68.00,53.56,0
57.00,53.36,0
83.00,53.63,0
65.00,54.45,0
100.00,55.87,0
74.00,57.91,0
86.00,60.31,0
70.00,62.75,0
83.00,65.08,0
74.00,67.27,0
71.00,69.20,0
70.00,70.74,0
66.00,71.87,0
56.00,72.47,0
110.00,72.92,0
41.00,73.46,0
54.00,73.48,0
49.00,72.71,0
42.00,71.32,0
39.00,69.34,0
52.00,66.96,0
36.00,64.42,0
39.00,61.71,0
43.00,58.91,0
38.00,56.19,0
47.00,53.63,0
49.00,51.40,0
50.00,49.63,0
65.00,48.41,0
111.00,48.28,0
54.00,49.41,0
69.00,51.00,0
61.00,52.62,0
73.00,54.29,0
66.00,56.02,0
94.00,57.96,0
70.00,60.19,0
97.00,62.64,0
57.00,65.08,0
86.00,67.24,0
64.00,69.08,0
108.00,70.86,0
82.00,72.87,0
76.00,74.86,0
54.00,76.28,0
52.00,76.78,0
53.00,76.37,0
84.00,75.54,0
35.00,74.52,0
36.00,72.85,0
53.00,70.50,0
37.00,67.87,0
43.00,65.03,0
47.00,62.13,0
47.00,59.39,0
46.00,56.88,0
54.00,54.70,0
46.00,52.88,0
68.00,51.52,0
55.00,50.75,0
84.00,50.65,0
45.00,51.12,0
100.00,52.04,0
68.00,53.62,0
80.00,55.65,0
92.00,58.01,0
91.00,60.82,0
50.00,63.62,0
84.00,65.91,0
77.00,67.92,0
74.00,69.78,0
63.00,71.26,0
66.00,72.22,0
53.00,72.62,0
60.00,72.44,0
45.00,71.70,0
59.00,70.49,0
42.00,68.95,0
38.00,66.98,0
45.00,64.63,0
35.00,62.05,0
36.00,59.28,0
45.00,56.48,0
59.00,54.01,0
42.00,52.04,0
69.00,50.58,0
60.00,49.77,0
52.00,49.51,0
45.00,49.40,0
66.00,49.41,0
44.00,49.61,0
81.00,50.06,0
82.00,51.13,0
92.00,53.05,0
98.00,55.77,0
89.00,59.11,0
81.00,62.64,0
71.00,65.92,0
68.00,68.64,0
52.00,70.56,0
71.00,71.70,0
51.00,72.21,0
70.00,72.21,0
38.00,71.72,0
40.00,70.52,0
52.00,68.67,0
39.00,66.51,0
40.00,64.08,0
44.00,61.46,0
48.00,58.89,0
34.00,56.43,0
56.00,54.11,0
49.00,52.17,0
77.00,50.88,0
59.00,50.39,0
64.00,50.49,0
49.00,50.85,0
68.00,51.34,0
42.00,51.90,0
68.00,52.42,0
77.00,53.19,0
72.00,54.45,0
67.00,55.99,0
102.00,57.86,0
54.00,60.05,0
65.00,62.01,0
37.00,63.26,0
81.00,63.95,0
42.00,64.35,0
80.00,64.55,0
43.00,64.59,0
58.00,64.34,0
40.00,63.67,0
55.00,62.64,0
46.00,61.41,0
38.00,59.98,0
35.00,58.20,0
44.00,56.19,0
48.00,54.21,0
35.00,52.36,0
47.00,50.59,0
48.00,49.03,0
68.00,47.97,0
52.00,47.53,0
64.00,47.58,0
58.00,48.00,0
50.00,48.64,0
45.00,49.19,0
69.00,49.71,0
75.00,50.60,0
69.00,51.99,0
62.00,53.60,0
63.00,55.17,0
58.00,56.57,0
48.00,57.65,0
55.00,58.28,0
79.00,58.80,0
66.00,59.56,0
65.00,60.44,0
46.00,61.12,0
68.00,61.47,0
43.00,61.57,0
51.00,61.30,0
37.00,60.58,0
37.00,59.36,0
39.00,57.71,0
37.00,55.80,0
40.00,53.77,0
41.00,51.75,0
42.00,49.87,0
59.00,48.30,0
48.00,47.24,0
71.00,46.74,0
50.00,46.80,0
41.00,47.06,0
52.00,47.22,0
59.00,47.46,0
62.00,48.00,0
60.00,48.83,0
79.00,50.01,0
66.00,51.61,0
68.00,53.42,0
69.00,55.27,0
68.00,57.11,0
63.00,58.84,0
55.00,60.27,0
74.00,61.40,0
69.00,62.48,0
60.00,63.48,0
46.00,64.09,0
59.00,64.17,0
35.00,63.75,0
78.00,63.04,0
57.00,62.46,0
34.00,61.83,0
53.00,60.77,0
46.00,59.50,0
48.00,58.16,0
49.00,56.79,0
58.00,55.57,0
36.00,54.46,0
72.00,53.49,0
58.00,52.94,0
64.00,52.86,0
41.00,52.93,0
70.00,53.02,0
58.00,53.31,0
63.00,53.83,0
74.00,54.58,0
97.00,55.90,0
62.00,57.79,0
80.00,59.81,0
84.00,61.90,0
47.00,63.87,0
57.00,65.20,0
74.00,66.00,0
61.00,66.62,0
124.00,67.53,0
36.00,68.84,0
47.00,69.57,0
52.00,69.33,0
43.00,68.47,0
42.00,67.03,0
61.00,65.28,0
40.00,63.47,0
35.00,61.46,0
61.00,59.30,0
32.00,57.27,0
53.00,55.30,0
54.00,53.56,0
75.00,52.42,0
43.00,51.86,0
67.00,51.61,0
51.00,51.60,0
74.00,51.89,0
56.00,52.50,0
105.00,53.63,0
47.00,55.30,0
108.00,57.27,0
87.00,59.77,0
75.00,62.66,0
80.00,65.40,0
62.00,67.78,0
56.00,69.49,0
70.00,70.50,0
60.00,71.06,0
83.00,71.39,0
48.00,71.55,0
54.00,71.23,0
34.00,70.20,0
42.00,68.46,0
35.00,66.14,0
35.00,63.41,0
44.00,60.45,0
35.00,57.52,0
87.00,55.05,0
57.00,53.54,0
54.00,52.74,0
50.00,52.17,0
62.00,51.79,0
50.00,51.65,0
75.00,51.79,0
38.00,52.15,0
75.00,52.56,0
50.00,53.11,0
67.00,53.77,0
66.00,54.56,0
103.00,55.87,0
73.00,57.87,0
84.00,60.22,0
69.00,62.59,0
74.00,64.77,0
51.00,66.50,0
63.00,67.58,0
68.00,68.20,0
84.00,68.76,0
38.00,69.17,0
58.00,68.99,0
34.00,68.13,0
49.00,66.67,0
38.00,64.75,0
63.00,62.71,0
39.00,60.76,0
45.00,58.81,0
79.00,57.10,0
36.00,55.89,0
55.00,54.82,0
44.00,53.77,0
54.00,52.82,0
49.00,52.01,0
98.00,51.75,0
52.00,52.30,0
75.00,53.29,0
55.00,54.40,0
83.00,55.67,0
58.00,57.10,0
106.00,58.84,0
60.00,60.94,0
84.00,63.09,0
61.00,65.02,0
99.00,66.86,0
68.00,68.76,0
89.00,70.60,0
51.00,72.13,0
80.00,73.14,0
57.00,73.71,0
52.00,73.74,0
60.00,73.15,0
35.00,72.00,0
46.00,70.18,0
36.00,67.83,0
74.00,65.40,0
54.00,63.35,0
60.00,61.70,0
74.00,60.46,0
62.00,59.75,0
44.00,59.24,0
60.00,58.62,0
38.00,57.89,0
74.00,57.15,0
47.00,56.63,0
73.00,56.35,0
73.00,56.47,0
79.00,57.17,0
76.00,58.34,0
82.00,59.89,0
84.00,61.76,0
91.00,63.96,0
69.00,66.28,0
55.00,68.20,0
62.00,69.39,0
87.00,70.20,0
52.00,70.88,0
59.00,71.11,0
44.00,70.71,0
64.00,69.81,0
40.00,68.57,0
40.00,66.88,0
42.00,64.72,0
35.00,62.25,0
44.00,59.60,0
52.00,57.06,0
52.00,54.89,0
55.00,53.18,0
65.00,51.99,0
53.00,51.34,0
57.00,51.03,0
50.00,50.91,0
81.00,51.09,0
50.00,51.71,0
88.00,52.70,0
66.00,54.13,0
91.00,55.99,0
68.00,58.17,0
76.00,60.41,0
66.00,62.48,0
53.00,64.15,0
35.00,64.99,0
98.00,65.31,0
74.00,65.92,0
73.00,66.84,0
52.00,67.57,0
56.00,67.82,0
42.00,67.48,0
82.00,66.82,0
44.00,66.17,0
37.00,65.20,0
64.00,63.81,0
39.00,62.33,0
51.00,60.73,0
44.00,59.04,0
47.00,57.35,0
42.00,55.65,0
76.00,54.22,0
42.00,53.30,0
70.00,52.74,0
48.00,52.47,0
77.00,52.55,0
53.00,52.98,0
96.00,53.85,0
76.00,55.40,0
94.00,57.58,0
83.00,60.20,0
83.00,63.03,0
80.00,65.82,0
75.00,68.39,0
67.00,70.54,0
79.00,72.22,0
74.00,73.58,0
65.00,74.59,0
52.00,75.00,0
62.00,74.75,0
43.00,73.88,0
54.00,72.46,0
36.00,70.52,0
34.00,68.03,0
42.00,65.10,0
41.00,62.03,0
43.00,59.03,0
43.00,56.20,0
42.00,53.60,0
51.00,51.33,0
62.00,49.61,0
55.00,48.56,0
73.00,48.18,0
50.00,48.37,0
69.00,48.92,0
50.00,49.69,0
81.00,50.70,0
72.00,52.13,0
76.00,53.99,0
74.00,56.08,0
96.00,58.47,0
77.00,61.19,0
79.00,63.96,0
68.00,66.45,0
98.00,68.73,0
68.00,70.94,0
72.00,72.81,0
50.00,73.98,0
53.00,74.28,0
38.00,73.64,0
51.00,72.21,0
36.00,70.17,0
51.00,67.74,0
36.00,65.10,0
34.00,62.23,0
68.00,59.41,0
35.00,57.00,0
35.00,54.72,0
38.00,52.35,0
62.00,50.25,0
52.00,48.76,0
52.00,47.82,0
74.00,47.42,0
81.00,47.87,0
52.00,49.00,0
80.00,50.43,0
55.00,52.07,0
83.00,53.84,0
83.00,55.92,0
83.00,58.39,0
52.00,60.82,0
53.00,62.64,0
59.00,63.74,0
93.00,64.66,0
92.00,66.00,0
72.00,67.72,0
47.00,69.13,0
68.00,69.84,0
45.00,69.96,0
48.00,69.44,0
34.00,68.19,0
37.00,66.25,0
52.00,63.91,0
34.00,61.47,0
39.00,58.89,0
46.00,56.29,0
72.00,54.13,0
52.00,52.71,0
65.00,51.87,0
48.00,51.43,0
86.00,51.44,0
45.00,51.93,0
81.00,52.71,0
45.00,53.65,0
68.00,54.56,0
59.00,55.43,0
100.00,56.63,0
51.00,58.24,0
68.00,59.76,0
52.00,60.91,0
61.00,61.70,0
72.00,62.30,0
102.00,63.22,0
71.00,64.70,0
66.00,66.25,0
58.00,67.39,0
88.00,68.26,0
48.00,69.00,0
53.00,69.23,0
38.00,68.72,0
36.00,67.41,0
44.00,65.45,0
40.00,63.16,0
42.00,60.69,0
45.00,58.21,0
50.00,55.90,0
37.00,53.81,0
83.00,52.15,0
51.00,51.26,0
66.00,50.97,0
54.00,51.02,0
74.00,51.42,0
63.00,52.22,0
75.00,53.37,0
80.00,54.91,0
76.00,56.83,0
60.00,58.82,0
78.00,60.66,0
64.00,62.37,0
60.00,63.80,0
59.00,64.79,0
70.00,65.45,0
66.00,65.97,0
38.00,66.18,0
52.00,65.74,0
75.00,65.03,0
43.00,64.36,0
49.00,63.46,0
37.00,62.15,0
41.00,60.46,0
34.00,58.43,0
59.00,56.35,0
36.00,54.46,0
36.00,52.60,0
53.00,50.78,0
44.00,49.25,0
50.00,48.05,0
55.00,47.18,0
57.00,46.77,0
41.00,46.64,0
51.00,46.58,0
38.00,46.48,0
76.00,46.55,0
58.00,47.11,0
90.00,48.30,0
71.00,50.19,0
86.00,52.59,0
78.00,55.33,0
89.00,58.32,0
84.00,61.47,0
60.00,64.45,0
62.00,66.78,0
57.00,68.34,0
58.00,69.20,0
68.00,69.55,0
48.00,69.52,0
62.00,69.07,0
36.00,68.16,0
39.00,66.65,0
38.00,64.55,0
46.00,62.15,0
36.00,59.64,0
35.00,57.02,0
72.00,54.61,0
47.00,52.85,0
54.00,51.59,0
44.00,50.57,0
53.00,49.73,0
37.00,49.00,0
62.00,48.38,0
52.00,48.08,0
73.00,48.23,0
64.00,48.91,0
82.00,50.15,0
92.00,52.08,0
90.00,54.78,0
70.00,57.85,0
65.00,60.71,0
73.00,63.12,0
73.00,65.22,0
74.00,67.08,0
75.00,68.73,0
61.00,70.06,0
37.00,70.69,0
48.00,70.34,0
44.00,69.19,0
61.00,67.67,0
42.00,65.99,0
41.00,64.06,0
62.00,62.02,0
53.00,60.23,0
35.00,58.54,0
59.00,56.83,0
47.00,55.31,0
46.00,53.96,0
46.00,52.69,0
61.00,51.62,0
46.00,50.87,0
68.00,50.44,0
65.00,50.49,0
55.00,50.95,0
49.00,51.47,0
74.00,52.04,0
80.00,53.05,0
80.00,54.65,0
70.00,56.63,0
73.00,58.68,0
50.00,60.50,0
83.00,62.00,0
51.00,63.30,0
55.00,64.17,0
46.00,64.43,0
95.00,64.49,0
53.00,64.79,0
43.00,64.89,0
51.00,64.40,0
40.00,63.42,0
46.00,62.04,0
55.00,60.49,0
38.00,58.91,0
36.00,57.14,0
70.00,55.40,0
49.00,54.10,0
35.00,53.01,0
52.00,51.83,0
51.00,50.80,0
60.00,50.11,0
61.00,49.84,0
55.00,49.95,0
68.00,50.36,0
67.00,51.14,0
75.00,52.33,0
78.00,53.94,0
74.00,55.90,0
72.00,58.00,0
71.00,60.07,0
80.00,62.09,0
66.00,64.02,0
64.00,65.66,0
65.00,66.87,0
61.00,67.69,0
52.00,68.05,0
50.00,67.86,0
51.00,67.15,0
40.00,65.97,0
60.00,64.47,0
35.00,62.81,0
38.00,60.85,0
36.00,58.57,0
35.00,56.09,0
87.00,53.95,0
42.00,52.61,0
49.00,51.68,0
49.00,50.82,0
52.00,50.14,0
60.00,49.72,0
63.00,49.70,0
66.00,50.13,0
91.00,51.16,0
72.00,52.91,0
86.00,55.14,0
46.00,57.41,0
81.00,59.37,0
69.00,61.19,0
74.00,62.97,0
68.00,64.60,0
56.00,65.90,0
48.00,66.60,0
49.00,66.59,0
70.00,66.17,0
80.00,65.89,0
41.00,65.74,0
50.00,65.20,0
42.00,64.16,0
37.00,62.65,0
35.00,60.68,0
35.00,58.36,0
38.00,55.84,0
42.00,53.35,0
39.00,51.02,0
47.00,48.95,0
58.00,47.33,0
54.00,46.33,0
41.00,45.76,0
71.00,45.52,0
60.00,45.84,0
53.00,46.58,0
55.00,47.44,0
49.00,48.27,0
78.00,49.21,0
60.00,50.50,0
67.00,51.99,0
71.00,53.60,0
74.00,55.38,0
57.00,57.19,0
68.00,58.79,0
78.00,60.30,0
94.00,62.08,0
61.00,64.09,0
64.00,65.81,0
46.00,66.88,0
41.00,67.10,0
34.00,66.39,0
49.00,64.96,0
40.00,63.14,0
36.00,61.03,0
43.00,58.70,0
43.00,56.35,0
49.00,54.17,0
39.00,52.21,0
51.00,50.47,0
52.00,49.07,0
51.00,48.09,0
55.00,47.48,0
54.00,47.23,0
60.00,47.32,0
78.00,47.91,0
63.00,49.08,0
70.00,50.62,0
68.00,52.35,0
76.00,54.27,0
67.00,56.31,0
81.00,58.40,0
57.00,60.42,0
52.00,62.00,0
65.00,63.02,0
72.00,63.81,0
49.00,64.44,0
58.00,64.66,0
43.00,64.41,0
38.00,63.59,0
34.00,62.13,0
41.00,60.17,0
42.00,58.01,0
44.00,55.85,0
52.00,53.86,0
38.00,52.11,0
52.00,50.54,0
57.00,49.32,0
56.00,48.60,0
48.00,48.24,0
63.00,48.15,0
49.00,48.33,0
53.00,48.64,0
38.00,48.86,0
73.00,49.09,0
57.00,49.62,0
73.00,50.53,0
75.00,51.86,0
84.00,53.70,0
70.00,55.90,0
88.00,58.31,0
57.00,60.72,0
41.00,62.55,0
68.00,63.59,0
74.00,64.35,0
60.00,65.08,0
102.00,65.93,0
52.00,67.01,0
48.00,67.71,0
36.00,67.53,0
64.00,66.68,0
41.00,65.52,0
36.00,63.98,0
60.00,62.13,0
32.00,60.22,0
47.00,58.19,0
47.00,56.15,0
48.00,54.31,0
41.00,52.64,0
68.00,51.27,0
44.00,50.35,0
65.00,49.82,0
45.00,49.57,0
54.00,49.48,0
68.00,49.59,0
94.00,50.38,0
50.00,51.86,0
80.00,53.54,0
51.00,55.20,0
60.00,56.63,0
58.00,57.75,0
61.00,58.64,0
50.00,59.28,0
72.00,59.74,0
52.00,60.14,0
61.00,60.42,0
51.00,60.49,0
59.00,60.38,0
35.00,59.99,0
48.00,59.16,0
41.00,58.01,0
41.00,56.62,0
50.00,55.13,0
40.00,53.66,0
46.00,52.23,0
39.00,50.84,0
56.00,49.58,0
46.00,48.61,0
50.00,47.91,0
44.00,47.36,0
49.00,46.92,0
48.00,46.61,0
66.00,46.58,0
57.00,46.97,0
93.00,47.98,0
63.00,49.70,0
71.00,51.77,0
63.00,53.85,0
68.00,55.83,0
55.00,57.60,0
78.00,59.15,0
59.00,60.61,0
58.00,61.81,0
60.00,62.62,0
54.00,63.08,0
40.00,63.06,0
51.00,62.48,0
34.00,61.43,0
64.00,60.11,0
51.00,58.89,0
42.00,57.73,0
46.00,56.43,0
36.00,54.99,0
42.00,53.40,0
36.00,51.72,0
44.00,50.03,0
52.00,48.56,0
50.00,47.47,0
64.00,46.85,0
49.00,46.71,0
61.00,46.90,0
65.00,47.45,0
73.00,48.47,0
61.00,49.90,0
58.00,51.44,0
54.00,52.81,0
79.00,54.13,0
69.00,55.67,0
65.00,57.34,0
86.00,59.06,0
61.00,60.88,0
70.00,62.55,0
47.00,63.80,0
38.00,64.31,0
40.00,63.92,0
50.00,62.90,0
47.00,61.60,0
36.00,60.06,0
36.00,58.19,0
35.00,56.02,0
36.00,53.70,0
47.00,51.43,0
38.00,49.40,0
49.00,47.64,0
36.00,46.15,0
52.00,44.92,0
58.00,44.14,0
61.00,43.98,0
61.00,44.41,0
62.00,45.29,0
45.00,46.37,0
69.00,47.48,0
63.00,48.79,0
61.00,50.30,0
42.00,51.65,0
73.00,52.77,0
70.00,54.02,0
88.00,55.67,0
68.00,57.68,0
53.00,59.59,0
41.00,60.85,0
47.00,61.30,0
43.00,61.08,0
42.00,60.34,0
36.00,59.12,0
36.00,57.48,0
40.00,55.54,0
38.00,53.51,0
33.00,51.42,0
58.00,49.48,0
42.00,47.94,0
50.00,46.77,0
50.00,45.93,0
53.00,45.44,0
62.00,45.38,0
56.00,45.75,0
57.00,46.43,0
49.00,47.23,0
54.00,48.00,0
64.00,48.82,0
81.00,50.01,0
66.00,51.67,0
67.00,53.54,0
54.00,55.29,0
48.00,56.63,0
44.00,57.38,0
81.00,57.85,0
70.00,58.57,0
65.00,59.56,0
44.00,60.35,0
50.00,60.64,0
41.00,60.37,0
40.00,59.60,0
47.00,58.43,0
35.00,57.00,0
41.00,55.34,0
56.00,53.68,0
38.00,52.23,0
39.00,50.81,0
49.00,49.41,0
47.00,48.24,0
49.00,47.34,0
57.00,46.76,0
52.00,46.55,0
42.00,46.53,0
59.00,46.58,0
46.00,46.79,0
35.00,46.94,0
60.00,46.95,0
47.00,47.08,0
63.00,47.42,0
71.00,48.12,0
67.00,49.32,0
57.00,50.77,0
70.00,52.26,0
66.00,53.85,0
81.00,55.62,0
58.00,57.48,0
44.00,58.99,0
47.00,59.78,0
37.00,59.86,0
37.00,59.24,0
67.00,58.28,0
38.00,57.36,0
36.00,56.24,0
54.00,54.88,0
35.00,53.51,0
49.00,52.13,0
51.00,50.88,0
65.00,50.03,0
41.00,49.57,0
53.00,49.23,0
38.00,48.87,0
56.00,48.51,0
47.00,48.26,0
54.00,48.17,0
35.00,48.07,0
91.00,48.18,0
55.00,48.92,0
97.00,50.34,0
46.00,52.19,0
74.00,54.05,0
69.00,55.85,0
64.00,57.65,0
56.00,59.20,0
69.00,60.45,0
48.00,61.40,0
84.00,62.15,0
49.00,62.86,0
65.00,63.35,0
38.00,63.42,0
42.00,62.88,0
36.00,61.69,0
61.00,60.19,0
53.00,58.80,0
40.00,57.52,0
53.00,56.17,0
51.00,54.92,0
91.00,54.18,0
46.00,54.15,0
40.00,54.18,0
42.00,53.80,0
65.00,53.29,0
46.00,52.95,0
73.00,52.84,0
58.00,53.08,0
78.00,53.72,0
68.00,54.77,0
100.00,56.36,0
92.00,58.69,0
73.00,61.48,0
55.00,63.99,0
42.00,65.63,0
35.00,66.14,0
55.00,65.71,0
40.00,64.74,0
46.00,63.36,0
34.00,61.58,0
38.00,59.45,0
66.00,57.31,0
49.00,55.60,0
42.00,54.17,0
49.00,52.79,0
61.00,51.67,0
45.00,50.89,0
64.00,50.39,0
66.00,50.32,0
71.00,50.81,0
55.00,51.68,0
73.00,52.74,0
47.00,53.84,0
78.00,54.93,0
58.00,56.09,0
94.00,57.50,0
73.00,59.32,0
59.00,61.20,0
48.00,62.59,0
62.00,63.37,0
62.00,63.80,0
51.00,63.98,0
59.00,63.85,0
60.00,63.52,0
46.00,63.04,0
81.00,62.51,0
38.00,62.07,0
76.00,61.62,0
37.00,61.11,0
38.00,60.25,0
45.00,58.91,0
50.00,57.41,0
40.00,55.90,0
47.00,54.37,0
49.00,52.92,0
49.00,51.68,0
50.00,50.65,0
48.00,49.82,0
74.00,49.37,0
38.00,49.32,0
51.00,49.32,0
59.00,49.33,0
67.00,49.66,0
43.00,50.22,0
85.00,50.95,0
51.00,52.00,0
48.00,53.02,0
72.00,53.85,0
73.00,54.90,0
73.00,56.28,0
53.00,57.71,0
58.00,58.86,0
55.00,59.63,0
48.00,60.03,0
62.00,60.12,0
39.00,59.94,0
42.00,59.33,0
45.00,58.29,0
38.00,56.97,0
41.00,55.43,0
41.00,53.75,0
60.00,52.21,0
45.00,51.02,0
78.00,50.31,0
46.00,50.15,0
78.00,50.42,0
63.00,51.15,0
50.00,52.12,0
49.00,52.88,0
61.00,53.44,0
43.00,53.86,0
82.00,54.30,0
69.00,55.12,0
76.00,56.37,0
42.00,57.63,0
79.00,58.65,0
56.00,59.61,0
59.00,60.43,0
53.00,60.93,0
62.00,61.17,0
59.00,61.28,0
51.00,61.25,0
54.00,60.97,0
48.00,60.46,0
36.00,59.60,0
55.00,58.42,0
35.00,57.09,0
38.00,55.53,0
41.00,53.77,0
46.00,52.02,0
83.00,50.76,0
61.00,50.38,0
52.00,50.55,0
49.00,50.78,0
52.00,50.95,0
36.00,50.95,0
71.00,50.88,0
46.00,51.00,0
45.00,51.12,0
53.00,51.09,0
74.00,51.23,0
44.00,51.68,0
74.00,52.26,0
55.00,53.03,0
47.00,53.76,0
39.00,54.09,0
61.00,54.09,0
67.00,54.19,0
45.00,54.46,0
44.00,54.52,0
45.00,54.23,0
35.00,53.62,0
47.00,52.72,0
35.00,51.65,0
40.00,50.43,0
54.00,49.24,0
38.00,48.24,0
48.00,47.35,0
38.00,46.54,0
50.00,45.82,0
64.00,45.42,0
56.00,45.55,0
64.00,46.12,0
49.00,46.96,0
42.00,47.73,0
59.00,48.32,0
43.00,48.85,0
56.00,49.30,0
52.00,49.72,0
74.00,50.33,0
64.00,51.31,0
68.00,52.59,0
56.00,53.94,0
63.00,55.19,0
54.00,56.27,0
47.00,57.03,0
37.00,57.24,0
46.00,56.90,0
56.00,56.28,0
45.00,55.63,0
36.00,54.80,0
37.00,53.63,0
37.00,52.18,0
34.00,50.55,0
46.00,48.89,0
36.00,47.34,0
56.00,46.04,0
37.00,45.06,0
57.00,44.37,0
36.00,43.93,0
71.00,43.79,0
42.00,44.06,0
52.00,44.51,0
56.00,45.06,0
61.00,45.84,0
51.00,46.81,0
57.00,47.82,0
46.00,48.75,0
73.00,49.68,0
57.00,50.81,0
71.00,52.12,0
47.00,53.42,0
91.00,54.76,0
48.00,56.26,0
54.00,57.53,0
48.00,58.28,0
55.00,58.62,0
69.00,58.81,0
73.00,59.21,0
37.00,59.64,0
39.00,59.54,0
39.00,58.75,0
37.00,57.48,0
50.00,55.97,0
56.00,54.57,0
56.00,53.50,0
35.00,52.60,0
45.00,51.58,0
52.00,50.57,0
72.00,49.96,0
49.00,49.86,0
62.00,50.07,0
50.00,50.41,0
66.00,50.89,0
62.00,51.59,0
91.00,52.74,0
43.00,54.24,0
72.00,55.64,0
52.00,56.85,0
58.00,57.82,0
50.00,58.44,0
42.00,58.64,0
54.00,58.40,0
62.00,58.04,0
60.00,57.82,0
58.00,57.72,0
48.00,57.59,0
48.00,57.25,0
35.00,56.58,0
61.00,55.68,0
35.00,54.74,0
42.00,53.65,0
56.00,52.49,0
36.00,51.44,0
48.00,50.40,0
35.00,49.32,0
61.00,48.35,0
48.00,47.71,0
61.00,47.45,0
46.00,47.47,0
57.00,47.65,0
50.00,47.96,0
103.00,48.76,0
58.00,50.34,0
90.00,52.44,0
52.00,54.69,0
69.00,56.77,0
34.00,58.33,0
87.00,59.43,0
61.00,60.53,0
42.00,61.44,0
51.00,61.72,0
49.00,61.49,0
51.00,60.93,0
43.00,60.09,0
37.00,58.89,0
60.00,57.50,0
40.00,56.17,0
36.00,54.75,0
70.00,53.37,0
36.00,52.30,0
46.00,51.32,0
44.00,50.30,0
51.00,49.38,0
35.00,48.56,0
68.00,47.88,0
48.00,47.60,0
78.00,47.81,0
53.00,48.53,0
60.00,49.48,0
48.00,50.40,0
82.00,51.40,0
56.00,52.67,0
87.00,54.22,0
67.00,56.06,0
66.00,57.98,0
51.00,59.60,0
55.00,60.69,0
53.00,61.28,0
40.00,61.36,0
53.00,60.93,0
79.00,60.45,0
35.00,60.12,0
44.00,59.48,0
49.00,58.44,0
38.00,57.21,0
49.00,55.81,0
45.00,54.41,0
44.00,53.05,0
39.00,51.69,0
58.00,50.43,0
39.00,49.41,0
97.00,48.93,0
51.00,49.30,0
58.00,50.07,0
47.00,50.78,0
57.00,51.36,0
45.00,51.81,0
92.00,52.41,0
47.00,53.42,0
98.00,54.78,0
58.00,56.49,0
85.00,58.39,0
68.00,60.36,0
56.00,62.15,0
49.00,63.35,0
43.00,63.78,0
46.00,63.49,0
55.00,62.73,0
34.00,61.65,0
72.00,60.40,0
45.00,59.29,0
35.00,58.12,0
46.00,56.64,0
42.00,55.03,0
37.00,53.38,0
44.00,51.68,0
51.00,50.13,0
49.00,48.91,0
60.00,48.10,0
43.00,47.65,0
92.00,47.70,0
49.00,48.44,0
62.00,49.49,0
48.00,50.47,0
59.00,51.35,0
72.00,52.28,0
72.00,53.54,0
56.00,54.98,0
76.00,56.41,0
56.00,57.81,0
48.00,58.92,0
61.00,59.57,0
35.00,59.78,0
48.00,59.44,0
39.00,58.62,0
36.00,57.39,0
42.00,55.82,0
38.00,54.08,0
61.00,52.45,0
44.00,51.16,0
49.00,50.13,0
56.00,49.33,0
35.00,48.71,0
41.00,48.00,0
42.00,47.19,0
51.00,46.47,0
49.00,45.98,0
51.00,45.75,0
45.00,45.68,0
87.00,46.00,0
57.00,47.00,0
70.00,48.46,0
73.00,50.20,0
54.00,52.10,0
54.00,53.76,0
72.00,55.18,0
58.00,56.55,0
76.00,57.91,0
52.00,59.19,0
56.00,60.16,0
50.00,60.67,0
43.00,60.70,0
49.00,60.23,0
37.00,59.35,0
41.00,58.08,0
54.00,56.62,0
43.00,55.22,0
43.00,53.85,0
84.00,52.79,0
43.00,52.34,0
63.00,52.20,0
45.00,52.13,0
62.00,52.14,0
38.00,52.13,0
57.00,52.01,0
37.00,51.76,0
72.00,51.54,0
68.00,51.72,0
72.00,52.47,0
54.00,53.51,0
55.00,54.47,0
61.00,55.26,0
72.00,56.10,0
90.00,57.32,0
60.00,58.93,0
71.00,60.53,0
63.00,61.94,0
53.00,63.03,0
50.00,63.57,0
44.00,63.51,0
37.00,62.80,0
48.00,61.55,0
37.00,59.98,0
38.00,58.12,0
35.00,56.00,0
63.00,53.95,0
49.00,52.34,0
70.00,51.30,0
43.00,50.73,0
50.00,50.32,0
41.00,49.87,0
71.00,49.55,0
36.00,49.49,0
54.00,49.43,0
44.00,49.30,0
51.00,49.17,0
60.00,49.15,0
93.00,49.69,0
56.00,50.95,0
61.00,52.42,0
39.00,53.59,0
84.00,54.56,0
56.00,55.66,0
64.00,56.81,0
50.00,57.74,0
62.00,58.40,0
38.00,58.73,0
58.00,58.65,0
35.00,58.22,0
35.00,57.31,0
36.00,55.89,0
44.00,54.20,0
68.00,52.72,0
54.00,51.79,0
47.00,51.21,0
45.00,50.67,0
56.00,50.19,0
59.00,49.94,0
55.00,50.00,0
42.00,50.14,0
51.00,50.15,0
38.00,50.01,0
47.00,49.68,0
53.00,49.32,0
68.00,49.24,0
54.00,49.57,0
66.00,50.18,0
52.00,50.95,0
50.00,51.67,0
73.00,52.36,0
46.00,53.16,0
53.00,53.81,0
54.00,54.23,0
58.00,54.57,0
57.00,54.90,0
52.00,55.18,0
36.00,55.20,0
47.00,54.81,0
48.00,54.17,0
38.00,53.40,0
40.00,52.40,0
50.00,51.29,0
41.00,50.25,0
50.00,49.31,0
38.00,48.44,0
43.00,47.57,0
53.00,46.80,0
70.00,46.48,0
45.00,46.66,0
52.00,47.01,0
47.00,47.34,0
66.00,47.78,0
47.00,48.40,0
73.00,49.20,0
52.00,50.21,0
48.00,51.17,0
52.00,51.86,0
62.00,52.45,0
71.00,53.19,0
73.00,54.29,0
53.00,55.57,0
66.00,56.72,0
52.00,57.69,0
48.00,58.31,0
46.00,58.46,0
37.00,58.11,0
39.00,57.23,0
68.00,56.18,0
38.00,55.28,0
34.00,54.24,0
47.00,52.92,0
47.00,51.61,0
78.00,50.73,0
50.00,50.47,0
49.00,50.48,0
49.00,50.45,0
45.00,50.34,0
63.00,50.27,0
45.00,50.34,0
49.00,50.39,0
67.00,50.50,0
52.00,50.87,0
78.00,51.52,0
47.00,52.42,0
68.00,53.35,0
62.00,54.32,0
67.00,55.41,0
49.00,56.42,0
50.00,57.11,0
51.00,57.39,0
46.00,57.35,0
48.00,56.99,0
49.00,56.41,0
39.00,55.64,0
67.00,54.81,0
38.00,54.12,0
33.00,53.25,0
43.00,52.04,0
56.00,50.85,0
36.00,49.84,0
43.00,48.83,0
47.00,47.85,0
47.00,47.05,0
50.00,46.46,0
42.00,46.04,0
74.00,45.91,0
34.00,46.15,0
43.00,46.33,0
50.00,46.35,0
58.00,46.49,0
60.00,46.92,0
69.00,47.75,0
64.00,48.97,0
60.00,50.40,0
47.00,51.73,0
43.00,52.66,0
41.00,53.06,0
59.00,53.13,0
42.00,53.09,0
84.00,53.18,0
38.00,53.55,0
62.00,53.89,0
47.00,54.09,0
34.00,54.03,0
43.00,53.50,0
42.00,52.67,0
44.00,51.70,0
48.00,50.73,0
75.00,50.09,0
46.00,49.98,0
61.00,50.12,0
51.00,50.39,0
71.00,50.86,0
52.00,51.57,0
60.00,52.35,0
62.00,53.14,0
77.00,54.14,0
56.00,55.37,0
72.00,56.63,0
54.00,57.81,0
69.00,58.86,0
48.00,59.69,0
52.00,60.14,0
46.00,60.13,0
48.00,59.72,0
58.00,59.09,0
77.00,58.64,0
37.00,58.42,0
43.00,57.93,0
46.00,57.04,0
34.00,55.87,0
37.00,54.39,0
56.00,52.81,0
43.00,51.46,0
42.00,50.25,0
74.00,49.34,0
43.00,48.94,0
55.00,48.79,0
49.00,48.74,0
56.00,48.82,0
46.00,48.97,0
50.00,49.11,0
42.00,49.15,0
83.00,49.34,0
58.00,50.06,0
71.00,51.18,0
50.00,52.41,0
64.00,53.55,0
50.00,54.54,0
72.00,55.43,0
81.00,56.55,0
46.00,57.85,0
46.00,58.74,0
42.00,58.96,0
42.00,58.61,0
70.00,58.03,0
52.00,57.60,0
36.00,57.10,0
34.00,56.15,0
39.00,54.75,0
49.00,53.21,0
35.00,51.70,0
46.00,50.21,0
41.00,48.80,0
55.00,47.63,0
47.00,46.80,0
40.00,46.19,0
49.00,45.65,0
69.00,45.44,0
56.00,45.80,0
53.00,46.48,0
40.00,47.14,0
46.00,47.56,0
48.00,47.79,0
56.00,48.02,0
38.00,48.25,0
92.00,48.68,0
62.00,49.73,0
78.00,51.33,0
56.00,53.11,0
42.00,54.62,0
55.00,55.58,0
55.00,56.18,0
54.00,56.59,0
49.00,56.78,0
49.00,56.71,0
51.00,56.42,0
52.00,56.01,0
38.00,55.45,0
31.00,54.49,0
39.00,53.11,0
52.00,51.64,0
39.00,50.31,0
53.00,49.16,0
46.00,48.23,0
48.00,47.53,0
52.00,47.03,0
66.00,46.90,0
43.00,47.12,0
90.00,47.74,0
51.00,48.91,0
49.00,50.17,0
37.00,51.01,0
67.00,51.53,0
49.00,52.04,0
60.00,52.57,0
62.00,53.14,0
54.00,53.79,0
43.00,54.26,0
59.00,54.47,0
44.00,54.53,0
86.00,54.69,0
46.00,55.18,0
52.00,55.62,0
45.00,55.73,0
54.00,55.60,0
52.00,55.35,0
55.00,55.09,0
39.00,54.74,0
36.00,54.06,0
40.00,53.00,0
35.00,51.69,0
36.00,50.19,0
46.00,48.66,0
49.00,47.35,0
50.00,46.39,0
67.00,45.91,0
56.00,46.02,0
66.00,46.60,0
47.00,47.44,0
48.00,48.23,0
47.00,48.81,0
79.00,49.46,0
49.00,50.41,0
70.00,51.51,0
47.00,52.60,0
55.00,53.50,0
67.00,54.26,0
127.00,55.66,0
52.00,57.97,0
53.00,60.16,0
45.00,61.52,0
46.00,62.07,0
56.00,62.03,0
64.00,61.78,0
48.00,61.47,0
43.00,60.88,0
37.00,59.83,0
50.00,58.43,0
35.00,56.85,0
43.00,55.13,0
46.00,53.37,0
35.00,51.68,0
46.00,50.02,0
37.00,48.46,0
71.00,47.25,0
46.00,46.63,0
68.00,46.53,0
46.00,46.79,0
82.00,47.45,0
43.00,48.47,0
52.00,49.46,0
38.00,50.10,0
62.00,50.51,0
51.00,50.90,0
74.00,51.49,0
48.00,52.28,0
72.00,53.14,0
61.00,54.14,0
55.00,55.16,0
52.00,55.96,0
46.00,56.41,0
47.00,56.47,0
70.00,56.38,0
40.00,56.32,0
46.00,56.04,0
52.00,55.49,0
42.00,54.82,0
35.00,53.92,0
58.00,52.86,0
46.00,51.93,0
35.00,51.04,0
42.00,49.98,0
37.00,48.82,0
49.00,47.68,0
46.00,46.74,0
52.00,46.07,0
51.00,45.71,0
69.00,45.76,0
45.00,46.23,0
47.00,46.76,0
46.00,47.14,0
56.00,47.49,0
45.00,47.86,0
70.00,48.35,0
48.00,49.05,0
60.00,49.82,0
54.00,50.60,0
54.00,51.35,0
62.00,52.08,0
67.00,52.93,0
48.00,53.85,0
39.00,54.44,0
37.00,54.42,0
45.00,53.91,0
45.00,53.17,0
50.00,52.37,0
39.00,51.56,0
68.00,50.85,0
42.00,50.43,0
40.00,50.03,0
35.00,49.37,0
46.00,48.52,0
52.00,47.76,0
35.00,47.13,0
48.00,46.49,0
48.00,45.96,0
55.00,45.67,0
51.00,45.68,0
46.00,45.84,0
49.00,46.04,0
67.00,46.42,0
58.00,47.16,0
59.00,48.17,0
67.00,49.36,0
69.00,50.80,0
47.00,52.30,0
47.00,53.44,0
63.00,54.23,0
53.00,54.90,0
45.00,55.37,0
75.00,55.69,0
48.00,56.10,0
35.00,56.26,0
42.00,55.85,0
40.00,55.00,0
39.00,53.87,0
47.00,52.59,0
39.00,51.30,0
42.00,50.01,0
58.00,48.87,0
40.00,48.02,0
47.00,47.32,0
49.00,46.73,0
55.00,46.40,0
44.00,46.29,0
66.00,46.40,0
48.00,46.81,0
45.00,47.28,0
68.00,47.78,0
54.00,48.52,0
37.00,49.24,0
62.00,49.73,0
49.00,50.20,0
61.00,50.72,0
59.00,51.34,0
42.00,51.94,0
49.00,52.27,0
49.00,52.35,0
52.00,52.33,0
39.00,52.17,0
52.00,51.83,0
50.00,51.45,0
34.00,50.99,0
38.00,50.25,0
35.00,49.22,0
64.00,48.23,0
36.00,47.53,0
35.00,46.84,0
40.00,45.97,0
42.00,45.09,0
62.00,44.47,0
44.00,44.26,0
49.00,44.29,0
51.00,44.44,0
70.00,44.91,0
49.00,45.76,0
41.00,46.63,0
48.00,47.22,0
84.00,47.94,0
50.00,49.10,0
53.00,50.32,0
52.00,51.30,0
66.00,52.19,0
50.00,53.08,0
55.00,53.82,0
39.00,54.25,0
59.00,54.37,0
47.00,54.35,0
34.00,54.08,0
68.00,53.61,0
45.00,53.25,0
36.00,52.82,0
52.00,52.14,0
46.00,51.44,0
36.00,50.70,0
39.00,49.76,0
36.00,48.64,0
44.00,47.46,0
39.00,46.35,0
47.00,45.36,0
32.00,44.48,0
44.00,43.62,0
49.00,42.92,0
60.00,42.64,0
52.00,42.84,0
49.00,43.33,0
52.00,43.95,0
67.00,44.78,0
48.00,45.86,0
65.00,47.05,0
52.00,48.30,0
59.00,49.54,0
57.00,50.72,0
86.00,52.07,0
44.00,53.64,0
56.00,54.95,0
54.00,55.87,0
39.00,56.40,0
35.00,56.32,0
42.00,55.64,0
41.00,54.60,0
39.00,53.36,0
40.00,51.97,0
51.00,50.60,0
38.00,49.37,0
36.00,48.15,0
39.00,46.87,0
37.00,45.59,0
42.00,44.40,0
39.00,43.34,0
47.00,42.49,0
38.00,41.85,0
64.00,41.52,0
48.00,41.67,0
43.00,42.08,0
50.00,42.52,0
58.00,43.11,0
45.00,43.88,0
74.00,44.85,0
42.00,46.05,0
60.00,47.24,0
40.00,48.25,0
54.00,49.03,0
46.00,49.60,0
63.00,50.12,0
43.00,50.64,0
62.00,51.10,0
67.00,51.70,0
48.00,52.46,0
48.00,53.05,0
44.00,53.30,0
38.00,53.15,0
58.00,52.76,0
35.00,52.28,0
40.00,51.57,0
72.00,50.88,0
43.00,50.54,0
37.00,50.23,0
70.00,49.87,0
56.00,49.88,0
39.00,50.06,0
55.00,50.11,0
43.00,50.07,0
55.00,50.01,0
47.00,49.96,0
54.00,49.95,0
49.00,49.98,0
57.00,50.07,0
42.00,50.19,0
48.00,50.17,0
49.00,50.05,0
65.00,50.05,0
48.00,50.27,0
81.00,50.77,0
54.00,51.66,0
47.00,52.57,0
57.00,53.22,0
53.00,53.72,0
72.00,54.27,0
59.00,55.01,0
44.00,55.69,0
36.00,55.88,0
41.00,55.46,0
42.00,54.63,0
36.00,53.52,0
51.00,52.27,0
35.00,51.02,0
50.00,49.80,0
56.00,48.80,0
37.00,48.08,0
68.00,47.57,0
47.00,47.44,0
61.00,47.61,0
43.00,47.92,0
54.00,48.24,0
38.00,48.44,0
70.00,48.65,0
36.00,48.97,0
52.00,49.19,0
50.00,49.31,0
58.00,49.50,0
51.00,49.81,0
48.00,50.11,0
59.00,50.39,0
62.00,50.82,0
41.00,51.32,0
44.00,51.55,0
40.00,51.42,0
63.00,51.17,0
52.00,51.09,0
35.00,51.01,0
38.00,50.59,0
45.00,49.88,0
34.00,49.04,0
39.00,48.03,0
34.00,46.88,0
35.00,45.64,0
48.00,44.44,0
36.00,43.43,0
47.00,42.62,0
41.00,42.00,0
54.00,41.66,0
40.00,41.58,0
51.00,41.67,0
52.00,41.97,0
50.00,42.51,0
47.00,43.15,0
60.00,43.90,0
50.00,44.81,0
66.00,45.89,0
48.00,47.09,0
57.00,48.26,0
53.00,49.34,0
62.00,50.38,0
48.00,51.37,0
40.00,52.05,0
55.00,52.36,0
50.00,52.52,0
46.00,52.56,0
82.00,52.71,0
37.00,53.12,0
65.00,53.50,0
34.00,53.69,0
38.00,53.46,0
39.00,52.75,0
36.00,51.71,0
48.00,50.53,0
42.00,49.39,0
64.00,48.52,0
46.00,48.04,0
60.00,47.88,0
43.00,47.90,0
68.00,48.10,0
58.00,48.62,0
48.00,49.34,0
43.00,49.87,0
62.00,50.25,0
46.00,50.64,0
53.00,50.97,0
55.00,51.25,0
71.00,51.70,0
41.00,52.30,0
45.00,52.67,0
45.00,52.66,0
36.00,52.32,0
43.00,51.65,0
38.00,50.76,0
34.00,49.67,0
39.00,48.40,0
40.00,47.09,0
36.00,45.81,0
59.00,44.75,0
39.00,44.05,0
45.00,43.57,0
47.00,43.23,0
52.00,43.11,0
35.00,43.14,0
48.00,43.14,0
46.00,43.17,0
59.00,43.42,0
41.00,43.87,0
43.00,44.28,0
45.00,44.55,0
62.00,44.89,0
38.00,45.38,0
74.00,46.00,0
49.00,46.90,0
41.00,47.80,0
49.00,48.38,0
40.00,48.71,0
53.00,48.85,0
48.00,48.94,0
52.00,49.05,0
50.00,49.19,0
47.00,49.31,0
41.00,49.30,0
35.00,49.02,0
44.00,48.46,0
34.00,47.74,0
48.00,46.93,0
58.00,46.32,0
39.00,46.00,0
39.00,45.68,0
36.00,45.19,0
56.00,44.71,0
35.00,44.37,0
56.00,44.15,0
49.00,44.15,0
46.00,44.34,0
53.00,44.62,0
44.00,44.98,0
43.00,45.28,0
65.00,45.63,0
44.00,46.18,0
60.00,46.83,0
47.00,47.51,0
59.00,48.23,0
48.00,48.94,0
54.00,49.59,0
45.00,50.10,0
55.00,50.48,0
46.00,50.76,0
35.00,50.80,0
46.00,50.48,0
44.00,49.99,0
40.00,49.40,0
80.00,49.00,0
35.00,49.03,0
37.00,48.98,0
76.00,48.84,0
36.00,48.99,0
43.00,49.06,0
45.00,48.87,0
53.00,48.64,0
36.00,48.41,0
53.00,48.11,0
42.00,47.80,0
58.00,47.61,0
44.00,47.55,0
53.00,47.58,0
37.00,47.58,0
48.00,47.45,0
35.00,47.17,0
47.00,46.76,0
47.00,46.36,0
76.00,46.32,0
49.00,46.81,0
60.00,47.58,0
50.00,48.40,0
80.00,49.40,0
52.00,50.71,0
38.00,51.86,0
50.00,52.49,0
36.00,52.66,0
43.00,52.43,0
55.00,51.97,0
34.00,51.46,0
32.00,50.64,0
37.00,49.46,0
33.00,48.08,0
36.00,46.58,0
44.00,45.14,0
39.00,43.89,0
50.00,42.92,0
54.00,42.36,0
44.00,42.20,0
67.00,42.42,0
39.00,42.98,0
58.00,43.66,0
46.00,44.39,0
48.00,45.12,0
39.00,45.68,0
76.00,46.26,0
56.00,47.22,0
43.00,48.30,0
50.00,49.11,0
51.00,49.71,0
46.00,50.15,0
53.00,50.45,0
50.00,50.68,0
44.00,50.81,0
38.00,50.68,0
40.00,50.22,0
38.00,49.50,0
34.00,48.55,0
59.00,47.58,0
35.00,46.82,0
60.00,46.25,0
39.00,45.90,0
45.00,45.63,0
36.00,45.28,0
68.00,45.04,0
42.00,45.14,0
44.00,45.35,0
44.00,45.45,0
48.00,45.50,0
48.00,45.60,0
63.00,45.87,0
42.00,46.34,0
62.00,46.90,0
40.00,47.48,0
71.00,48.11,0
48.00,48.90,0
53.00,49.70,0
44.00,50.30,0
66.00,50.80,0
50.00,51.38,0
51.00,51.91,0
44.00,52.21,0
39.00,52.19,0
48.00,51.85,0
36.00,51.29,0
31.00,50.42,0
38.00,49.22,0
34.00,47.84,0
35.00,46.37,0
55.00,45.04,0
37.00,44.04,0
46.00,43.28,0
52.00,42.76,0
51.00,42.61,0
45.00,42.74,0
48.00,42.99,0
55.00,43.38,0
56.00,44.00,0
42.00,44.75,0
40.00,45.33,0
36.00,45.58,0
72.00,45.78,0
41.00,46.25,0
53.00,46.80,0
44.00,47.24,0
49.00,47.58,0
38.00,47.76,0
61.00,47.85,0
49.00,48.07,0
46.00,48.34,0
38.00,48.42,0
40.00,48.23,0
52.00,47.89,0
41.00,47.58,0
35.00,47.16,0
38.00,46.52,0
37.00,45.71,0
34.00,44.80,0
51.00,43.91,0
36.00,43.20,0
48.00,42.65,0
40.00,42.25,0
40.00,41.93,0
37.00,41.60,0
88.00,41.64,0
46.00,42.46,0
47.00,43.56,0
37.00,44.41,0
47.00,44.98,0
51.00,45.43,0
78.00,46.15,0
42.00,47.23,0
61.00,48.34,0
35.00,49.22,0
55.00,49.80,0
47.00,50.19,0
41.00,50.39,0
46.00,50.32,0
50.00,50.11,0
44.00,49.87,0
40.00,49.50,0
39.00,48.94,0
35.00,48.15,0
34.00,47.14,0
40.00,45.99,0
79.00,45.20,0
38.00,45.06,0
41.00,45.09,0
44.00,44.97,0
56.00,44.92,0
40.00,45.02,0
75.00,45.35,0
45.00,46.05,0
51.00,46.84,0
48.00,47.50,0
59.00,48.14,0
44.00,48.77,0
55.00,49.30,0
49.00,49.75,0
59.00,50.21,0
45.00,50.64,0
55.00,50.99,0
43.00,51.20,0
51.00,51.25,0
47.00,51.18,0
61.00,51.14,0
38.00,51.13,0
49.00,50.97,0
45.00,50.66,0
38.00,50.21,0
44.00,49.57,0
40.00,48.81,0
35.00,47.94,0
35.00,46.89,0
58.00,45.88,0
34.00,45.14,0
79.00,44.77,0
38.00,44.91,0
45.00,45.19,0
46.00,45.34,0
47.00,45.48,0
44.00,45.60,0
75.00,45.92,0
60.00,46.75,0
45.00,47.83,0
43.00,48.66,0
53.00,49.20,0
42.00,49.56,0
59.00,49.82,0
43.00,50.05,0
45.00,50.13,0
59.00,50.13,0
40.00,50.15,0
54.00,50.10,0
42.00,49.97,0
36.00,49.67,0
36.00,49.02,0
46.00,48.19,0
35.00,47.31,0
36.00,46.33,0
46.00,45.32,0
37.00,44.42,0
34.00,43.54,0
76.00,42.92,0
34.00,42.86,0
56.00,43.05,0
40.00,43.31,0
55.00,43.65,0
49.00,44.12,0
53.00,44.71,0
36.00,45.26,0
112.00,46.15,0
54.00,47.89,0
59.00,49.94,0
49.00,51.67,0
54.00,53.02,0
47.00,53.99,0
94.00,54.94,0
40.00,56.11,0
55.00,57.05,0
46.00,57.48,0
56.00,57.59,0
53.00,57.52,0
59.00,57.38,0
76.00,57.43,0
40.00,57.64,0
44.00,57.54,0
35.00,56.91,0
38.00,55.81,0
46.00,54.42,0
35.00,52.93,0
37.00,51.31,0
40.00,49.62,0
34.00,47.94,0
39.00,46.30,0
44.00,44.80,0
50.00,43.65,0
36.00,42.82,0
62.00,42.29,0
42.00,42.17,0
53.00,42.32,0
45.00,42.63,0
48.00,43.04,0
37.00,43.39,0
50.00,43.65,0
47.00,43.93,0
54.00,44.32,0
43.00,44.79,0
50.00,45.24,0
46.00,45.64,0
53.00,46.05,0
42.00,46.45,0
71.00,46.93,0
35.00,47.56,0
39.00,47.95,0
57.00,48.07,0
38.00,48.15,0
49.00,48.12,0
47.00,48.02,0
38.00,47.85,0
43.00,47.52,0
42.00,47.06,0
32.00,46.48,0
50.00,45.79,0
47.00,45.22,0
58.00,44.98,0
42.00,45.00,0
44.00,45.07,0
36.00,45.00,0
56.00,44.88,0
52.00,44.96,0
47.00,45.25,0
41.00,45.52,0
50.00,45.70,0
39.00,45.81,0
55.00,45.89,0
34.00,45.95,0
51.00,45.91,0
50.00,45.91,0
44.00,45.99,0
57.00,46.15,0
77.00,46.69,0
50.00,47.71,0
39.00,48.69,0
48.00,49.29,0
36.00,49.52,0
48.00,49.45,0
55.00,49.30,0
40.00,49.20,0
35.00,48.90,0
39.00,48.29,0
49.00,47.57,0
40.00,46.91,0
47.00,46.31,0
44.00,45.80,0
47.00,45.40,0
45.00,45.11,0
47.00,44.92,0
52.00,44.87,0
61.00,45.09,0
42.00,45.56,0
48.00,46.01,0
41.00,46.30,0
43.00,46.43,0
43.00,46.39,0
51.00,46.32,0
37.00,46.24,0
53.00,46.12,0
39.00,46.00,0
40.00,45.81,0
63.00,45.66,0
74.00,46.02,0
38.00,46.83,0
51.00,47.55,0
46.00,48.07,0
63.00,48.58,0
42.00,49.13,0
41.00,49.48,0
48.00,49.52,0
41.00,49.39,0
57.00,49.20,0
53.00,49.15,0
79.00,49.49,0
43.00,50.22,0
64.00,51.00,0
38.00,51.64,0
69.00,52.15,0
50.00,52.67,0
61.00,53.23,0
47.00,53.71,0
59.00,54.06,0
41.00,54.25,0
55.00,54.21,0
37.00,53.94,0
48.00,53.41,0
62.00,52.86,0
67.00,52.66,0
45.00,52.77,0
62.00,52.91,0
38.00,52.99,0
44.00,52.79,0
43.00,52.29,0
35.00,51.54,0
45.00,50.57,0
41.00,49.53,0
48.00,48.55,0
36.00,47.63,0
51.00,46.77,0
35.00,46.00,0
59.00,45.38,0
50.00,45.09,0
51.00,45.11,0
61.00,45.40,0
54.00,46.00,0
80.00,46.99,0
66.00,48.51,0
42.00,50.16,0
62.00,51.51,0
40.00,52.53,0
37.00,53.06,0
61.00,53.14,0
39.00,53.09,0
47.00,52.83,0
46.00,52.37,0
40.00,51.76,0
55.00,51.09,0
60.00,50.62,0
50.00,50.45,0
42.00,50.33,0
53.00,50.11,0
35.00,49.80,0
39.00,49.25,0
37.00,48.45,0
36.00,47.47,0
36.00,46.35,0
44.00,45.23,0
44.00,44.27,0
44.00,43.53,0
43.00,42.97,0
44.00,42.57,0
40.00,42.27,0
73.00,42.27,0
43.00,42.77,0
52.00,43.47,0
44.00,44.15,0
48.00,44.76,0
42.00,45.25,0
57.00,45.69,0
54.00,46.24,0
50.00,46.91,0
43.00,47.50,0
44.00,47.86,0
40.00,47.97,0
60.00,47.98,0
37.00,48.04,0
47.00,47.99,0
43.00,47.80,0
54.00,47.62,0
32.00,47.43,0
44.00,47.05,0
34.00,46.48,0
36.00,45.73,0
38.00,44.84,0
39.00,43.93,0
35.00,43.03,0
43.00,42.19,0
38.00,41.46,0
39.00,40.85,0
60.00,40.49,0
57.00,40.67,0
60.00,41.40,0
44.00,42.41,0
59.00,43.49,0
38.00,44.52,0
66.00,45.50,0
42.00,46.49,0
47.00,47.33,0
47.00,47.92,0
56.00,48.41,0
38.00,48.81,0
58.00,49.07,0
39.00,49.24,0
60.00,49.36,0
39.00,49.46,0
63.00,49.56,0
64.00,49.89,0
79.00,50.73,0
41.00,51.87,0
65.00,52.88,0
40.00,53.65,0
54.00,54.10,0
43.00,54.24,0
41.00,54.04,0
32.00,53.41,0
37.00,52.33,0
35.00,50.95,0
59.00,49.58,0
74.00,48.78,0
34.00,48.55,0
68.00,48.51,0
42.00,48.63,0
59.00,48.85,0
37.00,49.04,0
77.00,49.29,0
43.00,49.79,0
70.00,50.45,0
40.00,51.12,0
64.00,51.71,0
42.00,52.19,0
57.00,52.52,0
45.00,52.69,0
59.00,52.79,0
39.00,52.78,0
64.00,52.70,0
43.00,52.62,0
47.00,52.46,0
55.00,52.18,0
58.00,52.03,0
44.00,51.97,0
56.00,51.87,0
50.00,51.79,0
75.00,51.92,0
34.00,52.24,0
45.00,52.31,0
42.00,52.00,0
40.00,51.44,0
38.00,50.64,0
46.00,49.70,0
43.00,48.77,0
35.00,47.83,0
56.00,46.93,0
38.00,46.22,0
63.00,45.77,0
41.00,45.61,0
58.00,45.66,0
55.00,45.95,0
64.00,46.57,0
37.00,47.32,0
88.00,48.20,0
39.00,49.36,0
101.00,50.82,0
41.00,52.59,0
67.00,54.26,0
46.00,55.56,0
67.00,56.58,0
36.00,57.26,0
64.00,57.57,0
50.00,57.66,0
46.00,57.57,0
41.00,57.10,0
47.00,56.30,0
41.00,55.29,0
50.00,54.17,0
39.00,53.02,0
46.00,51.83,0
45.00,50.67,0
41.00,49.58,0
48.00,48.55,0
51.00,47.72,0
56.00,47.22,0
48.00,47.02,0
64.00,47.10,0
35.00,47.35,0
60.00,47.58,0
40.00,47.79,0
60.00,48.02,0
56.00,48.40,0
90.00,49.24,0
46.00,50.59,0
52.00,51.87,0
46.00,52.75,0
60.00,53.36,0
36.00,53.73,0
74.00,53.93,0
50.00,54.24,0
56.00,54.58,0
43.00,54.73,0
54.00,54.66,0
44.00,54.40,0
44.00,53.94,0
46.00,53.28,0
70.00,52.72,0
35.00,52.38,0
48.00,51.94,0
53.00,51.41,0
45.00,50.95,0
31.00,50.36,0
42.00,49.47,0
44.00,48.47,0
34.00,47.47,0
58.00,46.54,0
35.00,45.83,0
58.00,45.31,0
49.00,45.07,0
65.00,45.22,0
41.00,45.67,0
54.00,46.15,0
46.00,46.61,0
54.00,47.07,0
51.00,47.56,0
59.00,48.13,0
34.00,48.66,0
68.00,49.06,0
48.00,49.55,0
100.00,50.47,0
48.00,51.94,0
47.00,53.36,0
47.00,54.23,0
55.00,54.72,0
40.00,54.90,0
46.00,54.72,0
45.00,54.24,0
53.00,53.64,0
40.00,52.99,0
36.00,52.14,0
42.00,51.04,0
39.00,49.83,0
50.00,48.66,0
50.00,47.74,0
54.00,47.14,0
48.00,46.83,0
54.00,46.74,0
37.00,46.72,0
50.00,46.63,0
48.00,46.55,0
58.00,46.63,0
51.00,46.93,0
73.00,47.54,0
36.00,48.35,0
49.00,48.98,0
45.00,49.31,0
74.00,49.70,0
40.00,50.27,0
71.00,50.91,0
52.00,51.65,0
55.00,52.40,0
46.00,52.96,0
47.00,53.23,0
46.00,53.22,0
47.00,52.99,0
40.00,52.55,0
42.00,51.87,0
39.00,50.99,0
44.00,50.00,0
36.00,48.93,0
46.00,47.85,0
41.00,46.84,0
36.00,45.88,0
82.00,45.24,0
38.00,45.24,0
61.00,45.55,0
39.00,45.92,0
56.00,46.30,0
42.00,46.65,0
63.00,47.06,0
42.00,47.54,0
43.00,47.91,0
44.00,48.03,0
47.00,48.01,0
46.00,47.92,0
71.00,48.01,0
50.00,48.45,0
59.00,49.09,0
46.00,49.72,0
60.00,50.29,0
45.00,50.81,0
78.00,51.41,0
50.00,52.25,0
44.00,52.99,0
51.00,53.36,0
46.00,53.47,0
52.00,53.39,0
75.00,53.43,0
38.00,53.68,0
47.00,53.73,0
72.00,53.67,0
44.00,53.80,0
34.00,53.72,0
45.00,53.18,0
44.00,52.41,0
35.00,51.47,0
71.00,50.58,0
54.00,50.14,0
65.00,50.17,0
44.00,50.42,0
60.00,50.70,0
35.00,50.88,0
56.00,50.88,0
66.00,50.95,0
72.00,51.47,0
38.00,52.21,0
62.00,52.79,0
47.00,53.21,0
85.00,53.76,0
62.00,54.71,0
100.00,56.18,0
41.00,57.94,0
55.00,59.32,0
50.00,60.07,0
46.00,60.32,0
40.00,60.01,0
71.00,59.42,0
38.00,58.83,0
38.00,57.97,0
56.00,56.79,0
38.00,55.58,0
39.00,54.23,0
44.00,52.73,0
45.00,51.27,0
47.00,49.96,0
64.00,48.99,0
44.00,48.45,0
51.00,48.11,0
47.00,47.86,0
51.00,47.70,0
54.00,47.69,0
73.00,48.01,0
46.00,48.71,0
48.00,49.38,0
47.00,49.83,0
66.00,50.24,0
46.00,50.75,0
73.00,51.37,0
47.00,52.12,0
58.00,52.83,0
54.00,53.41,0
68.00,54.02,0
54.00,54.71,0
80.00,55.55,0
41.00,56.45,0
42.00,56.96,0
47.00,56.89,0
42.00,56.43,0
40.00,55.62,0
63.00,54.70,0
33.00,53.83,0
38.00,52.77,0
56.00,51.59,0
36.00,50.52,0
48.00,49.50,0
47.00,48.56,0
47.00,47.80,0
37.00,47.12,0
69.00,46.61,0
38.00,46.45,0
59.00,46.47,0
44.00,46.61,0
60.00,46.88,0
42.00,47.24,0
70.00,47.72,0
36.00,48.31,0
59.00,48.82,0
53.00,49.31,0
71.00,50.00,0
51.00,50.91,0
65.00,51.88,0
44.00,52.76,0
43.00,53.31,0
48.00,53.44,0
39.00,53.24,0
35.00,52.65,0
72.00,51.96,0
35.00,51.49,0
40.00,50.93,0
44.00,50.13,0
46.00,49.30,0
35.00,48.46,0
42.00,47.52,0
51.00,46.64,0
36.00,45.92,0
62.00,45.38,0
37.00,45.10,0
44.00,44.89,0
49.00,44.68,0
60.00,44.71,0
50.00,45.07,0
73.00,45.77,0
50.00,46.83,0
49.00,47.92,0
44.00,48.75,0
55.00,49.36,0
38.00,49.78,0
62.00,50.04,0
50.00,50.34,0
57.00,50.72,0
46.00,51.06,0
50.00,51.28,0
41.00,51.29,0
45.00,51.07,0
39.00,50.62,0
48.00,50.01,0
43.00,49.37,0
46.00,48.74,0
45.00,48.14,0
48.00,47.61,0
42.00,47.14,0
35.00,46.61,0
47.00,45.98,0
34.00,45.33,0
46.00,44.67,0
35.00,44.02,0
62.00,43.54,0
43.00,43.41,0
64.00,43.62,0
42.00,44.10,0
54.00,44.68,0
47.00,45.27,0
38.00,45.76,0
47.00,46.02,0
38.00,46.10,0
40.00,45.99,0
64.00,45.89,0
40.00,46.02,0
66.00,46.32,0
47.00,46.84,0
60.00,47.50,0
53.00,48.24,0
55.00,49.05,0
51.00,49.80,0
39.00,50.35,0
50.00,50.58,0
71.00,50.82,0
44.00,51.27,0
54.00,51.68,0
37.00,51.85,0
40.00,51.64,0
44.00,51.11,0
37.00,50.37,0
54.00,49.57,0
46.00,48.90,0
52.00,48.41,0
42.00,48.03,0
55.00,47.72,0
40.00,47.50,0
54.00,47.33,0
50.00,47.27,0
61.00,47.44,0
48.00,47.82,0
57.00,48.29,0
43.00,48.75,0
37.00,48.98,0
40.00,48.83,0
64.00,48.59,0
49.00,48.60,0
62.00,48.86,0
49.00,49.27,0
46.00,49.66,0
37.00,49.78,0
49.00,49.62,0
47.00,49.37,0
47.00,49.11,0
46.00,48.84,0
39.00,48.48,0
36.00,47.94,0
55.00,47.31,0
52.00,46.91,0
37.00,46.67,0
67.00,46.54,0
38.00,46.63,0
57.00,46.82,0
36.00,46.97,0
59.00,47.08,0
53.00,47.32,0
50.00,47.71,0
45.00,48.07,0
70.00,48.49,0
41.00,49.07,0
58.00,49.63,0
43.00,50.06,0
66.00,50.47,0
46.00,50.94,0
67.00,51.48,0
52.00,52.10,0
54.00,52.71,0
48.00,53.14,0
44.00,53.32,0
43.00,53.18,0
57.00,52.86,0
55.00,52.62,0
37.00,52.38,0
50.00,51.95,0
41.00,51.37,0
35.00,50.62,0
58.00,49.77,0
38.00,49.04,0
35.00,48.26,0
68.00,47.53,0
36.00,47.11,0
36.00,46.69,0
45.00,46.09,0
44.00,45.52,0
39.00,45.00,0
46.00,44.51,0
47.00,44.13,0
47.00,43.93,0
45.00,43.87,0
54.00,43.95,0
47.00,44.21,0
52.00,44.60,0
37.00,44.98,0
72.00,45.41,0
55.00,46.19,0
49.00,47.17,0
45.00,47.99,0
52.00,48.60,0
47.00,49.08,0
79.00,49.68,0
41.00,50.53,0
50.00,51.25,0
48.00,51.66,0
42.00,51.82,0
38.00,51.64,0
44.00,51.13,0
36.00,50.40,0
38.00,49.44,0
74.00,48.62,0
35.00,48.22,0
48.00,47.90,0
51.00,47.59,0
54.00,47.46,0
44.00,47.48,0
57.00,47.56,0
60.00,47.86,0
44.00,48.33,0
37.00,48.62,0
46.00,48.59,0
36.00,48.33,0
55.00,47.96,0
38.00,47.61,0
51.00,47.28,0
51.00,47.04,0
48.00,46.96,0
53.00,47.01,0
57.00,47.23,0
49.00,47.63,0
48.00,48.04,0
53.00,48.39,0
44.00,48.70,0
42.00,48.83,0
45.00,48.75,0
37.00,48.47,0
36.00,47.93,0
46.00,47.21,0
35.00,46.45,0
40.00,45.62,0
55.00,44.89,0
49.00,44.50,0
49.00,44.40,0
48.00,44.47,0
50.00,44.67,0
54.00,45.02,0
52.00,45.53,0
52.00,46.15,0
49.00,46.79,0
43.00,47.33,0
47.00,47.67,0
42.00,47.83,0
43.00,47.81,0
40.00,47.60,0
52.00,47.32,0
40.00,47.06,0
45.00,46.77,0
38.00,46.39,0
47.00,45.95,0
38.00,45.51,0
44.00,45.05,0
62.00,44.76,0
37.00,44.76,0
36.00,44.70,0
50.00,44.49,0
36.00,44.28,0
43.00,44.02,0
43.00,43.73,0
44.00,43.50,0
49.00,43.37,0
65.00,43.54,0
56.00,44.18,0
53.00,45.11,0
48.00,46.05,0
43.00,46.84,0
53.00,47.43,0
78.00,48.19,0
38.00,49.21,0
45.00,50.01,0
48.00,50.41,0
48.00,50.62,0
45.00,50.66,0
49.00,50.56,0
49.00,50.40,0
40.00,50.16,0
47.00,49.77,0
40.00,49.27,0
50.00,48.72,0
49.00,48.26,0
47.00,47.92,0
36.00,47.56,0
39.00,47.02,0
36.00,46.29,0
33.00,45.40,0
45.00,44.44,0
44.00,43.62,0
42.00,43.00,0
51.00,42.59,0
45.00,42.43,0
76.00,42.70,0
48.00,43.52,0
50.00,44.54,0
47.00,45.46,0
39.00,46.16,0
44.00,46.57,0
83.00,47.07,0
49.00,48.04,0
51.00,49.11,0
43.00,49.90,0
50.00,50.39,0
35.00,50.58,0
57.00,50.50,0
42.00,50.36,0
66.00,50.30,0
46.00,50.40,0
42.00,50.47,0
37.00,50.23,0
69.00,49.92,0
36.00,49.78,0
43.00,49.55,0
40.00,49.07,0
36.00,48.40,0
36.00,47.51,0
44.00,46.52,0
49.00,45.66,0
41.00,45.01,0
40.00,44.44,0
47.00,43.93,0
70.00,43.77,0
46.00,44.13,0
54.00,44.74,0
48.00,45.39,0
57.00,46.10,0
50.00,46.86,0
67.00,47.74,0
51.00,48.79,0
48.00,49.76,0
44.00,50.43,0
66.00,50.94,0
46.00,51.48,0
53.00,51.93,0
39.00,52.14,0
59.00,52.14,0
33.00,51.99,0
35.00,51.47,0
51.00,50.66,0
46.00,49.87,0
43.00,49.17,0
40.00,48.42,0
36.00,47.57,0
35.00,46.57,0
54.00,45.58,0
44.00,44.88,0
47.00,44.42,0
43.00,44.09,0
48.00,43.89,0
43.00,43.78,0
63.00,43.89,0
43.00,44.27,0
60.00,44.83,0
45.00,45.48,0
56.00,46.18,0
54.00,46.93,0
44.00,47.67,0
44.00,48.19,0
48.00,48.48,0
49.00,48.66,0
52.00,48.82,0
50.00,49.01,0
62.00,49.30,0
44.00,49.69,0
55.00,50.04,0
38.00,50.24,0
40.00,50.14,0
39.00,49.71,0
43.00,49.07,0
38.00,48.30,0
37.00,47.42,0
41.00,46.44,0
62.00,45.66,0
41.00,45.27,0
40.00,44.99,0
46.00,44.67,0
64.00,44.57,0
57.00,44.93,0
40.00,45.52,0
75.00,46.22,0
47.00,47.17,0
50.00,48.15,0
48.00,48.91,0
60.00,49.58,0
47.00,50.22,0
74.00,50.93,0
49.00,51.80,0
49.00,52.58,0
41.00,52.99,0
59.00,53.12,0
34.00,53.05,0
55.00,52.75,0
47.00,52.36,0
60.00,52.06,0
36.00,51.79,0
45.00,51.33,0
34.00,50.61,0
79.00,49.97,0
34.00,49.70,0
35.00,49.35,0
59.00,48.80,0
40.00,48.37,0
35.00,47.88,0
35.00,47.12,0
40.00,46.18,0
35.00,45.18,0
67.00,44.39,0
42.00,44.07,0
104.00,44.48,0
50.00,45.80,0
57.00,47.44,0
40.00,48.81,0
59.00,49.85,0
34.00,50.58,0
59.00,51.00,0
46.00,51.27,0
53.00,51.47,0
42.00,51.52,0
51.00,51.41,0
35.00,51.10,0
93.00,50.95,0
45.00,51.34,0
47.00,51.85,0
44.00,52.03,0
49.00,51.97,0
45.00,51.75,0
56.00,51.48,0
36.00,51.17,0
42.00,50.64,0
46.00,49.94,0
36.00,49.16,0
34.00,48.19,0
36.00,47.02,0
38.00,45.77,0
36.00,44.53,0
54.00,43.46,0
36.00,42.71,0
85.00,42.47,0
33.00,42.87,0
62.00,43.51,0
49.00,44.26,0
70.00,45.26,0
46.00,46.48,0
73.00,47.81,0
60.00,49.31,0
49.00,50.83,0
46.00,51.99,0
53.00,52.76,0
35.00,53.15,0
64.00,53.23,0
45.00,53.24,0
57.00,53.24,0
43.00,53.15,0
52.00,52.94,0
39.00,52.56,0
42.00,51.95,0
46.00,51.18,0
38.00,50.31,0
45.00,49.38,0
42.00,48.44,0
40.00,47.52,0
48.00,46.65,0
47.00,45.97,0
34.00,45.38,0
46.00,44.76,0
41.00,44.19,0
49.00,43.76,0
41.00,43.48,0
49.00,43.31,0
43.00,43.26,0
66.00,43.46,0
41.00,43.95,0
59.00,44.59,0
46.00,45.29,0
68.00,46.14,0
37.00,47.07,0
54.00,47.84,0
52.00,48.48,0
60.00,49.16,0
40.00,49.80,0
47.00,50.19,0
38.00,50.25,0
60.00,50.14,0
37.00,50.01,0
43.00,49.72,0
42.00,49.22,0
49.00,48.67,0
37.00,48.10,0
36.00,47.39,0
34.00,46.46,0
36.00,45.38,0
55.00,44.39,0
42.00,43.72,0
83.00,43.60,0
35.00,44.08,0
55.00,44.71,0
49.00,45.31,0
58.00,46.01,0
41.00,46.73,0
122.00,47.89,0
46.00,49.93,0
48.00,51.99,0
61.00,53.51,0
54.00,54.75,0
40.00,55.61,0
88.00,56.26,0
39.00,57.01,0
49.00,57.46,0
47.00,57.43,0
41.00,57.04,0
44.00,56.28,0
34.00,55.19,0
51.00,53.89,0
39.00,52.57,0
46.00,51.27,0
36.00,49.96,0
50.00,48.71,0
40.00,47.60,0
35.00,46.54,0
44.00,45.48,0
52.00,44.61,0
32.00,43.96,0
52.00,43.40,0
46.00,43.05,0
56.00,43.02,0
46.00,43.26,0
51.00,43.65,0
48.00,44.13,0
48.00,44.65,0
44.00,45.13,0
53.00,45.55,0
56.00,46.08,0
48.00,46.72,0
48.00,47.31,0
49.00,47.79,0
57.00,48.25,0
50.00,48.77,0
59.00,49.34,0
56.00,49.99,0
48.00,50.65,0
35.00,51.01,0
37.00,50.88,0
35.00,50.29,0
43.00,49.41,0
41.00,48.45,0
40.00,47.48,0
51.00,46.59,0
40.00,45.88,0
38.00,45.22,0
45.00,44.56,0
39.00,43.96,0
46.00,43.45,0
54.00,43.15,0
48.00,43.17,0
50.00,43.42,0
48.00,43.79,0
37.00,44.13,0
54.00,44.39,0
54.00,44.77,0
41.00,45.25,0
47.00,45.64,0
42.00,45.88,0
57.00,46.11,0
59.00,46.53,0
43.00,47.12,0
35.00,47.49,0
47.00,47.53,0
50.00,47.46,0
41.00,47.39,0
48.00,47.27,0
38.00,47.05,0
46.00,46.74,0
39.00,46.35,0
52.00,45.98,0
52.00,45.78,0
51.00,45.84,0
47.00,46.03,0
51.00,46.27,0
45.00,46.52,0
67.00,46.90,0
72.00,47.71,0
58.00,48.97,0
35.00,50.15,0
48.00,50.84,0
40.00,51.10,0
42.00,51.01,0
43.00,50.63,0
42.00,50.07,0
36.00,49.34,0
55.00,48.56,0
37.00,47.87,0
55.00,47.28,0
50.00,46.90,0
42.00,46.69,0
40.00,46.42,0
46.00,46.07,0
38.00,45.69,0
46.00,45.27,0
46.00,44.92,0
48.00,44.70,0
35.00,44.52,0
39.00,44.21,0
46.00,43.82,0
46.00,43.54,0
37.00,43.34,0
35.00,43.03,0
49.00,42.67,0
36.00,42.37,0
39.00,42.07,0
37.00,41.70,0
35.00,41.26,0
41.00,40.79,0
43.00,40.40,0
38.00,40.14,0
36.00,39.89,0
46.00,39.67,0
42.00,39.60,0
39.00,39.64,0
38.00,39.66,0
41.00,39.66,0
41.00,39.67,0
44.00,39.75,0
41.00,39.90,0
37.00,40.05,0
47.00,40.17,0
57.00,40.49,0
46.00,41.11,0
38.00,41.77,0
36.00,42.19,0
36.00,42.33,0
39.00,42.25,0
63.00,42.26,0
35.00,42.51,0
52.00,42.83,0
34.00,43.09,0
37.00,43.16,0
43.00,43.03,0
36.00,42.82,0
38.00,42.52,0
38.00,42.12,0
36.00,41.66,0
49.00,41.25,0
45.00,41.05,0
38.00,41.01,0
66.00,41.17,0
40.00,41.67,0
52.00,42.30,0
54.00,43.03,0
41.00,43.81,0
36.00,44.38,0
66.00,44.83,0
62.00,45.59,0
47.00,46.62,0
40.00,47.49,0
36.00,47.92,0
38.00,47.90,0
42.00,47.57,0
42.00,47.11,0
74.00,46.85,0
35.00,46.96,0
43.00,47.04,0
51.00,46.97,0
39.00,46.88,0
37.00,46.64,0
56.00,46.31,0
35.00,46.05,0
35.00,45.65,0
43.00,45.07,0
38.00,44.44,0
80.00,44.15,0
40.00,44.44,0
56.00,44.98,0
50.00,45.58,0
46.00,46.19,0
38.00,46.62,0
62.00,46.92,0
35.00,47.23,0
44.00,47.36,0
54.00,47.36,0
54.00,47.49,0
44.00,47.73,0
82.00,48.18,0
35.00,48.94,0
59.00,49.64,0
47.00,50.18,0
44.00,50.57,0
52.00,50.73,0
64.00,50.93,0
43.00,51.25,0
45.00,51.40,0
42.00,51.27,0
63.00,51.06,0
35.00,50.89,0
42.00,50.52,0
43.00,49.91,0
35.00,49.14,0
48.00,48.27,0
41.00,47.43,0
40.00,46.62,0
48.00,45.87,0
47.00,45.29,0
38.00,44.84,0
56.00,44.50,0
54.00,44.45,0
43.00,44.66,0
52.00,44.92,0
48.00,45.25,0
34.00,45.51,0
63.00,45.68,0
41.00,45.96,0
50.00,46.26,0
49.00,46.54,0
60.00,46.92,0
45.00,47.44,0
70.00,48.07,0
39.00,48.83,0
35.00,49.30,0
42.00,49.27,0
47.00,48.99,0
54.00,48.73,0
72.00,48.80,0
40.00,49.20,0
45.00,49.51,0
46.00,49.56,0
45.00,49.47,0
40.00,49.21,0
53.00,48.86,0
45.00,48.56,0
62.00,48.42,0
42.00,48.46,0
35.00,48.38,0
64.00,48.18,0
39.00,48.10,0
35.00,47.91,0
50.00,47.50,0
37.00,47.04,0
33.00,46.43,0
60.00,45.77,0
48.00,45.43,0
48.00,45.35,0
43.00,45.34,0
57.00,45.41,0
43.00,45.61,0
51.00,45.87,0
54.00,46.19,0
57.00,46.69,0
45.00,47.29,0
62.00,47.92,0
54.00,48.65,0
55.00,49.46,0
40.00,50.13,0
48.00,50.49,0
35.00,50.50,0
79.00,50.47,0
35.00,50.67,0
34.00,50.65,0
53.00,50.26,0
39.00,49.78,0
50.00,49.26,0
43.00,48.74,0
40.00,48.19,0
45.00,47.57,0
44.00,46.96,0
43.00,46.40,0
43.00,45.87,0
41.00,45.35,0
62.00,45.01,0
45.00,45.00,0
69.00,45.33,0
52.00,46.03,0
93.00,47.23,0
58.00,49.04,0
63.00,51.04,0
47.00,52.78,0
50.00,54.06,0
55.00,54.92,0
67.00,55.63,0
55.00,56.35,0
57.00,56.97,0
46.00,57.33,0
58.00,57.42,0
39.00,57.25,0
51.00,56.78,0
47.00,56.09,0
43.00,55.27,0
38.00,54.22,0
37.00,52.93,0
47.00,51.50,0
35.00,50.09,0
39.00,48.65,0
45.00,47.25,0
44.00,46.05,0
34.00,45.00,0
41.00,43.98,0
45.00,43.09,0
58.00,42.54,0
50.00,42.47,0
63.00,42.84,0
72.00,43.75,0
73.00,45.31,0
46.00,47.17,0
59.00,48.88,0
65.00,50.45,0
46.00,51.93,0
58.00,53.10,0
70.00,54.16,0
63.00,55.33,0
65.00,56.55,0
45.00,57.57,0
75.00,58.35,0
45.00,58.99,0
65.00,59.43,0
38.00,59.56,0
36.00,59.16,0
43.00,58.16,0
35.00,56.77,0
37.00,55.08,0
61.00,53.38,0
45.00,52.01,0
40.00,50.83,0
42.00,49.63,0
36.00,48.40,0
38.00,47.12,0
42.00,45.86,0
53.00,44.84,0
50.00,44.21,0
70.00,44.12,0
43.00,44.51,0
63.00,45.15,0
41.00,45.87,0
54.00,46.55,0
61.00,47.26,0
64.00,48.22,0
60.00,49.42,0
57.00,50.69,0
58.00,51.90,0
84.00,53.22,0
35.00,54.63,0
75.00,55.79,0
62.00,56.86,0
48.00,57.84,0
40.00,58.31,0
60.00,58.29,0
34.00,57.94,0
35.00,57.11,0
36.00,55.75,0
44.00,54.11,0
37.00,52.41,0
39.00,50.69,0
54.00,49.09,0
36.00,47.77,0
57.00,46.70,0
47.00,45.98,0
57.00,45.63,0
35.00,45.47,0
75.00,45.52,0
50.00,46.00,0
62.00,46.80,0
62.00,47.82,0
59.00,49.04,0
44.00,50.20,0
48.00,51.03,0
46.00,51.51,0
66.00,51.87,0
74.00,52.51,0
54.00,53.48,0
45.00,54.33,0
58.00,54.84,0
49.00,55.15,0
42.00,55.20,0
49.00,54.91,0
54.00,54.48,0
36.00,53.95,0
34.00,53.09,0
62.00,52.05,0
35.00,51.13,0
35.00,50.12,0
38.00,48.88,0
36.00,47.54,0
35.00,46.14,0
50.00,44.85,0
34.00,43.77,0
52.00,42.92,0
44.00,42.35,0
51.00,42.10,0
53.00,42.16,0
55.00,42.57,0
48.00,43.22,0
77.00,44.17,0
55.00,45.56,0
52.00,47.09,0
53.00,48.44,0
68.00,49.74,0
58.00,51.12,0
82.00,52.68,0
38.00,54.28,0
54.00,55.45,0
43.00,56.07,0
61.00,56.34,0
35.00,56.34,0
60.00,56.06,0
37.00,55.58,0
44.00,54.85,0
53.00,53.95,0
35.00,53.01,0
36.00,51.87,0
40.00,50.50,0
40.00,49.08,0
34.00,47.65,0
53.00,46.32,0
39.00,45.26,0
40.00,44.37,0
36.00,43.50,0
67.00,42.89,0
48.00,42.81,0
84.00,43.37,0
54.00,44.61,0
66.00,46.20,0
54.00,47.87,0
62.00,49.51,0
65.00,51.12,0
83.00,52.93,0
66.00,55.01,0
61.00,57.05,0
47.00,58.66,0
58.00,59.71,0
41.00,60.22,0
65.00,60.31,0
35.00,60.08,0
65.00,59.58,0
44.00,58.95,0
45.00,58.16,0
36.00,57.05,0
86.00,55.99,0
31.00,55.32,0
35.00,54.49,0
60.00,53.39,0
36.00,52.37,0
42.00,51.30,0
46.00,50.16,0
48.00,49.14,0
38.00,48.23,0
68.00,47.53,0
42.00,47.22,0
55.00,47.13,0
37.00,47.07,0
64.00,47.06,0
50.00,47.28,0
48.00,47.63,0
58.00,48.01,0
46.00,48.45,0
44.00,48.79,0
54.00,48.98,0
59.00,49.25,0
61.00,49.76,0
44.00,50.37,0
64.00,50.92,0
46.00,51.46,0
43.00,51.81,0
35.00,51.74,0
44.00,51.27,0
44.00,50.59,0
35.00,49.78,0
38.00,48.77,0
34.00,47.59,0
42.00,46.33,0
37.00,45.13,0
39.00,44.00,0
43.00,43.00,0
43.00,42.20,0
42.00,41.61,0
83.00,41.53,0
38.00,42.12,0
62.00,43.01,0
43.00,43.95,0
54.00,44.89,0
55.00,45.82,0
58.00,46.85,0
59.00,47.99,0
62.00,49.23,0
56.00,50.52,0
67.00,51.83,0
50.00,53.09,0
55.00,54.13,0
43.00,54.81,0
59.00,55.16,0
38.00,55.25,0
34.00,54.89,0
39.00,53.99,0
39.00,52.78,0
33.00,51.36,0
35.00,49.74,0
41.00,48.05,0
35.00,46.44,0
39.00,44.92,0
42.00,43.56,0
41.00,42.44,0
37.00,41.52,0
48.00,40.79,0
37.00,40.30,0
58.00,40.08,0
56.00,40.31,0
78.00,41.21,0
52.00,42.72,0
66.00,44.50,0
64.00,46.43,0
68.00,48.53,0
54.00,50.62,0
66.00,52.54,0
56.00,54.25,0
65.00,55.77,0
54.00,57.07,0
83.00,58.28,0
47.00,59.49,0
55.00,60.35,0
40.00,60.64,0
57.00,60.45,0
35.00,59.87,0
50.00,58.90,0
38.00,57.66,0
38.00,56.15,0
37.00,54.40,0
38.00,52.52,0
35.00,50.57,0
37.00,48.62,0
50.00,46.84,0
35.00,45.36,0
61.00,44.24,0
39.00,43.54,0
36.00,43.02,0
42.00,42.46,0
40.00,41.96,0
47.00,41.58,0
67.00,41.59,0
47.00,42.10,0
68.00,43.00,0
38.00,44.08,0
61.00,45.15,0
50.00,46.20,0
69.00,47.37,0
55.00,48.71,0
53.00,50.03,0
42.00,51.06,0
66.00,51.83,0
54.00,52.59,0
63.00,53.39,0
35.00,54.01,0
42.00,54.13,0
37.00,53.73,0
38.00,52.92,0
34.00,51.77,0
41.00,50.40,0
35.00,48.94,0
38.00,47.45,0
55.00,46.12,0
35.00,45.09,0
37.00,44.16,0
39.00,43.22,0
54.00,42.47,0
36.00,42.01,0
49.00,41.72,0
51.00,41.65,0
54.00,41.91,0
50.00,42.45,0
85.00,43.44,0
46.00,44.96,0
55.00,46.55,0
40.00,47.84,0
77.00,48.99,0
54.00,50.29,0
64.00,51.67,0
46.00,52.90,0
60.00,53.87,0
35.00,54.49,0
73.00,54.84,0
47.00,55.17,0
35.00,55.28,0
45.00,54.87,0
48.00,54.17,0
46.00,53.39,0
63.00,52.72,0
37.00,52.19,0
38.00,51.51,0
43.00,50.58,0
36.00,49.53,0
35.00,48.33,0
44.00,47.06,0
38.00,45.87,0
39.00,44.76,0
64.00,43.93,0
42.00,43.57,0
46.00,43.47,0
49.00,43.46,0
43.00,43.56,0
55.00,43.77,0
72.00,44.35,0
74.00,45.58,0
53.00,47.27,0
44.00,48.84,0
56.00,50.04,0
68.00,51.16,0
67.00,52.45,0
52.00,53.81,0
53.00,54.91,0
52.00,55.66,0
72.00,56.29,0
35.00,56.82,0
60.00,57.01,0
38.00,56.86,0
45.00,56.36,0
37.00,55.48,0
35.00,54.25,0
58.00,52.88,0
35.00,51.63,0
35.00,50.31,0
44.00,48.88,0
37.00,47.49,0
50.00,46.26,0
54.00,45.37,0
38.00,44.82,0
61.00,44.49,0
43.00,44.45,0
57.00,44.64,0
48.00,45.00,0
46.00,45.44,0
49.00,45.83,0
77.00,46.43,0
37.00,47.34,0
51.00,48.13,0
43.00,48.65,0
54.00,49.01,0
41.00,49.25,0
67.00,49.48,0
43.00,49.83,0
58.00,50.18,0
42.00,50.46,0
44.00,50.53,0
39.00,50.32,0
66.00,50.04,0
35.00,49.88,0
39.00,49.56,0
65.00,49.15,0
35.00,48.90,0
46.00,48.59,0
55.00,48.25,0
39.00,48.01,0
34.00,47.62,0
58.00,47.11,0
34.00,46.69,0
69.00,46.44,0
42.00,46.48,0
57.00,46.71,0
38.00,46.95,0
65.00,47.22,0
51.00,47.67,0
65.00,48.35,0
53.00,49.22,0
47.00,50.04,0
64.00,50.76,0
55.00,51.54,0
35.00,52.15,0
79.00,52.57,0
36.00,53.05,0
47.00,53.30,0
43.00,53.15,0
37.00,52.69,0
35.00,51.85,0
48.00,50.78,0
40.00,49.70,0
33.00,48.57,0
43.00,47.33,0
35.00,46.10,0
40.00,44.91,0
40.00,43.79,0
37.00,42.79,0
46.00,41.94,0
41.00,41.32,0
39.00,40.86,0
44.00,40.50,0
45.00,40.32,0
58.00,40.43,0
45.00,40.88,0
54.00,41.55,0
48.00,42.34,0
88.00,43.52,0
55.00,45.29,0
77.00,47.41,0
58.00,49.66,0
67.00,51.89,0
46.00,53.83,0
62.00,55.35,0
47.00,56.46,0
39.00,57.05,0
38.00,56.95,0
50.00,56.35,0
39.00,55.49,0
50.00,54.48,0
36.00,53.34,0
35.00,52.01,0
36.00,50.44,0
35.00,48.76,0
62.00,47.25,0
39.00,46.19,0
46.00,45.39,0
54.00,44.81,0
66.00,44.72,0
43.00,45.06,0
65.00,45.63,0
50.00,46.40,0
61.00,47.33,0
54.00,48.33,0
63.00,49.42,0
56.00,50.56,0
65.00,51.75,0
51.00,52.90,0
70.00,53.98,0
49.00,55.00,0
56.00,55.81,0
35.00,56.20,0
60.00,56.17,0
37.00,55.87,0
37.00,55.21,0
48.00,54.21,0
39.00,53.07,0
35.00,51.78,0
57.00,50.46,0
53.00,49.46,0
36.00,48.71,0
49.00,47.97,0
37.00,47.23,0
48.00,46.52,0
39.00,45.87,0
55.00,45.35,0
47.00,45.08,0
60.00,45.11,0
49.00,45.42,0
55.00,45.92,0
51.00,46.52,0
65.00,47.28,0
41.00,48.12,0
62.00,48.90,0
42.00,49.59,0
57.00,50.15,0
63.00,50.72,0
68.00,51.56,0
38.00,52.46,0
62.00,53.10,0
38.00,53.49,0
48.00,53.56,0
35.00,53.23,0
40.00,52.53,0
52.00,51.63,0
41.00,50.78,0
42.00,49.90,0
53.00,49.05,0
35.00,48.30,0
37.00,47.45,0
47.00,46.53,0
33.00,45.65,0
44.00,44.76,0
44.00,43.97,0
43.00,43.37,0
40.00,42.88,0
68.00,42.67,0
48.00,42.96,0
61.00,43.62,0
48.00,44.48,0
61.00,45.47,0
45.00,46.50,0
58.00,47.47,0
57.00,48.44,0
66.00,49.55,0
50.00,50.73,0
76.00,51.94,0
50.00,53.23,0
52.00,54.34,0
37.00,54.96,0
45.00,55.02,0
35.00,54.59,0
37.00,53.71,0
38.00,52.48,0
36.00,51.04,0
36.00,49.47,0
40.00,47.86,0
36.00,46.31,0
46.00,44.91,0
39.00,43.73,0
36.00,42.72,0
36.00,41.75,0
36.00,40.83,0
68.00,40.23,0
59.00,40.36,0
55.00,41.14,0
49.00,42.17,0
55.00,43.29,0
48.00,44.41,0
57.00,45.52,0
59.00,46.69,0
56.00,47.94,0
63.00,49.25,0
60.00,50.61,0
50.00,51.90,0
50.00,52.90,0
44.00,53.51,0
48.00,53.75,0
43.00,53.66,0
63.00,53.45,0
37.00,53.23,0
46.00,52.80,0
48.00,52.20,0
38.00,51.50,0
39.00,50.61,0
39.00,49.54,0
41.00,48.40,0
44.00,47.29,0
46.00,46.34,0
40.00,45.53,0
61.00,44.96,0
36.00,44.68,0
59.00,44.58,0
44.00,44.67,0
59.00,44.97,0
46.00,45.43,0
50.00,45.94,0
62.00,46.53,0
43.00,47.23,0
51.00,47.85,0
83.00,48.63,0
34.00,49.69,0
62.00,50.61,0
39.00,51.27,0
43.00,51.58,0
42.00,51.49,0
40.00,51.10,0
35.00,50.40,0
38.00,49.43,0
37.00,48.28,0
35.00,47.03,0
36.00,45.70,0
36.00,44.36,0
50.00,43.18,0
35.00,42.27,0
36.00,41.48,0
38.00,40.70,0
50.00,40.10,0
39.00,39.78,0
48.00,39.68,0
51.00,39.83,0
87.00,40.59,0
44.00,42.05,0
54.00,43.67,0
41.00,45.05,0
58.00,46.21,0
48.00,47.26,0
65.00,48.31,0
44.00,49.35,0
50.00,50.18,0
50.00,50.75,0
51.00,51.17,0
48.00,51.45,0
62.00,51.69,0
43.00,51.94,0
63.00,52.16,0
38.00,52.31,0
35.00,52.13,0
61.00,51.68,0
42.00,51.27,0
40.00,50.79,0
48.00,50.15,0
40.00,49.46,0
36.00,48.66,0
42.00,47.71,0
36.00,46.70,0
44.00,45.69,0
38.00,44.75,0
59.00,44.04,0
52.00,43.77,0
68.00,44.03,0
42.00,44.69,0
52.00,45.39,0
60.00,46.13,0
71.00,47.19,0
64.00,48.63,0
84.00,50.46,0
35.00,52.40,0
48.00,53.80,0
36.00,54.47,0
44.00,54.52,0
42.00,54.12,0
38.00,53.40,0
47.00,52.44,0
35.00,51.35,0
36.00,50.09,0
62.00,48.87,0
41.00,48.00,0
35.00,47.22,0
47.00,46.37,0
38.00,45.58,0
70.00,45.06,0
46.00,45.04,0
62.00,45.39,0
48.00,45.96,0
64.00,46.71,0
47.00,47.58,0
66.00,48.52,0
60.00,49.61,0
56.00,50.80,0
46.00,51.83,0
91.00,52.87,0
38.00,54.12,0
60.00,55.16,0
37.00,55.73,0
40.00,55.76,0
43.00,55.25,0
42.00,54.42,0
35.00,53.32,0
39.00,51.97,0
35.00,50.45,0
36.00,48.83,0
44.00,47.23,0
45.00,45.85,0
35.00,44.68,0
43.00,43.62,0
35.00,42.67,0
37.00,41.77,0
57.00,41.07,0
47.00,40.83,0
94.00,41.33,0
48.00,42.67,0
56.00,44.33,0
47.00,45.83,0
45.00,47.07,0
57.00,48.06,0
80.00,49.19,0
49.00,50.63,0
68.00,52.08,0
43.00,53.35,0
69.00,54.39,0
39.00,55.20,0
58.00,55.68,0
35.00,55.78,0
50.00,55.48,0
37.00,54.83,0
43.00,53.90,0
46.00,52.80,0
37.00,51.65,0
37.00,50.35,0
37.00,48.92,0
42.00,47.48,0
36.00,46.11,0
39.00,44.81,0
44.00,43.64,0
60.00,42.86,0
42.00,42.57,0
60.00,42.63,0
48.00,43.00,0
56.00,43.62,0
50.00,44.38,0
55.00,45.24,0
56.00,46.19,0
51.00,47.18,0
48.00,48.08,0
61.00,48.89,0
57.00,49.77,0
69.00,50.81,0
45.00,51.91,0
45.00,52.71,0
39.00,53.01,0
60.00,53.00,0
45.00,52.92,0
33.00,52.62,0
38.00,51.88,0
36.00,50.79,0
35.00,49.48,0
45.00,48.09,0
38.00,46.80,0
38.00,45.58,0
42.00,44.43,0
48.00,43.50,0
51.00,42.92,0
40.00,42.63,0
73.00,42.69,0
56.00,43.34,0
54.00,44.38,0
58.00,45.54,0
62.00,46.84,0
42.00,48.12,0
65.00,49.25,0
47.00,50.30,0
55.00,51.19,0
43.00,51.84,0
45.00,52.15,0
40.00,52.09,0
53.00,51.79,0
36.00,51.36,0
49.00,50.77,0
38.00,50.06,0
35.00,49.19,0
54.00,48.24,0
35.00,47.39,0
39.00,46.53,0
42.00,45.62,0
34.00,44.71,0
38.00,43.77,0
60.00,43.02,0
36.00,42.62,0
52.00,42.44,0
46.00,42.43,0
62.00,42.74,0
47.00,43.34,0
62.00,44.18,0
36.00,45.06,0
79.00,46.01,0
54.00,47.25,0
53.00,48.62,0
61.00,49.88,0
68.00,51.20,0
45.00,52.52,0
72.00,53.68,0
38.00,54.66,0
49.00,55.23,0
37.00,55.26,0
62.00,54.97,0
46.00,54.65,0
48.00,54.27,0
48.00,53.75,0
38.00,53.08,0
56.00,52.31,0
38.00,51.54,0
36.00,50.64,0
37.00,49.49,0
37.00,48.20,0
37.00,46.84,0
54.00,45.63,0
40.00,44.72,0
80.00,44.33,0
57.00,44.69,0
52.00,45.52,0
48.00,46.37,0
64.00,47.24,0
62.00,48.31,0
73.00,49.68,0
55.00,51.25,0
66.00,52.81,0
47.00,54.19,0
57.00,55.23,0
43.00,55.88,0
60.00,56.21,0
40.00,56.27,0
75.00,56.23,0
36.00,56.22,0
44.00,55.91,0
43.00,55.21,0
36.00,54.23,0
47.00,53.02,0
41.00,51.75,0
46.00,50.53,0
36.00,49.32,0
38.00,48.06,0
41.00,46.78,0
45.00,45.62,0
51.00,44.74,0
64.00,44.34,0
57.00,44.52,0
46.00,45.04,0
53.00,45.62,0
59.00,46.29,0
45.00,47.06,0
54.00,47.77,0
62.00,48.50,0
88.00,49.65,0
46.00,51.23,0
64.00,52.75,0
39.00,53.92,0
39.00,54.52,0
37.00,54.45,0
86.00,54.24,0
36.00,54.31,0
37.00,54.18,0
44.00,53.55,0
36.00,52.64,0
34.00,51.45,0
40.00,50.03,0
39.00,48.56,0
40.00,47.14,0
48.00,45.89,0
36.00,44.84,0
46.00,43.94,0
42.00,43.20,0
50.00,42.70,0
50.00,42.50,0
80.00,42.84,0
47.00,43.80,0
64.00,45.05,0
45.00,46.33,0
60.00,47.54,0
48.00,48.65,0
50.00,49.59,0
34.00,50.16,0
95.00,50.70,0
39.00,51.61,0
55.00,52.48,0
37.00,52.94,0
54.00,53.05,0
52.00,53.01,0
44.00,52.89,0
39.00,52.53,0
49.00,51.93,0
37.00,51.19,0
41.00,50.29,0
36.00,49.22,0
40.00,48.04,0
39.00,46.84,0
41.00,45.69,0
45.00,44.68,0
37.00,43.82,0
47.00,43.09,0
49.00,42.61,0
49.00,42.43,0
48.00,42.51,0
53.00,42.80,0
68.00,43.45,0
88.00,44.80,0
58.00,46.86,0
54.00,49.02,0
56.00,50.87,0
61.00,52.47,0
45.00,53.80,0
50.00,54.68,0
47.00,55.13,0
43.00,55.19,0
35.00,54.78,0
40.00,53.93,0
38.00,52.75,0
49.00,51.47,0
36.00,50.22,0
45.00,48.98,0
40.00,47.79,0
33.00,46.61,0
35.00,45.34,0
36.00,44.02,0
52.00,42.87,0
51.00,42.17,0
35.00,41.80,0
56.00,41.60,0
44.00,41.66,0
61.00,42.01,0
37.00,42.57,0
55.00,43.16,0
41.00,43.74,0
64.00,44.39,0
38.00,45.13,0
63.00,45.88,0
44.00,46.65,0
43.00,47.30,0
34.00,47.58,0
44.00,47.50,0
42.00,47.23,0
49.00,46.92,0
44.00,46.66,0
40.00,46.38,0
58.00,46.13,0
41.00,46.05,0
38.00,45.94,0
35.00,45.59,0
48.00,45.11,0
47.00,44.72,0
47.00,44.51,0
40.00,44.37,0
46.00,44.23,0
46.00,44.14,0
41.00,44.08,0
36.00,43.94,0
48.00,43.71,0
35.00,43.47,0
47.00,43.21,0
37.00,42.96,0
53.00,42.78,0
40.00,42.75,0
48.00,42.81,0
35.00,42.85,0
43.00,42.80,0
39.00,42.66,0
46.00,42.53,0
44.00,42.47,0
35.00,42.42,0
43.00,42.27,0
33.00,42.03,0
44.00,41.73,0
36.00,41.41,0
45.00,41.13,0
41.00,40.94,0
42.00,40.84,0
47.00,40.84,0
41.00,40.95,0
35.00,41.03,0
46.00,41.04,0
35.00,41.02,0
47.00,41.01,0
34.00,40.98,0
48.00,40.96,0
36.00,40.96,0
39.00,40.91,0
35.00,40.76,0
40.00,40.53,0
35.00,40.25,0
46.00,40.00,0
38.00,39.85,0
38.00,39.74,0
46.00,39.67,0
36.00,39.67,0
36.00,39.64,0
41.00,39.53,0
35.00,39.41,0
42.00,39.28,0
42.00,39.21,0
35.00,39.19,0
35.00,39.10,0
35.00,38.89,0
39.00,38.64,0
51.00,38.52,0
43.00,38.69,0
51.00,39.08,0
38.00,39.61,0
39.00,40.07,0
42.00,40.41,0
46.00,40.72,0
35.00,41.01,0
54.00,41.28,0
38.00,41.62,0
55.00,42.03,0
44.00,42.54,0
41.00,43.04,0
38.00,43.36,0
38.00,43.44,0
50.00,43.43,0
37.00,43.42,0
40.00,43.34,0
37.00,43.12,0
44.00,42.83,0
53.00,42.66,0
36.00,42.67,0
34.00,42.57,0
56.00,42.41,0
40.00,42.43,0
46.00,42.55,0
44.00,42.68,0
48.00,42.88,0
45.00,43.14,0
52.00,43.49,0
50.00,43.96,0
59.00,44.61,0
42.00,45.37,0
67.00,46.19,0
48.00,47.13,0
38.00,47.95,0
36.00,48.31,0
40.00,48.22,0
39.00,47.83,0
52.00,47.36,0
44.00,46.98,0
37.00,46.60,0
51.00,46.17,0
64.00,46.00,0
42.00,46.17,0
37.00,46.31,0
47.00,46.22,0
34.00,46.00,0
57.00,45.72,0
36.00,45.53,0
44.00,45.30,0
35.00,44.95,0
50.00,44.55,0
35.00,44.17,0
43.00,43.78,0
37.00,43.34,0
56.00,43.00,0
39.00,42.87,0
59.00,42.95,0
40.00,43.22,0
59.00,43.64,0
42.00,44.16,0
49.00,44.68,0
46.00,45.14,0
55.00,45.62,0
34.00,46.04,0
64.00,46.39,0
45.00,46.83,0
55.00,47.35,0
41.00,47.79,0
53.00,48.12,0
34.00,48.28,0
45.00,48.17,0
37.00,47.83,0
37.00,47.28,0
41.00,46.55,0
38.00,45.76,0
36.00,44.91,0
49.00,44.09,0
61.00,43.62,0
36.00,43.54,0
43.00,43.49,0
35.00,43.31,0
58.00,43.16,0
35.00,43.15,0
46.00,43.16,0
34.00,43.07,0
56.00,42.98,0
37.00,43.01,0
52.00,43.11,0
43.00,43.29,0
58.00,43.61,0
43.00,44.08,0
84.00,44.86,0
47.00,46.11,0
60.00,47.51,0
50.00,48.80,0
71.00,50.07,0
40.00,51.31,0
55.00,52.25,0
35.00,52.77,0
68.00,53.01,0
38.00,53.17,0
40.00,53.05,0
40.00,52.51,0
43.00,51.71,0
38.00,50.75,0
40.00,49.66,0
42.00,48.50,0
35.00,47.34,0
44.00,46.18,0
36.00,45.08,0
49.00,44.12,0
37.00,43.35,0
46.00,42.72,0
38.00,42.22,0
56.00,41.91,0
46.00,41.90,0
60.00,42.24,0
57.00,42.94,0
48.00,43.89,0
43.00,44.79,0
62.00,45.60,0
41.00,46.44,0
56.00,47.19,0
51.00,47.88,0
56.00,48.60,0
46.00,49.26,0
45.00,49.73,0
37.00,49.88,0
66.00,49.87,0
35.00,49.90,0
54.00,49.84,0
42.00,49.68,0
36.00,49.36,0
38.00,48.73,0
59.00,48.06,0
38.00,47.56,0
35.00,47.02,0
46.00,46.32,0
35.00,45.60,0
36.00,44.80,0
47.00,43.98,0
41.00,43.32,0
40.00,42.78,0
58.00,42.44,0
42.00,42.41,0
63.00,42.68,0
38.00,43.18,0
66.00,43.82,0
39.00,44.59,0
73.00,45.50,0
39.00,46.53,0
68.00,47.59,0
44.00,48.63,0
63.00,49.63,0
46.00,50.53,0
59.00,51.31,0
42.00,51.91,0
82.00,52.51,0
38.00,53.25,0
48.00,53.75,0
50.00,53.88,0
41.00,53.75,0
39.00,53.29,0
54.00,52.61,0
46.00,51.94,0
45.00,51.30,0
50.00,50.65,0
32.00,49.95,0
48.00,49.10,0
47.00,48.28,0
44.00,47.60,0
39.00,46.95,0
58.00,46.38,0
37.00,46.01,0
50.00,45.71,0
41.00,45.44,0
58.00,45.31,0
37.00,45.31,0
75.00,45.52,0
45.00,46.10,0
60.00,46.87,0
57.00,47.75,0
59.00,48.76,0
43.00,49.72,0
66.00,50.55,0
54.00,51.40,0
62.00,52.30,0
39.00,53.04,0
64.00,53.54,0
37.00,53.84,0
73.00,54.03,0
37.00,54.20,0
44.00,54.13,0
