70.00,62.12,0
65.00,62.88,0
82.00,63.71,0
97.00,64.93,0
66.00,66.53,0
74.00,68.05,0
58.00,69.21,0
87.00,70.09,0
44.00,70.72,0
62.00,70.82,0
42.00,70.29,0
52.00,69.20,0
37.00,67.60,0
132.00,66.27,0
82.00,66.24,0
63.00,66.99,0
77.00,67.70,0
276.00,70.09,0
140.00,75.91,0
266.00,84.61,0
127.00,95.05,0
77.00,104.78,0
107.00,111.93,0
37.00,116.35,0
122.00,118.39,0
40.00,118.68,0
97.00,117.46,0
37.00,114.89,0
90.00,111.30,0
36.00,107.00,0
85.00,102.24,0
71.00,97.53,0
81.00,93.27,0
129.00,89.94,0
170.00,88.63,0
239.00,90.57,0
125.00,95.44,0
67.00,100.56,0
138.00,104.42,0
38.00,107.04,0
100.00,108.10,0
45.00,107.67,0
61.00,105.86,0
39.00,102.69,0
50.00,98.45,0
35.00,93.42,0
33.00,87.76,0
47.00,81.79,0
39.00,75.92,0
46.00,70.37,0
45.00,65.27,0
69.00,60.94,0
41.00,57.48,0
61.00,54.70,0
51.00,52.55,0
54.00,50.98,0
74.00,50.03,0
56.00,49.78,0
72.00,50.07,0
59.00,50.79,0
68.00,51.79,0
80.00,53.11,0
90.00,54.99,0
73.00,57.35,0
72.00,59.80,0
68.00,62.03,0
58.00,63.88,0
71.00,65.28,0
171.00,67.24,0
120.00,70.92,0
55.00,75.24,0
83.00,78.62,0
43.00,80.77,0
55.00,81.57,0
48.00,81.15,0
37.00,79.71,0
43.00,77.34,0
38.00,74.31,0
59.00,71.01,0
251.00,69.52,0
41.00,71.07,0
38.00,72.97,0
59.00,73.46,0
59.00,73.18,0
202.00,73.69,0
63.00,75.97,0
105.00,78.78,0
35.00,80.84,0
82.00,81.87,0
36.00,81.89,0
81.00,81.14,0
45.00,79.90,0
77.00,78.37,0
48.00,76.65,0
134.00,75.35,0
90.00,75.22,0
75.00,75.85,0
64.00,76.34,0
89.00,76.59,0
172.00,77.67,0
153.00,80.76,0
75.00,85.01,0
154.00,89.20,0
59.00,93.09,0
105.00,96.08,0
63.00,97.93,0
86.00,98.71,0
73.00,98.59,0
75.00,97.78,0
65.00,96.30,0
52.00,94.12,0
96.00,91.55,0
191.00,90.16,0
161.00,91.39,0
159.00,94.84,0
126.00,99.33,0
57.00,103.32,0
88.00,105.65,0
39.00,106.17,0
49.00,104.80,0
111.00,102.35,0
131.00,100.43,0
36.00,99.03,0
297.00,98.83,0
77.00,101.25,0
133.00,104.56,0
106.00,107.34,0
72.00,109.34,0
48.00,109.71,0
63.00,108.26,0
64.00,105.55,0
86.00,102.30,0
70.00,98.98,0
71.00,95.64,0
66.00,92.24,0
42.00,88.63,0
96.00,84.99,0
275.00,83.63,0
86.00,85.87,0
321.00,91.06,0
154.00,99.32,0
50.00,107.93,0
94.00,113.78,0
89.00,117.14,0
114.00,119.02,0
59.00,119.63,0
85.00,118.75,0
36.00,116.35,0
90.00,112.72,0
39.00,108.35,0
82.00,103.50,0
79.00,98.72,0
73.00,94.41,0
224.00,91.73,0
127.00,92.01,0
218.00,94.93,0
132.00,99.76,0
56.00,104.57,0
124.00,107.83,0
48.00,109.64,0
92.00,109.98,0
71.00,109.10,0
90.00,107.51,0
70.00,105.40,0
109.00,103.11,0
39.00,100.67,0
64.00,97.55,0
50.00,93.73,0
225.00,90.96,0
129.00,91.02,0
200.00,93.70,0
120.00,98.01,0
46.00,102.05,0
57.00,103.98,0
40.00,103.66,0
61.00,101.64,0
62.00,98.60,0
61.00,95.08,0
100.00,91.60,0
68.00,88.64,0
82.00,86.09,0
54.00,83.68,0
71.00,81.23,0
376.00,81.42,0
127.00,86.70,0
61.00,93.58,0
85.00,98.48,0
66.00,101.41,0
239.00,104.05,0
80.00,107.79,0
71.00,110.95,0
114.00,112.47,0
54.00,112.82,0
68.00,111.77,0
59.00,109.34,0
150.00,106.66,0
102.00,104.90,0
50.00,103.44,0
45.00,100.96,0
55.00,97.37,0
53.00,93.12,0
35.00,88.44,0
141.00,84.14,0
175.00,82.16,0
161.00,83.33,0
86.00,86.27,0
106.00,89.28,0
47.00,91.46,0
112.00,92.68,0
63.00,93.31,0
116.00,93.62,0
34.00,93.49,0
65.00,92.36,0
43.00,90.16,0
282.00,89.09,0
94.00,91.13,0
89.00,94.30,0
48.00,96.23,0
66.00,96.58,0
150.00,96.39,0
83.00,96.76,0
81.00,97.13,0
66.00,96.76,0
40.00,95.37,0
71.00,92.96,0
71.00,90.14,0
123.00,87.80,0
72.00,86.33,0
211.00,86.30,0
95.00,88.33,0
187.00,91.80,0
134.00,96.38,0
107.00,101.33,0
82.00,105.29,0
60.00,107.55,0
111.00,108.31,0
87.00,108.35,0
72.00,107.76,0
35.00,105.93,0
73.00,102.82,0
36.00,98.86,0
86.00,94.50,0
47.00,90.17,0
98.00,86.19,0
53.00,82.76,0
149.00,80.34,0
313.00,81.33,0
94.00,86.60,0
46.00,92.26,0
107.00,95.93,0
38.00,98.01,0
90.00,98.60,0
39.00,97.92,0
120.00,96.55,0
58.00,95.10,0
142.00,93.98,0
43.00,93.20,0
63.00,91.93,0
43.00,89.67,0
36.00,86.52,0
36.00,82.52,0
36.00,77.93,0
50.00,73.18,0
76.00,68.89,0
56.00,65.50,0
56.00,62.77,0
73.00,60.61,0
64.00,59.17,0
60.00,58.27,0
147.00,58.40,0
63.00,60.00,0
73.00,62.11,0
68.00,63.94,0
70.00,65.53,0
140.00,67.45,0
81.00,70.24,0
82.00,73.21,0
73.00,75.67,0
78.00,77.57,0
42.00,78.70,0
74.00,78.90,0
54.00,78.45,0
64.00,77.56,0
35.00,76.11,0
59.00,74.09,0
33.00,71.64,0
51.00,68.88,0
91.00,66.36,0
36.00,64.48,0
34.00,62.55,0
60.00,60.37,0
43.00,58.35,0
40.00,56.42,0
73.00,54.71,0
41.00,53.47,0
61.00,52.55,0
109.00,52.36,0
47.00,53.19,0
63.00,54.26,0
66.00,55.25,0
66.00,56.34,0
104.00,57.80,0
110.00,60.18,0
59.00,63.15,0
335.00,67.97,0
77.00,76.03,0
60.00,84.19,0
73.00,89.86,0
122.00,93.91,0
73.00,97.10,0
56.00,99.00,0
73.00,99.30,0
44.00,98.27,0
68.00,96.14,0
68.00,93.40,0
55.00,90.36,0
40.00,86.87,0
68.00,83.02,0
36.00,79.10,0
37.00,74.98,0
61.00,70.77,0
37.00,66.86,0
38.00,63.11,0
40.00,59.44,0
52.00,56.09,0
49.00,53.29,0
56.00,51.10,0
50.00,49.49,0
56.00,48.38,0
65.00,47.81,0
53.00,47.78,0
75.00,48.21,0
127.00,49.67,0
78.00,52.49,0
65.00,55.79,0
94.00,58.95,0
73.00,62.10,0
72.00,65.02,0
72.00,67.47,0
94.00,69.67,0
69.00,71.75,0
116.00,73.84,0
58.00,75.95,0
62.00,77.48,0
61.00,78.09,0
31.00,77.73,0
34.00,76.20,0
89.00,74.07,0
40.00,72.09,0
35.00,69.88,0
84.00,67.50,0
40.00,65.46,0
35.00,63.40,0
64.00,61.17,0
44.00,59.17,0
54.00,57.40,0
62.00,55.92,0
60.00,54.91,0
62.00,54.35,0
55.00,54.11,0
71.00,54.14,0
54.00,54.45,0
128.00,55.42,0
42.00,57.24,0
71.00,59.06,0
81.00,60.69,0
71.00,62.43,0
76.00,64.16,0
87.00,65.92,0
68.00,67.70,0
59.00,69.15,0
72.00,70.10,0
52.00,70.61,0
60.00,70.62,0
93.00,70.48,0
65.00,70.61,0
50.00,70.63,0
60.00,70.18,0
40.00,69.25,0
37.00,67.71,0
38.00,65.56,0
38.00,63.01,0
43.00,60.29,0
40.00,57.59,0
64.00,55.18,0
37.00,53.21,0
69.00,51.67,0
56.00,50.70,0
71.00,50.37,0
60.00,50.58,0
62.00,51.16,0
65.00,51.97,0
84.00,53.14,0
66.00,54.76,0
40.00,56.29,0
147.00,58.01,0
78.00,60.80,0
132.00,64.50,0
161.00,69.35,0
79.00,75.15,0
186.00,81.23,0
143.00,88.07,0
62.00,94.77,0
49.00,99.34,0
65.00,101.40,0
68.00,101.63,0
41.00,100.46,0
105.00,98.37,0
84.00,96.29,0
39.00,94.11,0
93.00,91.45,0
87.00,88.98,0
109.00,87.27,0
122.00,86.62,0
69.00,86.75,0
87.00,86.84,0
60.00,86.55,0
80.00,85.83,0
120.00,85.27,0
72.00,85.26,0
183.00,86.13,0
116.00,88.52,0
102.00,91.68,0
274.00,95.97,0
110.00,102.32,0
157.00,109.15,0
146.00,115.44,0
103.00,120.96,0
86.00,124.79,0
412.00,129.24,0
155.00,137.19,0
148.00,145.87,0
174.00,152.81,0
120.00,158.12,0
36.00,160.65,0
143.00,160.04,0
171.00,158.36,0
105.00,156.73,0
96.00,154.24,0
85.00,150.41,0
42.00,145.09,0
130.00,138.70,0
78.00,132.40,0
80.00,126.25,0
54.00,119.84,0
60.00,113.04,0
102.00,106.42,0
105.00,100.92,0
80.00,96.65,0
117.00,93.36,0
68.00,90.93,0
78.00,88.81,0
78.00,86.76,0
42.00,84.62,0
89.00,82.27,0
46.00,79.96,0
51.00,77.49,0
54.00,74.71,0
110.00,72.35,0
47.00,70.82,0
90.00,69.74,0
48.00,68.89,0
84.00,68.20,0
157.00,68.51,0
63.00,70.30,0
128.00,72.73,0
70.00,75.39,0
44.00,77.50,0
99.00,78.67,0
43.00,79.31,0
60.00,79.19,0
47.00,78.22,0
82.00,76.84,0
41.00,75.34,0
68.00,73.62,0
78.00,71.99,0
40.00,70.56,0
62.00,68.95,0
95.00,67.59,0
58.00,66.88,0
57.00,66.34,0
41.00,65.51,0
71.00,64.44,0
61.00,63.52,0
123.00,63.34,0
70.00,64.22,0
157.00,66.23,0
71.00,69.33,0
66.00,72.42,0
79.00,74.70,0
64.00,76.34,0
65.00,77.32,0
58.00,77.59,0
76.00,77.35,0
44.00,76.71,0
75.00,75.67,0
44.00,74.34,0
63.00,72.75,0
35.00,70.82,0
44.00,68.47,0
42.00,65.80,0
38.00,62.96,0
36.00,59.99,0
40.00,57.00,0
37.00,54.10,0
36.00,51.35,0
60.00,48.96,0
35.00,47.10,0
58.00,45.68,0
56.00,44.81,0
69.00,44.64,0
60.00,45.13,0
75.00,46.18,0
70.00,47.77,0
59.00,49.67,0
119.00,51.99,0
73.00,55.10,0
147.00,59.04,0
80.00,63.76,0
63.00,68.30,0
83.00,71.88,0
64.00,74.64,0
60.00,76.52,0
80.00,77.60,0
64.00,78.20,0
56.00,78.26,0
72.00,77.76,0
48.00,76.87,0
76.00,75.66,0
38.00,74.21,0
58.00,72.40,0
47.00,70.28,0
45.00,67.97,0
95.00,65.89,0
83.00,64.76,0
54.00,64.37,0
114.00,64.46,0
102.00,65.56,0
74.00,67.49,0
182.00,70.29,0
58.00,74.19,0
101.00,78.00,0
127.00,81.52,0
200.00,86.07,0
53.00,91.47,0
76.00,95.71,0
79.00,98.13,0
68.00,99.22,0
261.00,100.70,0
163.00,104.72,0
193.00,110.75,0
121.00,117.20,0
54.00,122.27,0
119.00,124.95,0
36.00,125.56,0
87.00,124.17,0
44.00,121.10,0
88.00,116.93,0
73.00,112.32,0
86.00,107.75,0
34.00,103.01,0
67.00,97.84,0
37.00,92.36,0
230.00,88.22,0
162.00,87.61,0
215.00,90.62,0
100.00,95.67,0
79.00,100.43,0
89.00,103.59,0
161.00,106.03,0
65.00,108.30,0
34.00,109.14,0
90.00,108.01,0
66.00,105.90,0
119.00,103.61,0
46.00,101.34,0
63.00,98.53,0
115.00,95.51,0
98.00,93.28,0
62.00,91.58,0
72.00,89.69,0
58.00,87.48,0
73.00,85.06,0
62.00,82.61,0
54.00,80.09,0
68.00,77.49,0
58.00,75.01,0
40.00,72.49,0
60.00,69.82,0
37.00,67.11,0
66.00,64.49,0
70.00,62.34,0
229.00,62.25,0
44.00,64.85,0
53.00,67.73,0
52.00,69.35,0
67.00,70.15,0
106.00,70.85,0
122.00,72.36,0
139.00,75.14,0
71.00,78.66,0
50.00,81.47,0
95.00,83.11,0
91.00,84.34,0
57.00,85.25,0
76.00,85.45,0
100.00,85.33,0
107.00,85.58,0
190.00,87.10,0
82.00,90.08,0
92.00,93.05,0
74.00,95.04,0
38.00,95.72,0
114.00,95.25,0
92.00,94.70,0
102.00,94.46,0
81.00,94.27,0
115.00,94.14,0
75.00,94.12,0
66.00,93.73,0
42.00,92.38,0
76.00,90.18,0
81.00,87.79,0
107.00,85.93,0
133.00,85.22,0
272.00,87.17,0
143.00,92.53,0
152.00,99.39,0
120.00,106.01,0
85.00,111.48,0
114.00,115.29,0
62.00,117.48,0
172.00,118.65,0
48.00,119.37,0
178.00,119.65,0
51.00,119.67,0
84.00,118.74,0
50.00,116.35,0
75.00,112.83,0
56.00,108.54,0
169.00,104.64,0
224.00,103.30,0
121.00,104.96,0
44.00,106.96,0
68.00,107.25,0
48.00,105.80,0
80.00,103.22,0
115.00,100.52,0
62.00,98.22,0
59.00,95.69,0
79.00,92.74,0
38.00,89.54,0
55.00,85.89,0
55.00,81.95,0
43.00,77.97,0
39.00,73.85,0
62.00,69.79,0
43.00,66.10,0
38.00,62.65,0
64.00,59.47,0
45.00,56.83,0
52.00,54.65,0
92.00,53.18,0
64.00,52.78,0
57.00,53.03,0
69.00,53.50,0
76.00,54.33,0
60.00,55.48,0
77.00,56.78,0
75.00,58.28,0
156.00,60.66,0
80.00,64.33,0
52.00,68.04,0
94.00,70.90,0
65.00,73.26,0
86.00,75.19,0
75.00,76.75,0
73.00,77.96,0
68.00,78.68,0
76.00,78.99,0
40.00,78.76,0
62.00,77.79,0
44.00,76.19,0
48.00,74.09,0
51.00,71.63,0
37.00,68.94,0
34.00,65.92,0
50.00,62.73,0
37.00,59.65,0
35.00,56.65,0
58.00,53.86,0
35.00,51.50,0
55.00,49.51,0
55.00,48.02,0
58.00,47.14,0
72.00,46.93,0
57.00,47.35,0
75.00,48.26,0
42.00,49.42,0
87.00,50.69,0
59.00,52.26,0
79.00,54.08,0
75.00,56.08,0
73.00,58.24,0
82.00,60.47,0
48.00,62.52,0
68.00,64.04,0
68.00,65.16,0
66.00,66.09,0
56.00,66.73,0
54.00,66.92,0
60.00,66.71,0
58.00,66.26,0
39.00,65.51,0
48.00,64.28,0
41.00,62.69,0
82.00,61.15,0
41.00,60.00,0
41.00,58.83,0
49.00,57.42,0
53.00,56.05,0
47.00,54.81,0
69.00,53.85,0
52.00,53.30,0
59.00,53.04,0
73.00,53.09,0
78.00,53.72,0
68.00,54.88,0
135.00,56.84,0
57.00,59.71,0
74.00,62.59,0
73.00,65.01,0
78.00,67.16,0
68.00,69.03,0
83.00,70.63,0
67.00,71.99,0
51.00,72.86,0
63.00,73.02,0
46.00,72.57,0
50.00,71.53,0
46.00,69.95,0
42.00,67.95,0
78.00,65.91,0
39.00,64.14,0
48.00,62.35,0
63.00,60.57,0
39.00,58.98,0
41.00,57.32,0
60.00,55.65,0
43.00,54.24,0
62.00,53.09,0
43.00,52.20,0
59.00,51.50,0
140.00,51.77,0
80.00,53.73,0
75.00,56.55,0
55.00,59.18,0
87.00,61.47,0
62.00,63.59,0
89.00,65.57,0
52.00,67.33,0
37.00,68.33,0
98.00,68.69,0
42.00,68.97,0
66.00,68.95,0
38.00,68.40,0
78.00,67.54,0
90.00,67.01,0
53.00,66.95,0
89.00,67.05,0
73.00,67.43,0
50.00,67.84,0
52.00,67.77,0
68.00,67.31,0
46.00,66.67,0
50.00,65.72,0
68.00,64.59,0
66.00,63.68,0
49.00,62.94,0
69.00,62.22,0
67.00,61.72,0
76.00,61.61,0
114.00,62.24,0
68.00,63.73,0
72.00,65.42,0
74.00,66.90,0
43.00,67.99,0
81.00,68.57,0
83.00,69.12,0
90.00,70.03,0
48.00,70.99,0
80.00,71.56,0
56.00,71.82,0
72.00,71.82,0
64.00,71.63,0
65.00,71.31,0
119.00,71.29,0
107.00,72.32,0
123.00,74.49,0
87.00,77.31,0
51.00,79.77,0
57.00,81.03,0
43.00,81.03,0
48.00,79.92,0
48.00,77.98,0
35.00,75.40,0
65.00,72.47,0
47.00,69.58,0
62.00,66.92,0
62.00,64.61,0
70.00,62.83,0
169.00,62.49,0
77.00,64.18,0
90.00,66.76,0
76.00,69.27,0
38.00,71.20,0
111.00,72.49,0
71.00,73.81,0
77.00,75.11,0
52.00,75.90,0
64.00,76.01,0
62.00,75.58,0
63.00,74.83,0
64.00,73.88,0
59.00,72.77,0
46.00,71.41,0
59.00,69.75,0
41.00,67.87,0
48.00,65.76,0
45.00,63.50,0
36.00,61.11,0
37.00,58.54,0
43.00,55.92,0
58.00,53.58,0
44.00,51.70,0
70.00,50.35,0
41.00,49.52,0
55.00,48.97,0
71.00,48.76,0
67.00,49.18,0
94.00,50.33,0
44.00,52.02,0
67.00,53.63,0
38.00,54.88,0
92.00,55.95,0
69.00,57.32,0
94.00,59.15,0
78.00,61.35,0
65.00,63.61,0
70.00,65.52,0
69.00,67.06,0
66.00,68.29,0
113.00,69.56,0
59.00,71.12,0
44.00,72.24,0
54.00,72.35,0
44.00,71.67,0
51.00,70.38,0
86.00,68.99,0
36.00,67.79,0
35.00,66.24,0
82.00,64.43,0
46.00,62.94,0
40.00,61.50,0
78.00,60.06,0
117.00,59.57,0
95.00,60.59,0
54.00,62.34,0
55.00,63.74,0
84.00,64.75,0
75.00,65.84,0
60.00,66.92,0
62.00,67.65,0
86.00,68.20,0
143.00,69.47,0
108.00,72.11,0
85.00,75.41,0
61.00,78.23,0
183.00,81.00,0
85.00,84.67,0
153.00,88.84,0
66.00,92.85,0
71.00,95.77,0
40.00,96.86,0
127.00,96.79,0
161.00,97.29,0
127.00,99.20,0
137.00,101.94,0
40.00,104.29,0
52.00,104.87,0
64.00,103.55,0
38.00,100.92,0
44.00,97.11,0
108.00,92.93,0
76.00,89.47,0
78.00,86.67,0
43.00,83.95,0
126.00,81.51,0
41.00,79.73,0
83.00,78.15,0
46.00,76.45,0
73.00,74.69,0
63.00,72.98,0
139.00,72.07,0
246.00,73.82,0
122.00,78.97,0
53.00,84.75,0
120.00,89.22,0
33.00,92.36,0
133.00,94.33,0
54.00,95.63,0
121.00,96.45,0
37.00,96.63,0
87.00,95.91,0
37.00,94.24,0
67.00,91.73,0
49.00,88.62,0
65.00,85.21,0
233.00,83.22,0
230.00,85.25,0
178.00,91.18,0
37.00,97.81,0
39.00,102.00,0
38.00,103.09,0
44.00,101.83,0
52.00,98.97,0
49.00,95.15,0
43.00,90.71,0
66.00,86.00,0
79.00,81.67,0
61.00,78.04,0
79.00,75.01,0
64.00,72.57,0
64.00,70.55,0
66.00,68.82,0
78.00,67.49,0
111.00,67.01,0
120.00,67.89,0
76.00,69.84,0
67.00,71.82,0
71.00,73.27,0
55.00,74.13,0
67.00,74.39,0
53.00,74.12,0
48.00,73.29,0
40.00,71.79,0
70.00,69.93,0
39.00,68.00,0
37.00,65.82,0
73.00,63.53,0
35.00,61.48,0
36.00,59.37,0
73.00,57.29,0
45.00,55.70,0
34.00,54.27,0
73.00,52.93,0
56.00,52.11,0
67.00,51.85,0
67.00,52.07,0
57.00,52.63,0
72.00,53.42,0
70.00,54.49,0
56.00,55.71,0
58.00,56.79,0
124.00,58.17,0
42.00,60.18,0
74.00,62.05,0
71.00,63.57,0
36.00,64.71,0
85.00,65.32,0
99.00,66.15,0
82.00,67.60,0
106.00,69.52,0
120.00,72.10,0
123.00,75.55,0
75.00,79.32,0
72.00,82.41,0
48.00,84.25,0
65.00,84.79,0
84.00,84.57,0
102.00,84.38,0
64.00,84.35,0
54.00,83.89,0
58.00,82.66,0
82.00,81.08,0
42.00,79.38,0
154.00,78.10,0
37.00,77.76,0
87.00,77.53,0
179.00,78.01,0
60.00,79.97,0
80.00,81.94,0
92.00,83.32,0
38.00,84.10,0
94.00,84.08,0
178.00,84.61,0
85.00,86.63,0
186.00,89.71,0
86.00,93.59,0
31.00,96.66,0
134.00,98.13,0
85.00,99.18,0
114.00,100.15,0
35.00,100.46,0
66.00,99.45,0
193.00,98.37,0
57.00,98.50,0
244.00,99.89,0
219.00,103.94,0
82.00,109.94,0
118.00,115.01,0
113.00,118.62,0
58.00,120.76,0
79.00,120.93,0
69.00,119.41,0
49.00,116.51,0
125.00,112.85,0
71.00,109.41,0
61.00,105.88,0
68.00,101.87,0
128.00,98.14,0
56.00,95.20,0
84.00,92.49,0
71.00,89.82,0
66.00,87.24,0
82.00,84.75,0
67.00,82.51,0
66.00,80.41,0
334.00,80.54,0
69.00,84.61,0
90.00,89.53,0
91.00,93.11,0
46.00,95.38,0
130.00,96.55,0
47.00,97.17,0
141.00,97.44,0
76.00,97.77,0
95.00,97.99,0
47.00,97.52,0
77.00,96.13,0
47.00,93.95,0
54.00,91.05,0
68.00,87.68,0
36.00,84.08,0
45.00,80.09,0
307.00,77.99,0
121.00,80.29,0
81.00,84.58,0
78.00,88.03,0
55.00,90.14,0
44.00,90.68,0
157.00,90.57,0
61.00,90.96,0
43.00,90.90,0
69.00,89.65,0
202.00,88.90,0
117.00,90.29,0
122.00,92.96,0
70.00,95.47,0
128.00,97.45,0
76.00,99.06,0
49.00,99.73,0
108.00,99.27,0
78.00,98.48,0
75.00,97.42,0
34.00,95.56,0
87.00,92.90,0
40.00,89.84,0
60.00,86.42,0
237.00,84.25,0
103.00,85.11,0
51.00,87.03,0
74.00,87.92,0
77.00,87.97,0
56.00,87.46,0
90.00,86.48,0
93.00,85.60,0
93.00,85.14,0
38.00,84.60,0
84.00,83.49,0
46.00,81.97,0
108.00,80.45,0
74.00,79.41,0
44.00,78.48,0
78.00,77.15,0
65.00,75.79,0
68.00,74.53,0
52.00,73.20,0
129.00,72.26,0
66.00,72.27,0
100.00,72.87,0
73.00,73.72,0
59.00,74.45,0
70.00,74.70,0
99.00,74.88,0
66.00,75.31,0
44.00,75.41,0
62.00,74.79,0
42.00,73.57,0
45.00,71.80,0
55.00,69.62,0
38.00,67.26,0
35.00,64.62,0
55.00,61.82,0
37.00,59.15,0
35.00,56.52,0
51.00,53.97,0
42.00,51.72,0
60.00,49.91,0
42.00,48.57,0
62.00,47.65,0
70.00,47.33,0
50.00,47.60,0
93.00,48.41,0
45.00,49.75,0
66.00,51.18,0
72.00,52.64,0
79.00,54.39,0
75.00,56.45,0
77.00,58.67,0
61.00,60.82,0
70.00,62.67,0
67.00,64.21,0
57.00,65.42,0
85.00,66.38,0
55.00,67.24,0
67.00,67.83,0
48.00,68.01,0
67.00,67.79,0
35.00,67.17,0
58.00,66.10,0
203.00,66.02,0
71.00,68.20,0
124.00,71.47,0
92.00,74.98,0
88.00,78.45,0
46.00,81.08,0
103.00,82.74,0
57.00,83.82,0
78.00,84.31,0
40.00,83.98,0
63.00,82.78,0
36.00,80.80,0
62.00,78.24,0
64.00,75.55,0
66.00,73.13,0
159.00,71.82,0
41.00,71.96,0
153.00,72.95,0
74.00,74.76,0
49.00,76.56,0
82.00,77.50,0
84.00,78.10,0
100.00,78.87,0
38.00,79.51,0
70.00,79.40,0
45.00,78.53,0
72.00,77.19,0
115.00,76.13,0
62.00,75.82,0
49.00,75.46,0
62.00,74.52,0
37.00,73.08,0
113.00,71.62,0
119.00,71.31,0
49.00,72.01,0
65.00,72.50,0
44.00,72.31,0
61.00,71.54,0
60.00,70.47,0
54.00,69.26,0
37.00,67.74,0
100.00,66.24,0
54.00,65.31,0
78.00,64.81,0
57.00,64.49,0
137.00,64.84,0
58.00,66.16,0
127.00,68.13,0
99.00,70.76,0
96.00,73.89,0
164.00,77.61,0
82.00,82.04,0
145.00,86.60,0
40.00,90.61,0
99.00,93.34,0
89.00,95.03,0
45.00,95.84,0
65.00,95.31,0
41.00,93.54,0
51.00,90.75,0
122.00,87.82,0
178.00,86.61,0
136.00,87.89,0
45.00,90.04,0
71.00,91.16,0
42.00,90.89,0
53.00,89.40,0
84.00,87.22,0
44.00,84.88,0
85.00,82.42,0
66.00,80.13,0
62.00,78.06,0
73.00,76.07,0
82.00,74.44,0
186.00,74.25,0
55.00,75.86,0
185.00,78.54,0
94.00,82.28,0
92.00,86.25,0
52.00,89.14,0
91.00,90.75,0
114.00,91.86,0
150.00,93.53,0
41.00,95.47,0
91.00,96.45,0
73.00,96.46,0
116.00,96.20,0
45.00,95.71,0
179.00,95.36,0
127.00,96.32,0
117.00,98.40,0
101.00,100.54,0
69.00,102.06,0
38.00,102.13,0
108.00,100.91,0
72.00,99.33,0
346.00,99.79,0
297.00,105.57,0
104.00,115.08,0
187.00,124.22,0
192.00,132.59,0
153.00,140.55,0
105.00,146.93,0
127.00,150.98,0
63.00,152.56,0
118.00,151.77,0
38.00,148.94,0
103.00,144.31,0
53.00,138.50,0
54.00,131.68,0
263.00,125.65,0
200.00,123.36,0
324.00,125.72,0
113.00,131.36,0
57.00,136.32,0
125.00,138.50,0
260.00,140.26,0
112.00,143.22,0
136.00,145.86,0
148.00,147.44,0
70.00,147.91,0
127.00,146.81,0
67.00,144.35,0
103.00,140.70,0
78.00,136.17,0
71.00,130.96,0
136.00,125.60,0
45.00,120.58,0
84.00,115.35,0
175.00,110.77,0
200.00,108.87,0
259.00,110.72,0
144.00,115.65,0
71.00,120.67,0
130.00,123.94,0
35.00,125.35,0
65.00,124.45,0
67.00,121.57,0
58.00,117.50,0
78.00,112.66,0
55.00,107.49,0
77.00,102.20,0
71.00,97.11,0
44.00,92.21,0
62.00,87.25,0
56.00,82.46,0
57.00,77.99,0
35.00,73.72,0
49.00,69.48,0
35.00,65.35,0
53.00,61.48,0
43.00,58.02,0
34.00,54.91,0
40.00,51.97,0
42.00,49.31,0
45.00,47.06,0
40.00,45.21,0
58.00,43.82,0
50.00,43.02,0
90.00,43.04,0
228.00,45.43,0
105.00,51.12,0
57.00,57.84,0
99.00,63.66,0
37.00,68.40,0
103.00,72.01,0
73.00,74.99,0
94.00,77.62,0
35.00,79.49,0
74.00,80.26,0
45.00,80.08,0
95.00,79.43,0
106.00,79.13,0
80.00,79.48,0
151.00,80.56,0
65.00,82.41,0
141.00,84.58,0
97.00,87.10,0
65.00,89.44,0
131.00,91.22,0
50.00,92.68,0
75.00,93.25,0
59.00,92.74,0
72.00,91.47,0
69.00,89.73,0
45.00,87.55,0
72.00,84.91,0
57.00,82.12,0
65.00,79.37,0
83.00,76.88,0
102.00,75.20,0
142.00,74.97,0
88.00,76.24,0
37.00,77.62,0
63.00,77.96,0
40.00,77.32,0
76.00,76.08,0
76.00,74.84,0
61.00,73.81,0
66.00,72.77,0
62.00,71.68,0
101.00,70.89,0
75.00,70.74,0
45.00,70.74,0
75.00,70.39,0
59.00,69.89,0
114.00,69.74,0
43.00,70.06,0
50.00,70.05,0
35.00,69.19,0
39.00,67.56,0
31.00,65.28,0
38.00,62.55,0
71.00,59.88,0
78.00,58.01,0
78.00,57.18,0
35.00,56.89,0
76.00,56.63,0
47.00,56.50,0
59.00,56.43,0
106.00,56.74,0
53.00,57.79,0
91.00,59.19,0
69.00,60.80,0
50.00,62.33,0
76.00,63.45,0
76.00,64.50,0
72.00,65.65,0
53.00,66.60,0
72.00,67.20,0
61.00,67.56,0
103.00,68.05,0
42.00,68.74,0
67.00,69.08,0
37.00,68.83,0
59.00,68.00,0
117.00,67.38,0
46.00,67.47,0
46.00,67.43,0
76.00,66.92,0
39.00,66.29,0
53.00,65.32,0
51.00,64.05,0
48.00,62.64,0
50.00,61.13,0
77.00,59.82,0
65.00,59.08,0
42.00,58.61,0
74.00,58.17,0
54.00,57.92,0
46.00,57.70,0
61.00,57.34,0
49.00,56.97,0
64.00,56.64,0
62.00,56.49,0
74.00,56.68,0
49.00,57.08,0
73.00,57.53,0
64.00,58.11,0
97.00,59.08,0
68.00,60.57,0
81.00,62.29,0
82.00,64.11,0
47.00,65.79,0
70.00,66.93,0
36.00,67.42,0
69.00,67.30,0
68.00,67.00,0
61.00,66.74,0
36.00,66.21,0
80.00,65.39,0
37.00,64.52,0
65.00,63.54,0
98.00,62.88,0
82.00,63.14,0
57.00,63.88,0
82.00,64.63,0
78.00,65.54,0
38.00,66.34,0
65.00,66.57,0
51.00,66.35,0
50.00,65.79,0
117.00,65.40,0
70.00,65.87,0
59.00,66.65,0
68.00,67.17,0
44.00,67.31,0
65.00,67.02,0
115.00,66.98,0
61.00,67.67,0
38.00,68.23,0
65.00,68.08,0
70.00,67.68,0
115.00,67.78,0
43.00,68.45,0
78.00,69.00,0
36.00,69.08,0
57.00,68.56,0
111.00,68.06,0
39.00,68.06,0
49.00,67.77,0
54.00,66.89,0
44.00,65.68,0
63.00,64.28,0
79.00,63.15,0
38.00,62.35,0
66.00,61.50,0
45.00,60.60,0
52.00,59.63,0
48.00,58.56,0
73.00,57.63,0
110.00,57.53,0
44.00,58.34,0
127.00,59.70,0
52.00,61.66,0
40.00,63.34,0
74.00,64.23,0
46.00,64.72,0
67.00,64.88,0
102.00,65.19,0
74.00,66.11,0
47.00,67.08,0
67.00,67.54,0
47.00,67.54,0
113.00,67.58,0
36.00,67.92,0
63.00,67.98,0
84.00,67.81,0
49.00,67.76,0
86.00,67.69,0
45.00,67.60,0
38.00,67.07,0
109.00,66.35,0
50.00,66.15,0
39.00,65.85,0
54.00,64.96,0
40.00,63.68,0
74.00,62.32,0
58.00,61.26,0
63.00,60.52,0
58.00,59.95,0
68.00,59.59,0
52.00,59.37,0
58.00,59.14,0
183.00,59.91,0
57.00,62.50,0
42.00,65.21,0
67.00,66.83,0
43.00,67.66,0
76.00,67.94,0
78.00,68.17,0
74.00,68.62,0
39.00,68.88,0
69.00,68.63,0
37.00,67.94,0
70.00,66.93,0
61.00,65.91,0
70.00,65.13,0
121.00,65.04,0
54.00,65.85,0
72.00,66.77,0
91.00,67.65,0
58.00,68.66,0
82.00,69.55,0
54.00,70.20,0
50.00,70.36,0
60.00,69.92,0
45.00,69.06,0
54.00,67.80,0
51.00,66.29,0
57.00,64.72,0
92.00,63.50,0
48.00,62.88,0
55.00,62.33,0
56.00,61.62,0
69.00,61.00,0
82.00,60.79,0
65.00,61.08,0
63.00,61.55,0
61.00,61.96,0
52.00,62.18,0
92.00,62.42,0
76.00,63.12,0
60.00,64.07,0
88.00,65.03,0
43.00,65.91,0
57.00,66.31,0
46.00,66.09,0
82.00,65.66,0
45.00,65.26,0
55.00,64.68,0
35.00,63.67,0
54.00,62.28,0
60.00,60.84,0
40.00,59.51,0
69.00,58.25,0
57.00,57.31,0
80.00,56.88,0
49.00,56.87,0
63.00,56.97,0
41.00,56.95,0
59.00,56.73,0
58.00,56.49,0
64.00,56.42,0
66.00,56.58,0
64.00,56.97,0
101.00,57.83,0
63.00,59.28,0
121.00,61.30,0
81.00,63.99,0
119.00,67.24,0
78.00,70.77,0
38.00,73.70,0
72.00,75.37,0
34.00,75.93,0
80.00,75.66,0
48.00,74.96,0
72.00,74.00,0
35.00,72.69,0
70.00,71.05,0
39.00,69.22,0
81.00,67.43,0
97.00,66.31,0
118.00,66.51,0
107.00,68.09,0
40.00,70.12,0
73.00,71.49,0
42.00,72.06,0
86.00,72.12,0
96.00,72.34,0
50.00,72.83,0
48.00,72.81,0
70.00,72.17,0
99.00,71.67,0
100.00,71.97,0
44.00,72.64,0
103.00,73.16,0
86.00,73.91,0
86.00,75.02,0
35.00,75.80,0
47.00,75.57,0
84.00,74.66,0
44.00,73.64,0
45.00,72.23,0
66.00,70.43,0
36.00,68.49,0
75.00,66.51,0
83.00,65.03,0
52.00,64.18,0
39.00,63.28,0
64.00,62.11,0
36.00,60.84,0
82.00,59.67,0
135.00,59.57,0
76.00,61.07,0
83.00,63.25,0
70.00,65.39,0
76.00,67.33,0
36.00,68.71,0
68.00,69.27,0
117.00,69.80,0
65.00,70.93,0
50.00,71.90,0
73.00,72.22,0
40.00,72.03,0
72.00,71.37,0
61.00,70.53,0
68.00,69.73,0
100.00,69.27,0
58.00,69.32,0
113.00,69.79,0
85.00,70.89,0
144.00,72.90,0
50.00,75.52,0
42.00,77.38,0
60.00,77.84,0
68.00,77.52,0
61.00,76.84,0
78.00,76.00,0
68.00,75.20,0
49.00,74.28,0
74.00,73.12,0
49.00,71.84,0
44.00,70.29,0
64.00,68.45,0
38.00,66.52,0
68.00,64.58,0
116.00,63.37,0
60.00,63.32,0
56.00,63.61,0
88.00,63.87,0
54.00,64.33,0
86.00,64.88,0
55.00,65.47,0
80.00,66.04,0
42.00,66.42,0
72.00,66.45,0
53.00,66.26,0
77.00,66.02,0
72.00,65.97,0
68.00,66.14,0
115.00,66.75,0
63.00,67.99,0
88.00,69.41,0
80.00,70.82,0
52.00,72.04,0
148.00,73.32,0
40.00,75.08,0
58.00,76.30,0
38.00,76.31,0
38.00,75.21,0
46.00,73.20,0
43.00,70.68,0
44.00,67.89,0
50.00,65.02,0
60.00,62.38,0
37.00,60.02,0
56.00,57.81,0
48.00,55.85,0
41.00,54.11,0
73.00,52.68,0
61.00,51.89,0
48.00,51.59,0
65.00,51.49,0
62.00,51.70,0
58.00,52.20,0
71.00,52.90,0
57.00,53.81,0
65.00,54.79,0
63.00,55.79,0
73.00,56.89,0
76.00,58.19,0
48.00,59.52,0
40.00,60.32,0
37.00,60.29,0
46.00,59.61,0
89.00,58.92,0
46.00,58.68,0
51.00,58.48,0
42.00,57.96,0
35.00,57.05,0
66.00,55.95,0
39.00,54.97,0
34.00,53.87,0
72.00,52.74,0
38.00,51.92,0
51.00,51.23,0
92.00,50.93,0
59.00,51.44,0
66.00,52.41,0
75.00,53.61,0
58.00,55.02,0
59.00,56.34,0
133.00,58.03,0
67.00,60.65,0
68.00,63.41,0
67.00,65.64,0
55.00,67.29,0
43.00,68.13,0
63.00,68.20,0
65.00,67.92,0
39.00,67.39,0
56.00,66.39,0
45.00,65.05,0
74.00,63.71,0
40.00,62.50,0
55.00,61.24,0
47.00,59.89,0
37.00,58.42,0
38.00,56.68,0
37.00,54.72,0
38.00,52.66,0
36.00,50.59,0
55.00,48.70,0
54.00,47.32,0
70.00,46.62,0
46.00,46.54,0
55.00,46.74,0
83.00,47.32,0
69.00,48.61,0
65.00,50.34,0
64.00,52.16,0
61.00,53.92,0
63.00,55.54,0
68.00,57.04,0
61.00,58.44,0
88.00,59.87,0
59.00,61.43,0
51.00,62.70,0
76.00,63.56,0
40.00,64.11,0
41.00,64.04,0
68.00,63.43,0
132.00,63.43,0
37.00,64.38,0
48.00,65.08,0
35.00,64.83,0
38.00,63.80,0
49.00,62.23,0
36.00,60.40,0
53.00,58.46,0
64.00,56.75,0
48.00,55.46,0
46.00,54.36,0
60.00,53.37,0
51.00,52.66,0
60.00,52.21,0
83.00,52.24,0
58.00,52.89,0
91.00,54.04,0
57.00,55.58,0
68.00,57.18,0
71.00,58.68,0
59.00,60.11,0
56.00,61.23,0
102.00,62.31,0
65.00,63.77,0
56.00,65.14,0
64.00,66.03,0
40.00,66.37,0
52.00,66.06,0
86.00,65.54,0
36.00,65.13,0
40.00,64.30,0
71.00,63.09,0
36.00,61.88,0
35.00,60.39,0
78.00,58.78,0
37.00,57.50,0
61.00,56.39,0
55.00,55.44,0
52.00,54.74,0
59.00,54.19,0
62.00,53.91,0
62.00,53.93,0
42.00,54.05,0
127.00,54.60,0
61.00,56.18,0
73.00,58.19,0
67.00,60.05,0
80.00,61.85,0
61.00,63.56,0
96.00,65.22,0
61.00,66.91,0
58.00,68.27,0
66.00,69.05,0
46.00,69.32,0
45.00,68.90,0
42.00,67.78,0
71.00,66.35,0
38.00,64.90,0
45.00,63.24,0
43.00,61.30,0
86.00,59.60,0
36.00,58.41,0
42.00,57.22,0
40.00,55.75,0
35.00,54.10,0
54.00,52.40,0
39.00,50.89,0
48.00,49.54,0
57.00,48.47,0
59.00,47.88,0
61.00,47.79,0
69.00,48.21,0
63.00,49.10,0
56.00,50.22,0
90.00,51.61,0
50.00,53.31,0
74.00,55.03,0
63.00,56.67,0
64.00,58.23,0
64.00,59.59,0
96.00,61.04,0
54.00,62.68,0
55.00,64.00,0
60.00,64.74,0
45.00,64.97,0
58.00,64.72,0
75.00,64.35,0
43.00,64.01,0
41.00,63.30,0
43.00,62.07,0
42.00,60.48,0
40.00,58.65,0
45.00,56.70,0
37.00,54.72,0
45.00,52.76,0
60.00,51.08,0
55.00,49.92,0
43.00,49.15,0
68.00,48.68,0
46.00,48.56,0
52.00,48.62,0
69.00,48.88,0
38.00,49.34,0
66.00,49.80,0
58.00,50.39,0
72.00,51.28,0
57.00,52.39,0
119.00,54.02,0
66.00,56.46,0
67.00,59.07,0
77.00,61.39,0
72.00,63.54,0
59.00,65.39,0
102.00,67.05,0
50.00,68.68,0
42.00,69.66,0
64.00,69.75,0
40.00,69.24,0
37.00,68.07,0
76.00,66.49,0
37.00,64.96,0
45.00,63.27,0
38.00,61.25,0
45.00,59.07,0
42.00,56.87,0
59.00,54.87,0
55.00,53.31,0
41.00,52.10,0
47.00,50.97,0
58.00,50.03,0
64.00,49.54,0
47.00,49.45,0
81.00,49.73,0
47.00,50.41,0
72.00,51.30,0
70.00,52.44,0
66.00,53.87,0
67.00,55.41,0
70.00,56.97,0
60.00,58.48,0
53.00,59.71,0
58.00,60.51,0
60.00,61.02,0
51.00,61.28,0
74.00,61.40,0
58.00,61.59,0
61.00,61.77,0
55.00,61.81,0
43.00,61.56,0
37.00,60.81,0
83.00,59.88,0
40.00,59.20,0
37.00,58.39,0
75.00,57.40,0
41.00,56.63,0
35.00,55.77,0
54.00,54.63,0
44.00,53.50,0
67.00,52.61,0
57.00,52.13,0
62.00,52.06,0
67.00,52.33,0
61.00,52.93,0
69.00,53.77,0
55.00,54.72,0
69.00,55.69,0
68.00,56.74,0
78.00,58.00,0
62.00,59.41,0
82.00,60.85,0
64.00,62.34,0
71.00,63.73,0
54.00,64.83,0
54.00,65.44,0
64.00,65.61,0
69.00,65.65,0
48.00,65.57,0
45.00,65.08,0
51.00,64.11,0
48.00,62.87,0
35.00,61.36,0
56.00,59.62,0
78.00,58.18,0
37.00,57.23,0
59.00,56.36,0
44.00,55.47,0
52.00,54.61,0
71.00,53.97,0
48.00,53.69,0
50.00,53.50,0
94.00,53.59,0
50.00,54.27,0
63.00,55.12,0
70.00,55.97,0
63.00,56.97,0
56.00,57.93,0
124.00,59.21,0
79.00,61.39,0
85.00,64.07,0
67.00,66.59,0
73.00,68.73,0
54.00,70.28,0
86.00,71.35,0
65.00,72.20,0
44.00,72.61,0
54.00,72.23,0
39.00,71.13,0
46.00,69.41,0
58.00,67.36,0
35.00,65.21,0
37.00,62.79,0
51.00,60.20,0
40.00,57.71,0
36.00,55.30,0
50.00,52.98,0
35.00,50.87,0
45.00,48.95,0
64.00,47.44,0
52.00,46.58,0
51.00,46.20,0
56.00,46.12,0
72.00,46.48,0
57.00,47.34,0
71.00,48.55,0
60.00,50.01,0
72.00,51.63,0
66.00,53.39,0
63.00,55.16,0
56.00,56.74,0
114.00,58.45,0
62.00,60.68,0
56.00,62.80,0
66.00,64.32,0
47.00,65.29,0
57.00,65.67,0
36.00,65.42,0
57.00,64.60,0
41.00,63.41,0
58.00,62.05,0
44.00,60.62,0
34.00,59.02,0
53.00,57.21,0
37.00,55.41,0
37.00,53.57,0
58.00,51.79,0
50.00,50.40,0
38.00,49.30,0
45.00,48.25,0
47.00,47.30,0
49.00,46.57,0
127.00,46.72,0
45.00,48.19,0
61.00,50.01,0
67.00,51.68,0
73.00,53.45,0
60.00,55.29,0
99.00,57.27,0
57.00,59.48,0
62.00,61.47,0
63.00,62.97,0
72.00,64.17,0
54.00,65.12,0
61.00,65.68,0
48.00,65.79,0
51.00,65.41,0
60.00,64.69,0
47.00,63.81,0
40.00,62.63,0
46.00,61.10,0
41.00,59.35,0
33.00,57.38,0
44.00,55.24,0
44.00,53.15,0
54.00,51.34,0
59.00,50.02,0
49.00,49.18,0
45.00,48.59,0
42.00,48.04,0
61.00,47.59,0
72.00,47.64,0
46.00,48.17,0
87.00,49.05,0
71.00,50.52,0
64.00,52.39,0
59.00,54.21,0
80.00,55.96,0
56.00,57.72,0
57.00,59.21,0
59.00,60.28,0
56.00,61.00,0
63.00,61.47,0
115.00,62.25,0
64.00,63.74,0
41.00,65.12,0
56.00,65.68,0
50.00,65.61,0
35.00,64.96,0
50.00,63.73,0
38.00,62.12,0
42.00,60.24,0
58.00,58.30,0
45.00,56.58,0
52.00,55.06,0
66.00,53.86,0
36.00,52.98,0
58.00,52.18,0
67.00,51.66,0
59.00,51.63,0
55.00,51.88,0
72.00,52.35,0
58.00,53.09,0
43.00,53.82,0
126.00,54.82,0
36.00,56.51,0
84.00,58.25,0
68.00,59.90,0
78.00,61.64,0
65.00,63.31,0
106.00,65.08,0
54.00,67.01,0
39.00,68.35,0
69.00,68.78,0
42.00,68.64,0
62.00,68.04,0
118.00,67.68,0
49.00,68.03,0
47.00,68.22,0
93.00,68.07,0
45.00,67.99,0
44.00,67.57,0
64.00,66.64,0
49.00,65.56,0
58.00,64.39,0
71.00,63.32,0
93.00,62.84,0
39.00,62.85,0
70.00,62.76,0
37.00,62.41,0
56.00,61.73,0
109.00,61.30,0
69.00,61.79,0
126.00,63.20,0
91.00,65.59,0
87.00,68.50,0
86.00,71.34,0
45.00,73.66,0
74.00,75.05,0
44.00,75.59,0
78.00,75.48,0
44.00,74.92,0
58.00,73.87,0
37.00,72.26,0
63.00,70.26,0
39.00,68.08,0
58.00,65.82,0
50.00,63.63,0
74.00,61.77,0
93.00,60.72,0
85.00,60.77,0
59.00,61.46,0
41.00,61.97,0
53.00,61.91,0
66.00,61.58,0
55.00,61.28,0
52.00,60.91,0
65.00,60.46,0
64.00,60.16,0
49.00,59.94,0
55.00,59.58,0
59.00,59.15,0
73.00,58.89,0
45.00,58.82,0
76.00,58.79,0
59.00,58.94,0
71.00,59.30,0
58.00,59.75,0
80.00,60.32,0
62.00,61.08,0
54.00,61.77,0
55.00,62.11,0
40.00,62.00,0
66.00,61.53,0
57.00,61.03,0
50.00,60.54,0
46.00,59.83,0
40.00,58.82,0
36.00,57.45,0
40.00,55.76,0
38.00,53.91,0
35.00,51.96,0
61.00,50.16,0
41.00,48.77,0
50.00,47.70,0
95.00,47.26,0
58.00,47.84,0
50.00,48.85,0
74.00,49.93,0
72.00,51.32,0
53.00,52.93,0
73.00,54.47,0
54.00,55.93,0
64.00,57.22,0
73.00,58.41,0
77.00,59.76,0
58.00,61.17,0
113.00,62.74,0
66.00,64.76,0
53.00,66.61,0
66.00,67.78,0
46.00,68.34,0
56.00,68.28,0
94.00,68.06,0
42.00,68.00,0
43.00,67.54,0
38.00,66.33,0
43.00,64.56,0
41.00,62.44,0
33.00,60.08,0
49.00,57.59,0
41.00,55.21,0
48.00,53.06,0
54.00,51.25,0
49.00,49.88,0
45.00,48.81,0
64.00,48.07,0
61.00,47.84,0
69.00,48.20,0
46.00,48.90,0
80.00,49.81,0
52.00,50.99,0
73.00,52.33,0
64.00,53.77,0
64.00,55.29,0
58.00,56.68,0
71.00,57.93,0
59.00,59.11,0
103.00,60.47,0
69.00,62.26,0
47.00,63.94,0
67.00,65.01,0
44.00,65.53,0
80.00,65.70,0
62.00,65.86,0
48.00,65.89,0
66.00,65.58,0
76.00,65.29,0
48.00,65.12,0
37.00,64.56,0
73.00,63.61,0
34.00,62.58,0
46.00,61.28,0
72.00,59.90,0
55.00,58.89,0
54.00,58.13,0
64.00,57.51,0
53.00,57.07,0
53.00,56.70,0
70.00,56.44,0
47.00,56.35,0
68.00,56.34,0
68.00,56.55,0
71.00,57.11,0
88.00,58.11,0
104.00,59.85,0
78.00,62.29,0
64.00,64.77,0
71.00,66.80,0
43.00,68.19,0
74.00,68.90,0
65.00,69.28,0
53.00,69.40,0
83.00,69.30,0
94.00,69.52,0
92.00,70.39,0
39.00,71.34,0
166.00,72.48,0
50.00,74.44,0
58.00,76.15,0
80.00,76.97,0
57.00,77.31,0
124.00,77.65,0
92.00,78.61,0
84.00,80.00,0
51.00,80.98,0
114.00,81.52,0
86.00,82.26,0
36.00,82.76,0
50.00,82.12,0
35.00,80.34,0
73.00,77.90,0
95.00,75.76,0
86.00,74.51,0
71.00,73.90,0
70.00,73.45,0
60.00,72.92,0
70.00,72.26,0
44.00,71.38,0
57.00,70.14,0
116.00,69.13,0
61.00,68.98,0
53.00,68.99,0
83.00,68.78,0
45.00,68.53,0
55.00,67.96,0
66.00,67.11,0
69.00,66.36,0
57.00,65.75,0
38.00,64.94,0
64.00,63.81,0
37.00,62.52,0
76.00,61.24,0
93.00,60.57,0
69.00,60.79,0
108.00,61.75,0
99.00,63.62,0
95.00,66.25,0
94.00,69.23,0
62.00,72.05,0
86.00,74.32,0
52.00,75.96,0
69.00,76.83,0
50.00,76.94,0
60.00,76.38,0
64.00,75.35,0
67.00,74.19,0
58.00,72.98,0
69.00,71.72,0
51.00,70.44,0
49.00,68.95,0
112.00,67.70,0
69.00,67.34,0
45.00,67.27,0
56.00,66.77,0
51.00,65.91,0
46.00,64.76,0
35.00,63.22,0
124.00,61.94,0
64.00,61.79,0
38.00,62.03,0
74.00,61.93,0
67.00,61.90,0
71.00,62.13,0
73.00,62.59,0
281.00,65.01,0
349.00,72.81,0
134.00,85.53,0
140.00,98.61,0
127.00,109.77,0
68.00,118.44,0
120.00,124.29,0
34.00,127.47,0
117.00,128.16,0
36.00,126.96,0
157.00,124.71,0
78.00,122.41,0
92.00,119.96,0
65.00,116.83,0
79.00,113.07,0
216.00,110.11,0
176.00,109.89,0
332.00,113.50,0
127.00,120.48,0
91.00,127.39,0
85.00,131.70,0
76.00,133.42,0
78.00,132.89,0
74.00,130.64,0
64.00,127.01,0
72.00,122.31,0
73.00,117.02,0
89.00,111.67,0
35.00,106.27,0
82.00,100.64,0
95.00,95.47,0
139.00,91.78,0
258.00,91.17,0
61.00,93.61,0
69.00,96.08,0
62.00,96.94,0
71.00,96.57,0
60.00,95.28,0
69.00,93.29,0
76.00,90.97,0
64.00,88.55,0
50.00,85.88,0
64.00,82.91,0
70.00,79.95,0
55.00,77.20,0
58.00,74.53,0
285.00,73.81,0
82.00,76.70,0
81.00,80.74,0
107.00,84.03,0
67.00,86.75,0
71.00,88.53,0
76.00,89.31,0
63.00,89.31,0
69.00,88.60,0
40.00,87.12,0
68.00,84.91,0
33.00,82.15,0
121.00,79.44,0
255.00,79.12,0
172.00,82.94,0
78.00,88.71,0
75.00,93.48,0
50.00,96.31,0
103.00,97.57,0
75.00,98.04,0
91.00,97.99,0
36.00,97.14,0
92.00,95.38,0
36.00,93.01,0
97.00,90.29,0
66.00,87.68,0
103.00,85.55,0
36.00,83.65,0
86.00,81.59,0
254.00,81.15,0
148.00,84.29,0
41.00,88.77,0
40.00,91.47,0
38.00,91.81,0
40.00,90.33,0
35.00,87.48,0
35.00,83.61,0
45.00,79.15,0
45.00,74.55,0
55.00,70.15,0
45.00,66.15,0
48.00,62.51,0
89.00,59.58,0
134.00,58.36,0
65.00,58.99,0
70.00,60.28,0
60.00,61.46,0
73.00,62.50,0
98.00,63.74,0
75.00,65.41,0
76.00,67.20,0
69.00,68.78,0
64.00,70.01,0
74.00,70.86,0
90.00,71.67,0
63.00,72.53,0
47.00,72.97,0
65.00,72.72,0
38.00,71.90,0
57.00,70.55,0
62.00,68.96,0
41.00,67.30,0
39.00,65.33,0
37.00,62.97,0
37.00,60.33,0
35.00,57.54,0
42.00,54.75,0
36.00,52.09,0
46.00,49.68,0
96.00,48.06,0
38.00,47.52,0
47.00,47.35,0
67.00,47.30,0
114.00,48.14,0
57.00,50.09,0
75.00,52.43,0
65.00,54.72,0
64.00,56.87,0
71.00,58.81,0
67.00,60.59,0
47.00,62.03,0
97.00,63.20,0
59.00,64.48,0
60.00,65.60,0
66.00,66.30,0
45.00,66.60,0
49.00,66.32,0
59.00,65.58,0
55.00,64.69,0
38.00,63.58,0
62.00,62.23,0
40.00,60.82,0
34.00,59.19,0
48.00,57.28,0
41.00,55.35,0
39.00,53.45,0
63.00,51.74,0
54.00,50.55,0
43.00,49.74,0
55.00,49.09,0
59.00,48.73,0
64.00,48.81,0
82.00,49.47,0
60.00,50.73,0
56.00,52.14,0
60.00,53.41,0
62.00,54.57,0
86.00,55.88,0
78.00,57.61,0
75.00,59.63,0
40.00,61.42,0
54.00,62.47,0
85.00,63.13,0
95.00,64.18,0
43.00,65.49,0
71.00,66.39,0
146.00,67.62,0
101.00,70.16,0
127.00,73.70,0
138.00,78.03,0
59.00,82.56,0
71.00,85.96,0
89.00,88.11,0
109.00,89.79,0
94.00,91.41,0
63.00,92.59,0
94.00,93.03,0
88.00,93.08,0
65.00,92.81,0
45.00,91.72,0
68.00,89.71,0
48.00,87.10,0
99.00,84.42,0
151.00,82.88,0
109.00,83.17,0
61.00,84.20,0
89.00,84.84,0
38.00,84.81,0
112.00,84.28,0
45.00,83.62,0
60.00,82.53,0
114.00,81.28,0
117.00,80.99,0
111.00,81.88,0
91.00,83.40,0
38.00,84.53,0
119.00,84.95,0
201.00,86.40,0
45.00,89.32,0
127.00,92.04,0
170.00,94.94,0
96.00,98.67,0
83.00,101.91,0
72.00,103.77,0
69.00,104.20,0
127.00,103.87,0
58.00,103.33,0
83.00,102.21,0
47.00,100.22,0
83.00,97.54,0
44.00,94.41,0
110.00,91.23,0
37.00,88.28,0
74.00,85.26,0
60.00,82.17,0
81.00,79.37,0
43.00,76.82,0
92.00,74.47,0
50.00,72.52,0
96.00,71.02,0
173.00,70.96,0
113.00,73.18,0
225.00,77.59,0
94.00,83.79,0
52.00,89.58,0
76.00,93.28,0
53.00,95.13,0
138.00,96.04,0
170.00,97.68,0
144.00,100.84,0
88.00,104.41,0
72.00,106.92,0
47.00,107.57,0
68.00,106.44,0
92.00,104.34,0
46.00,101.76,0
110.00,98.86,0
65.00,96.13,0
108.00,93.75,0
138.00,92.31,0
87.00,92.06,0
74.00,92.01,0
108.00,91.77,0
57.00,91.42,0
158.00,91.27,0
36.00,91.52,0
86.00,91.30,0
35.00,90.12,0
116.00,88.49,0
59.00,87.02,0
88.00,85.69,0
61.00,84.29,0
75.00,82.80,0
154.00,81.94,0
94.00,82.53,0
197.00,84.69,0
97.00,88.36,0
211.00,93.23,0
79.00,98.79,0
130.00,103.87,0
80.00,107.75,0
69.00,110.11,0
39.00,110.38,0
109.00,109.07,0
59.00,107.09,0
60.00,104.41,0
35.00,100.70,0
77.00,96.27,0
36.00,91.59,0
146.00,87.43,0
233.00,86.01,0
133.00,88.26,0
52.00,91.60,0
128.00,94.13,0
40.00,95.82,0
140.00,96.82,0
36.00,97.31,0
93.00,97.00,0
35.00,95.69,0
110.00,93.79,0
86.00,92.06,0
85.00,90.73,0
51.00,89.27,0
74.00,87.35,0
37.00,84.96,0
125.00,82.60,0
179.00,81.91,0
122.00,83.69,0
67.00,86.32,0
100.00,88.41,0
64.00,89.80,0
76.00,90.41,0
56.00,90.13,0
62.00,89.01,0
68.00,87.26,0
44.00,85.04,0
80.00,82.51,0
36.00,79.83,0
72.00,77.02,0
77.00,74.46,0
90.00,72.66,0
198.00,72.64,0
74.00,74.85,0
73.00,77.51,0
63.00,79.32,0
120.00,80.70,0
339.00,84.38,0
52.00,91.44,0
69.00,98.02,0
58.00,101.80,0
67.00,103.39,0
107.00,103.66,0
67.00,103.31,0
54.00,102.05,0
65.00,99.71,0
38.00,96.46,0
118.00,92.95,0
64.00,89.99,0
88.00,87.54,0
54.00,85.20,0
196.00,83.85,0
110.00,84.62,0
51.00,86.29,0
68.00,87.03,0
73.00,86.86,0
74.00,86.25,0
72.00,85.36,0
83.00,84.34,0
136.00,83.88,0
154.00,84.96,0
91.00,87.40,0
113.00,90.08,0
59.00,92.25,0
127.00,93.80,0
215.00,96.24,0
97.00,100.31,0
356.00,106.40,0
115.00,115.22,0
198.00,124.58,0
102.00,132.65,0
36.00,137.99,0
77.00,139.57,0
36.00,138.04,0
83.00,134.19,0
49.00,128.91,0
117.00,123.09,0
147.00,118.16,0
121.00,114.91,0
79.00,112.50,0
92.00,110.03,0
77.00,107.32,0
69.00,104.32,0
68.00,100.94,0
70.00,97.31,0
69.00,93.61,0
46.00,89.81,0
67.00,85.84,0
45.00,81.85,0
73.00,78.01,0
67.00,74.64,0
69.00,71.90,0
194.00,70.75,0
169.00,72.69,0
150.00,77.39,0
65.00,82.81,0
112.00,87.44,0
167.00,91.83,0
78.00,96.45,0
72.00,100.05,0
57.00,101.78,0
69.00,101.84,0
44.00,100.50,0
66.00,98.00,0
38.00,94.62,0
62.00,90.62,0
50.00,86.34,0
56.00,82.02,0
35.00,77.66,0
48.00,73.22,0
34.00,68.79,0
41.00,64.44,0
44.00,60.34,0
39.00,56.61,0
46.00,53.29,0
42.00,50.44,0
57.00,48.15,0
37.00,46.42,0
51.00,45.07,0
48.00,44.10,0
46.00,43.50,0
68.00,43.33,0
52.00,43.70,0
83.00,44.65,0
55.00,46.15,0
68.00,47.93,0
68.00,49.84,0
202.00,53.01,0
72.00,58.16,0
103.00,63.86,0
84.00,69.08,0
59.00,73.48,0
69.00,76.64,0
47.00,78.53,0
66.00,79.25,0
207.00,80.37,0
88.00,83.26,0
178.00,87.36,0
62.00,91.76,0
76.00,95.20,0
64.00,96.96,0
41.00,97.10,0
51.00,95.62,0
66.00,93.06,0
43.00,89.90,0
166.00,87.16,0
224.00,87.14,0
95.00,90.08,0
48.00,93.17,0
102.00,94.85,0
43.00,95.42,0
110.00,95.15,0
74.00,94.59,0
102.00,94.01,0
56.00,93.22,0
69.00,91.88,0
144.00,90.62,0
98.00,90.43,0
53.00,90.55,0
196.00,90.94,0
40.00,92.25,0
177.00,93.93,0
225.00,97.23,0
113.00,102.65,0
245.00,109.11,0
78.00,116.05,0
74.00,121.42,0
62.00,123.85,0
53.00,123.67,0
54.00,121.27,0
43.00,117.12,0
39.00,111.56,0
72.00,105.24,0
37.00,98.78,0
159.00,93.13,0
180.00,90.19,0
125.00,90.29,0
37.00,91.25,0
78.00,91.25,0
37.00,90.13,0
83.00,88.24,0
96.00,86.35,0
57.00,84.81,0
72.00,83.16,0
62.00,81.33,0
69.00,79.44,0
56.00,77.50,0
66.00,75.50,0
70.00,73.61,0
47.00,71.84,0
61.00,69.98,0
41.00,67.98,0
54.00,65.84,0
45.00,63.65,0
41.00,61.41,0
36.00,59.02,0
54.00,56.64,0
35.00,54.44,0
34.00,52.27,0
64.00,50.28,0
37.00,48.74,0
45.00,47.48,0
92.00,46.76,0
47.00,46.94,0
47.00,47.46,0
64.00,47.97,0
61.00,48.73,0
60.00,49.72,0
78.00,50.98,0
80.00,52.68,0
37.00,54.51,0
103.00,56.22,0
110.00,58.58,0
141.00,62.26,0
36.00,66.53,0
122.00,70.35,0
283.00,75.57,0
132.00,83.85,0
58.00,92.37,0
115.00,98.80,0
35.00,103.09,0
66.00,105.03,0
40.00,104.75,0
81.00,102.94,0
65.00,100.38,0
124.00,97.88,0
145.00,96.53,0
153.00,96.98,0
120.00,98.86,0
121.00,101.26,0
89.00,103.46,0
50.00,104.61,0
76.00,104.18,0
187.00,103.63,0
145.00,104.70,0
46.00,106.38,0
92.00,106.86,0
36.00,105.88,0
68.00,103.55,0
93.00,100.56,0
101.00,97.89,0
185.00,96.58,0
90.00,97.04,0
175.00,98.64,0
174.00,101.67,0
44.00,105.29,0
244.00,108.74,0
66.00,112.71,0
87.00,115.82,0
46.00,116.72,0
49.00,115.42,0
96.00,112.59,0
79.00,109.37,0
90.00,106.14,0
35.00,102.61,0
38.00,98.17,0
55.00,92.91,0
42.00,87.42,0
45.00,81.88,0
174.00,77.49,0
211.00,76.60,0
157.00,79.59,0
151.00,84.80,0
155.00,91.03,0
116.00,97.52,0
132.00,103.53,0
42.00,108.16,0
80.00,110.56,0
173.00,111.82,0
118.00,113.57,0
196.00,116.16,0
115.00,119.46,0
54.00,121.98,0
130.00,122.79,0
40.00,122.26,0
81.00,120.23,0
43.00,116.75,0
138.00,112.76,0
192.00,110.24,0
118.00,109.96,0
96.00,110.44,0
152.00,110.98,0
72.00,111.62,0
105.00,111.72,0
63.00,110.97,0
77.00,109.27,0
56.00,106.63,0
54.00,103.10,0
64.00,98.91,0
44.00,94.32,0
57.00,89.45,0
259.00,86.23,0
158.00,87.00,0
50.00,89.88,0
70.00,91.81,0
67.00,92.36,0
65.00,91.94,0
79.00,90.86,0
146.00,90.09,0
203.00,91.26,0
173.00,95.12,0
82.00,100.13,0
137.00,104.55,0
84.00,108.09,0
96.00,110.51,0
51.00,111.41,0
64.00,110.59,0
336.00,110.57,0
104.00,113.82,0
41.00,117.36,0
102.00,118.54,0
104.00,118.41,0
86.00,117.67,0
39.00,115.83,0
135.00,113.05,0
199.00,111.40,0
127.00,111.90,0
90.00,113.06,0
86.00,113.46,0
92.00,112.94,0
93.00,111.81,0
229.00,111.45,0
51.00,112.47,0
88.00,113.00,0
39.00,111.86,0
89.00,109.41,0
37.00,106.03,0
82.00,102.00,0
53.00,97.65,0
127.00,93.72,0
190.00,91.74,0
121.00,92.39,0
134.00,94.53,0
99.00,97.07,0
202.00,100.19,0
117.00,104.40,0
38.00,108.06,0
184.00,110.39,0
69.00,112.43,0
111.00,113.85,0
48.00,113.97,0
104.00,112.86,0
44.00,110.76,0
108.00,107.97,0
62.00,104.94,0
74.00,101.69,0
146.00,98.81,0
155.00,97.66,0
194.00,98.91,0
96.00,101.89,0
233.00,105.90,0
88.00,110.82,0
181.00,115.77,0
38.00,119.74,0
69.00,121.50,0
35.00,120.56,0
80.00,117.65,0
101.00,114.01,0
84.00,110.49,0
49.00,106.79,0
87.00,102.68,0
174.00,99.44,0
86.00,97.99,0
222.00,98.35,0
150.00,100.99,0
40.00,104.30,0
90.00,106.00,0
106.00,106.49,0
96.00,106.62,0
66.00,106.21,0
80.00,104.93,0
42.00,102.70,0
66.00,99.53,0
52.00,95.70,0
74.00,91.64,0
49.00,87.59,0
108.00,83.93,0
123.00,81.59,0
77.00,80.67,0
199.00,81.25,0
224.00,84.79,0
220.00,91.84,0
193.00,101.26,0
236.00,112.04,0
262.00,124.19,0
127.00,136.66,0
53.00,146.31,0
102.00,151.56,0
38.00,152.99,0
121.00,151.51,0
101.00,148.53,0
91.00,144.78,0
40.00,139.83,0
99.00,133.68,0
49.00,126.97,0
80.00,119.94,0
92.00,113.12,0
192.00,107.97,0
173.00,105.88,0
158.00,106.55,0
71.00,108.16,0
92.00,109.04,0
72.00,108.82,0
59.00,107.50,0
53.00,104.96,0
71.00,101.49,0
51.00,97.53,0
35.00,93.02,0
83.00,88.19,0
37.00,83.58,0
82.00,79.29,0
78.00,75.71,0
188.00,74.02,0
184.00,75.56,0
187.00,80.35,0
40.00,86.30,0
93.00,90.95,0
70.00,93.93,0
90.00,95.76,0
36.00,96.33,0
80.00,95.59,0
38.00,93.81,0
103.00,91.48,0
84.00,89.41,0
75.00,87.73,0
40.00,85.82,0
71.00,83.40,0
252.00,82.39,0
127.00,84.70,0
238.00,89.82,0
104.00,96.57,0
76.00,102.83,0
46.00,106.67,0
62.00,107.96,0
59.00,107.27,0
47.00,105.09,0
62.00,101.74,0
61.00,97.74,0
34.00,93.27,0
55.00,88.32,0
36.00,83.13,0
71.00,78.07,0
67.00,73.67,0
77.00,70.22,0
62.00,67.62,0
59.00,65.56,0
55.00,63.76,0
63.00,62.21,0
71.00,61.06,0
62.00,60.37,0
59.00,59.95,0
68.00,59.70,0
60.00,59.64,0
59.00,59.67,0
89.00,59.92,0
57.00,60.56,0
57.00,61.20,0
81.00,61.74,0
45.00,62.30,0
64.00,62.60,0
44.00,62.56,0
123.00,62.73,0
159.00,64.51,0
129.00,68.43,0
105.00,73.45,0
102.00,78.49,0
98.00,83.09,0
80.00,86.96,0
60.00,89.65,0
46.00,90.75,0
87.00,90.57,0
35.00,89.54,0
145.00,88.30,0
116.00,88.08,0
144.00,89.31,0
43.00,90.98,0
96.00,91.93,0
35.00,91.85,0
126.00,91.17,0
161.00,91.35,0
65.00,92.70,0
41.00,93.41,0
96.00,92.87,0
46.00,91.69,0
78.00,89.97,0
35.00,87.64,0
78.00,84.83,0
241.00,83.47,0
67.00,84.85,0
123.00,87.19,0
85.00,89.39,0
71.00,91.10,0
86.00,91.99,0
67.00,92.17,0
59.00,91.57,0
87.00,90.34,0
47.00,88.73,0
78.00,86.71,0
48.00,84.39,0
76.00,81.90,0
36.00,79.25,0
71.00,76.43,0
57.00,73.70,0
187.00,72.26,0
56.00,72.82,0
60.00,73.80,0
66.00,74.10,0
56.00,73.93,0
95.00,73.61,0
50.00,73.39,0
99.00,73.22,0
77.00,73.36,0
40.00,73.46,0
69.00,72.98,0
148.00,72.90,0
112.00,74.37,0
46.00,76.47,0
112.00,78.16,0
88.00,79.81,0
101.00,81.65,0
63.00,83.26,0
110.00,84.52,0
50.00,85.43,0
67.00,85.59,0
55.00,84.87,0
51.00,83.38,0
69.00,81.36,0
188.00,80.25,0
148.00,81.68,0
166.00,85.42,0
104.00,90.28,0
53.00,94.51,0
96.00,97.13,0
33.00,98.21,0
96.00,97.92,0
41.00,96.66,0
92.00,94.73,0
48.00,92.39,0
88.00,89.84,0
42.00,87.13,0
59.00,84.09,0
68.00,80.90,0
122.00,78.42,0
215.00,78.30,0
110.00,81.09,0
48.00,84.52,0
68.00,86.60,0
114.00,87.78,0
75.00,88.84,0
34.00,89.18,0
58.00,88.14,0
35.00,85.98,0
52.00,82.99,0
49.00,79.51,0
37.00,75.79,0
52.00,71.90,0
57.00,68.21,0
67.00,65.08,0
43.00,62.48,0
63.00,60.22,0
46.00,58.29,0
59.00,56.67,0
57.00,55.39,0
59.00,54.50,0
114.00,54.42,0
68.00,55.49,0
60.00,57.02,0
56.00,58.32,0
70.00,59.38,0
59.00,60.32,0
99.00,61.42,0
64.00,62.88,0
69.00,64.36,0
68.00,65.58,0
54.00,66.48,0
56.00,66.89,0
37.00,66.67,0
66.00,65.93,0
50.00,64.99,0
63.00,64.02,0
58.00,63.10,0
48.00,62.20,0
38.00,61.04,0
49.00,59.57,0
55.00,58.06,0
34.00,56.59,0
67.00,55.18,0
37.00,53.97,0
70.00,53.01,0
80.00,52.66,0
67.00,53.10,0
64.00,53.97,0
74.00,55.07,0
70.00,56.42,0
54.00,57.79,0
98.00,59.21,0
72.00,60.98,0
69.00,62.88,0
59.00,64.48,0
74.00,65.71,0
73.00,66.79,0
68.00,67.78,0
54.00,68.47,0
53.00,68.62,0
74.00,68.40,0
54.00,68.07,0
52.00,67.51,0
103.00,67.00,0
93.00,67.30,0
39.00,68.01,0
58.00,68.19,0
40.00,67.69,0
41.00,66.56,0
35.00,64.80,0
39.00,62.56,0
46.00,60.10,0
36.00,57.62,0
61.00,55.31,0
43.00,53.39,0
48.00,51.78,0
42.00,50.34,0
56.00,49.13,0
66.00,48.41,0
55.00,48.26,0
67.00,48.57,0
62.00,49.26,0
83.00,50.42,0
44.00,51.89,0
66.00,53.24,0
67.00,54.52,0
66.00,55.89,0
66.00,57.28,0
65.00,58.61,0
59.00,59.79,0
43.00,60.58,0
66.00,60.92,0
39.00,60.94,0
51.00,60.55,0
243.00,61.44,0
55.00,64.97,0
36.00,68.72,0
41.00,70.70,0
37.00,71.13,0
43.00,70.40,0
44.00,68.91,0
36.00,66.87,0
62.00,64.58,0
41.00,62.36,0
58.00,60.29,0
98.00,58.82,0
64.00,58.39,0
64.00,58.53,0
72.00,58.89,0
63.00,59.45,0
67.00,60.10,0
107.00,61.12,0
62.00,62.71,0
48.00,64.14,0
66.00,64.97,0
58.00,65.41,0
61.00,65.59,0
101.00,65.88,0
57.00,66.57,0
46.00,67.05,0
74.00,67.05,0
52.00,66.86,0
56.00,66.44,0
42.00,65.64,0
172.00,65.43,0
39.00,66.64,0
65.00,67.97,0
36.00,68.42,0
36.00,67.94,0
58.00,66.69,0
36.00,65.09,0
62.00,63.32,0
46.00,61.58,0
65.00,60.03,0
53.00,58.76,0
50.00,57.68,0
58.00,56.70,0
58.00,55.92,0
66.00,55.47,0
60.00,55.36,0
63.00,55.50,0
57.00,55.78,0
73.00,56.22,0
60.00,56.87,0
66.00,57.62,0
67.00,58.42,0
57.00,59.23,0
66.00,59.92,0
82.00,60.71,0
69.00,61.77,0
42.00,62.70,0
65.00,63.14,0
58.00,63.29,0
46.00,63.18,0
66.00,62.80,0
76.00,62.53,0
36.00,62.35,0
66.00,61.93,0
46.00,61.33,0
38.00,60.47,0
56.00,59.29,0
46.00,58.05,0
57.00,56.89,0
43.00,55.81,0
64.00,54.85,0
46.00,54.10,0
55.00,53.48,0
77.00,53.18,0
61.00,53.42,0
51.00,53.90,0
67.00,54.38,0
64.00,55.01,0
46.00,55.66,0
72.00,56.20,0
75.00,56.94,0
61.00,57.96,0
58.00,58.92,0
56.00,59.64,0
61.00,60.12,0
66.00,60.51,0
49.00,60.81,0
36.00,60.68,0
60.00,60.07,0
53.00,59.35,0
46.00,58.59,0
55.00,57.73,0
56.00,56.92,0
35.00,56.09,0
42.00,55.00,0
36.00,53.63,0
40.00,52.08,0
61.00,50.65,0
34.00,49.51,0
52.00,48.50,0
55.00,47.72,0
58.00,47.37,0
59.00,47.44,0
57.00,47.85,0
62.00,48.53,0
69.00,49.50,0
72.00,50.86,0
52.00,52.39,0
60.00,53.78,0
62.00,54.99,0
56.00,56.08,0
61.00,56.99,0
66.00,57.82,0
62.00,58.64,0
76.00,59.53,0
65.00,60.54,0
41.00,61.35,0
53.00,61.59,0
37.00,61.26,0
46.00,60.42,0
43.00,59.21,0
127.00,58.47,0
41.00,58.77,0
34.00,59.06,0
46.00,58.60,0
36.00,57.66,0
43.00,56.37,0
51.00,54.96,0
58.00,53.75,0
45.00,52.80,0
55.00,52.01,0
50.00,51.39,0
49.00,50.90,0
57.00,50.55,0
58.00,50.43,0
65.00,50.64,0
66.00,51.22,0
60.00,52.10,0
49.00,52.98,0
73.00,53.81,0
94.00,55.05,0
64.00,56.85,0
66.00,58.72,0
52.00,60.25,0
56.00,61.29,0
44.00,61.77,0
55.00,61.73,0
45.00,61.31,0
55.00,60.62,0
42.00,59.72,0
44.00,58.57,0
54.00,57.28,0
45.00,56.04,0
38.00,54.75,0
64.00,53.48,0
51.00,52.55,0
37.00,51.78,0
65.00,51.06,0
41.00,50.53,0
54.00,50.13,0
78.00,50.04,0
47.00,50.45,0
64.00,51.03,0
59.00,51.73,0
70.00,52.63,0
64.00,53.75,0
129.00,55.52,0
61.00,58.19,0
71.00,60.96,0
41.00,63.06,0
72.00,64.44,0
63.00,65.40,0
64.00,66.14,0
57.00,66.56,0
44.00,66.51,0
58.00,65.96,0
43.00,65.04,0
55.00,63.83,0
47.00,62.46,0
50.00,61.00,0
36.00,59.38,0
40.00,57.53,0
197.00,56.82,0
38.00,58.30,0
40.00,60.08,0
46.00,60.80,0
58.00,60.90,0
37.00,60.61,0
54.00,59.92,0
45.00,58.98,0
51.00,57.93,0
52.00,56.87,0
59.00,55.94,0
101.00,55.63,0
61.00,56.23,0
62.00,57.18,0
64.00,58.07,0
58.00,58.87,0
61.00,59.53,0
91.00,60.30,0
53.00,61.34,0
73.00,62.33,0
71.00,63.25,0
44.00,64.01,0
62.00,64.29,0
92.00,64.53,0
60.00,65.10,0
62.00,65.65,0
74.00,66.03,0
36.00,66.17,0
40.00,65.62,0
60.00,64.49,0
49.00,63.22,0
57.00,61.94,0
45.00,60.64,0
58.00,59.35,0
37.00,58.03,0
62.00,56.72,0
224.00,57.03,0
127.00,60.68,0
116.00,66.36,0
100.00,72.26,0
36.00,77.27,0
107.00,80.83,0
34.00,83.21,0
146.00,84.92,0
47.00,86.50,0
157.00,88.12,0
35.00,89.71,0
125.00,90.86,0
35.00,91.38,0
85.00,91.07,0
49.00,89.93,0
97.00,88.39,0
158.00,87.62,0
89.00,88.27,0
57.00,89.11,0
75.00,89.09,0
50.00,88.25,0
66.00,86.69,0
53.00,84.58,0
88.00,82.33,0
77.00,80.43,0
78.00,78.97,0
80.00,77.84,0
35.00,76.66,0
70.00,75.05,0
193.00,74.38,0
86.00,75.88,0
211.00,79.26,0
109.00,84.32,0
49.00,89.33,0
77.00,92.53,0
71.00,94.16,0
91.00,94.84,0
85.00,95.03,0
126.00,95.22,0
154.00,96.29,0
202.00,99.17,0
38.00,103.01,0
119.00,105.80,0
40.00,107.03,0
51.00,106.48,0
62.00,104.21,0
55.00,100.95,0
40.00,96.90,0
42.00,92.07,0
42.00,86.73,0
40.00,81.18,0
35.00,75.57,0
146.00,70.94,0
51.00,68.19,0
36.00,66.20,0
54.00,63.96,0
41.00,61.67,0
73.00,59.62,0
90.00,58.37,0
64.00,58.11,0
64.00,58.32,0
54.00,58.58,0
63.00,58.79,0
42.00,58.84,0
76.00,58.77,0
60.00,58.88,0
46.00,59.01,0
64.00,58.95,0
62.00,58.90,0
66.00,59.02,0
66.00,59.31,0
63.00,59.73,0
77.00,60.29,0
59.00,61.01,0
37.00,61.46,0
75.00,61.48,0
40.00,61.34,0
36.00,60.79,0
65.00,59.82,0
36.00,58.78,0
36.00,57.47,0
186.00,57.00,0
76.00,58.76,0
37.00,61.27,0
68.00,62.95,0
41.00,63.92,0
63.00,64.30,0
46.00,64.22,0
64.00,63.84,0
121.00,63.88,0
68.00,64.90,0
68.00,66.21,0
68.00,67.27,0
68.00,68.09,0
70.00,68.74,0
99.00,69.49,0
60.00,70.47,0
61.00,71.20,0
55.00,71.36,0
52.00,70.97,0
59.00,70.13,0
58.00,69.05,0
63.00,67.91,0
44.00,66.69,0
64.00,65.33,0
42.00,63.91,0
35.00,62.22,0
88.00,60.54,0
35.00,59.29,0
35.00,57.98,0
46.00,56.32,0
88.00,54.97,0
42.00,54.31,0
71.00,54.02,0
41.00,53.88,0
54.00,53.70,0
108.00,53.91,0
51.00,54.93,0
87.00,56.35,0
69.00,58.00,0
70.00,59.77,0
73.00,61.47,0
111.00,63.43,0
187.00,66.82,0
70.00,71.78,0
73.00,76.48,0
62.00,79.83,0
60.00,81.85,0
94.00,82.97,0
59.00,83.61,0
48.00,83.49,0
60.00,82.40,0
44.00,80.60,0
52.00,78.22,0
70.00,75.63,0
45.00,73.11,0
35.00,70.39,0
48.00,67.35,0
36.00,64.19,0
36.00,60.96,0
75.00,58.00,0
62.00,55.88,0
56.00,54.53,0
55.00,53.60,0
64.00,53.02,0
46.00,52.71,0
70.00,52.61,0
61.00,52.83,0
54.00,53.29,0
114.00,54.21,0
67.00,56.00,0
66.00,58.10,0
62.00,59.93,0
49.00,61.32,0
97.00,62.47,0
70.00,63.87,0
85.00,65.48,0
42.00,66.87,0
74.00,67.73,0
38.00,68.03,0
87.00,67.96,0
74.00,68.03,0
107.00,68.65,0
154.00,70.52,0
191.00,74.62,0
75.00,80.33,0
104.00,85.69,0
68.00,89.83,0
46.00,92.38,0
83.00,93.26,0
160.00,93.92,0
98.00,95.46,0
42.00,96.76,0
85.00,96.76,0
38.00,95.63,0
88.00,93.66,0
97.00,91.65,0
207.00,91.14,0
205.00,93.68,0
181.00,99.11,0
41.00,104.98,0
142.00,109.33,0
82.00,112.38,0
70.00,114.09,0
59.00,113.93,0
65.00,112.14,0
68.00,109.18,0
62.00,105.49,0
63.00,101.30,0
65.00,96.86,0
42.00,92.22,0
58.00,87.37,0
40.00,82.43,0
42.00,77.44,0
47.00,72.49,0
35.00,67.75,0
35.00,63.16,0
39.00,58.77,0
42.00,54.78,0
41.00,51.29,0
175.00,49.40,0
34.00,49.88,0
52.00,51.03,0
48.00,51.75,0
67.00,52.36,0
64.00,53.13,0
60.00,54.06,0
63.00,55.03,0
69.00,56.05,0
74.00,57.25,0
68.00,58.62,0
69.00,60.03,0
68.00,61.38,0
63.00,62.60,0
64.00,63.58,0
54.00,64.25,0
51.00,64.48,0
77.00,64.45,0
50.00,64.40,0
56.00,64.16,0
47.00,63.59,0
40.00,62.62,0
39.00,61.19,0
40.00,59.39,0
49.00,57.45,0
46.00,55.60,0
35.00,53.80,0
50.00,52.04,0
43.00,50.44,0
70.00,49.27,0
176.00,49.71,0
101.00,52.73,0
36.00,56.72,0
72.00,59.89,0
56.00,62.28,0
68.00,64.11,0
167.00,66.36,0
76.00,69.82,0
239.00,74.76,0
116.00,81.61,0
47.00,88.40,0
70.00,92.96,0
44.00,95.26,0
89.00,95.90,0
61.00,95.56,0
104.00,94.75,0
45.00,93.61,0
67.00,91.79,0
54.00,89.30,0
37.00,86.22,0
34.00,82.35,0
90.00,78.30,0
111.00,75.32,0
116.00,74.12,0
76.00,74.22,0
36.00,74.36,0
58.00,73.70,0
38.00,72.33,0
38.00,70.32,0
99.00,68.23,0
80.00,67.00,0
58.00,66.48,0
66.00,66.05,0
56.00,65.57,0
69.00,65.08,0
80.00,64.82,0
72.00,64.97,0
64.00,65.32,0
75.00,65.69,0
64.00,66.10,0
59.00,66.40,0
80.00,66.59,0
60.00,66.84,0
55.00,66.93,0
66.00,66.73,0
48.00,66.31,0
76.00,65.77,0
36.00,65.14,0
108.00,64.61,0
82.00,64.84,0
51.00,65.55,0
106.00,66.32,0
59.00,67.37,0
108.00,68.69,0
91.00,70.45,0
99.00,72.68,0
53.00,74.79,0
73.00,76.22,0
390.00,79.64,0
115.00,87.62,0
39.00,96.26,0
75.00,101.86,0
47.00,104.72,0
96.00,105.62,0
48.00,105.16,0
92.00,103.68,0
55.00,101.51,0
70.00,98.75,0
136.00,96.12,0
63.00,94.30,0
78.00,92.61,0
98.00,90.88,0
33.00,89.10,0
88.00,86.89,0
35.00,84.34,0
79.00,81.57,0
66.00,78.92,0
72.00,76.63,0
44.00,74.45,0
58.00,72.14,0
35.00,69.62,0
43.00,66.80,0
42.00,63.80,0
35.00,60.75,0
40.00,57.68,0
38.00,54.70,0
49.00,52.00,0
40.00,49.68,0
262.00,49.52,0
39.00,52.72,0
103.00,57.09,0
73.00,61.14,0
73.00,64.87,0
59.00,67.85,0
74.00,70.07,0
61.00,71.65,0
63.00,72.62,0
79.00,73.16,0
50.00,73.39,0
57.00,73.08,0
71.00,72.38,0
54.00,71.54,0
67.00,70.57,0
60.00,69.55,0
68.00,68.59,0
36.00,67.51,0
49.00,66.01,0
51.00,64.21,0
59.00,62.47,0
39.00,60.79,0
39.00,58.96,0
38.00,56.90,0
40.00,54.74,0
41.00,52.59,0
44.00,50.60,0
51.00,48.90,0
44.00,47.56,0
40.00,46.45,0
69.00,45.67,0
52.00,45.46,0
51.00,45.65,0
79.00,46.21,0
57.00,47.30,0
31.00,48.41,0
51.00,49.07,0
74.00,49.65,0
59.00,50.58,0
72.00,51.80,0
68.00,53.25,0
92.00,55.08,0
100.00,57.54,0
77.00,60.57,0
43.00,63.33,0
63.00,65.20,0
44.00,66.23,0
53.00,66.50,0
74.00,66.36,0
54.00,66.17,0
56.00,65.80,0
46.00,65.10,0
42.00,63.99,0
46.00,62.48,0
57.00,60.85,0
39.00,59.24,0
60.00,57.67,0
50.00,56.30,0
61.00,55.23,0
52.00,54.43,0
57.00,53.87,0
139.00,54.18,0
69.00,55.96,0
99.00,58.58,0
138.00,61.97,0
49.00,66.01,0
79.00,69.50,0
75.00,72.19,0
83.00,74.42,0
63.00,76.17,0
67.00,77.27,0
63.00,77.69,0
70.00,77.62,0
70.00,77.25,0
66.00,76.70,0
40.00,75.75,0
56.00,74.19,0
35.00,72.10,0
79.00,69.82,0
46.00,67.76,0
41.00,65.70,0
35.00,63.32,0
41.00,60.67,0
40.00,57.95,0
45.00,55.34,0
57.00,53.07,0
43.00,51.26,0
53.00,49.82,0
61.00,48.81,0
65.00,48.42,0
64.00,48.62,0
117.00,49.73,0
67.00,51.94,0
54.00,54.43,0
68.00,56.53,0
128.00,58.88,0
80.00,62.06,0
78.00,65.45,0
74.00,68.43,0
64.00,70.83,0
75.00,72.59,0
62.00,73.82,0
54.00,74.40,0
62.00,74.30,0
50.00,73.65,0
66.00,72.62,0
95.00,71.72,0
51.00,71.20,0
39.00,70.41,0
64.00,69.07,0
39.00,67.48,0
38.00,65.52,0
60.00,63.32,0
34.00,61.13,0
49.00,58.91,0
52.00,56.80,0
56.00,55.04,0
47.00,53.63,0
60.00,52.52,0
57.00,51.80,0
50.00,51.38,0
81.00,51.34,0
60.00,51.86,0
70.00,52.78,0
63.00,53.91,0
74.00,55.21,0
85.00,56.83,0
83.00,58.87,0
61.00,61.06,0
65.00,62.93,0
65.00,64.40,0
54.00,65.44,0
58.00,65.98,0
64.00,66.14,0
46.00,65.99,0
39.00,65.31,0
69.00,64.23,0
45.00,63.12,0
37.00,61.81,0
51.00,60.18,0
39.00,58.41,0
36.00,56.51,0
48.00,54.50,0
45.00,52.64,0
35.00,50.92,0
64.00,49.40,0
41.00,48.30,0
56.00,47.55,0
75.00,47.28,0
52.00,47.66,0
74.00,48.46,0
54.00,49.56,0
72.00,50.86,0
57.00,52.27,0
105.00,54.01,0
74.00,56.37,0
75.00,59.02,0
74.00,61.55,0
64.00,63.80,0
65.00,65.62,0
63.00,66.95,0
59.00,67.81,0
50.00,68.14,0
59.00,67.93,0
46.00,67.29,0
53.00,66.28,0
58.00,65.05,0
41.00,63.70,0
37.00,62.03,0
47.00,60.05,0
38.00,57.96,0
35.00,55.76,0
56.00,53.60,0
52.00,51.83,0
36.00,50.39,0
98.00,49.47,0
51.00,49.47,0
59.00,49.98,0
74.00,50.72,0
78.00,51.97,0
59.00,53.59,0
93.00,55.44,0
55.00,57.49,0
66.00,59.37,0
68.00,60.95,0
87.00,62.52,0
65.00,64.18,0
131.00,66.19,0
72.00,68.84,0
66.00,71.40,0
72.00,73.26,0
47.00,74.38,0
56.00,74.61,0
97.00,74.42,0
43.00,74.25,0
39.00,73.49,0
71.00,72.07,0
52.00,70.54,0
37.00,68.80,0
84.00,66.94,0
36.00,65.30,0
35.00,63.48,0
90.00,61.61,0
53.00,60.37,0
39.00,59.37,0
62.00,58.24,0
55.00,57.26,0
55.00,56.50,0
53.00,55.85,0
57.00,55.32,0
66.00,55.01,0
57.00,54.99,0
65.00,55.18,0
61.00,55.55,0
71.00,56.13,0
64.00,56.92,0
76.00,57.91,0
62.00,59.05,0
73.00,60.21,0
64.00,61.36,0
67.00,62.41,0
63.00,63.31,0
52.00,63.92,0
56.00,64.12,0
50.00,63.92,0
47.00,63.33,0
48.00,62.37,0
40.00,61.09,0
42.00,59.51,0
37.00,57.67,0
40.00,55.65,0
35.00,53.53,0
39.00,51.39,0
48.00,49.39,0
50.00,47.77,0
46.00,46.56,0
56.00,45.74,0
55.00,45.36,0
50.00,45.36,0
71.00,45.73,0
53.00,46.53,0
66.00,47.60,0
66.00,48.91,0
76.00,50.56,0
58.00,52.43,0
76.00,54.32,0
65.00,56.24,0
66.00,58.08,0
66.00,59.74,0
54.00,61.10,0
55.00,62.02,0
80.00,62.67,0
53.00,63.32,0
44.00,63.62,0
62.00,63.42,0
40.00,62.89,0
38.00,61.89,0
56.00,60.51,0
39.00,59.02,0
36.00,57.34,0
48.00,55.48,0
41.00,53.67,0
37.00,51.89,0
59.00,50.26,0
43.00,49.00,0
52.00,48.05,0
69.00,47.53,0
55.00,47.58,0
66.00,48.07,0
56.00,48.87,0
62.00,49.84,0
58.00,50.89,0
82.00,52.16,0
60.00,53.73,0
68.00,55.38,0
64.00,56.95,0
69.00,58.45,0
59.00,59.82,0
81.00,61.09,0
51.00,62.29,0
53.00,63.09,0
60.00,63.41,0
42.00,63.33,0
57.00,62.83,0
59.00,62.16,0
37.00,61.34,0
40.00,60.12,0
50.00,58.59,0
35.00,56.93,0
36.00,55.09,0
79.00,53.40,0
35.00,52.25,0
55.00,51.33,0
96.00,50.93,0
41.00,51.32,0
66.00,51.94,0
70.00,52.70,0
52.00,53.66,0
62.00,54.58,0
55.00,55.37,0
68.00,56.13,0
108.00,57.32,0
46.00,59.07,0
62.00,60.61,0
79.00,61.83,0
54.00,62.98,0
74.00,63.93,0
120.00,65.20,0
80.00,67.27,0
96.00,69.72,0
49.00,71.93,0
42.00,73.19,0
75.00,73.44,0
42.00,73.14,0
42.00,72.16,0
56.00,70.53,0
39.00,68.56,0
39.00,66.23,0
54.00,63.68,0
37.00,61.16,0
34.00,58.56,0
61.00,56.02,0
37.00,53.84,0
74.00,52.12,0
92.00,51.39,0
59.00,51.74,0
43.00,52.40,0
73.00,52.96,0
81.00,53.87,0
43.00,55.08,0
123.00,56.57,0
66.00,58.78,0
70.00,61.21,0
135.00,63.85,0
68.00,67.13,0
68.00,70.20,0
86.00,72.61,0
66.00,74.57,0
57.00,75.87,0
64.00,76.37,0
48.00,76.15,0
58.00,75.26,0
63.00,73.98,0
47.00,72.46,0
37.00,70.52,0
55.00,68.16,0
92.00,66.10,0
64.00,64.85,0
66.00,64.13,0
52.00,63.51,0
68.00,62.90,0
64.00,62.45,0
81.00,62.33,0
114.00,62.99,0
81.00,64.65,0
45.00,66.43,0
77.00,67.63,0
52.00,68.38,0
56.00,68.65,0
141.00,69.11,0
73.00,70.56,0
117.00,72.67,0
137.00,75.54,0
67.00,79.01,0
63.00,81.79,0
77.00,83.44,0
65.00,84.26,0
50.00,84.23,0
66.00,83.33,0
40.00,81.73,0
47.00,79.40,0
60.00,76.61,0
45.00,73.71,0
39.00,70.63,0
60.00,67.47,0
36.00,64.45,0
33.00,61.38,0
59.00,58.36,0
35.00,55.67,0
47.00,53.24,0
72.00,51.29,0
52.00,50.12,0
87.00,49.75,0
72.00,50.28,0
40.00,51.26,0
86.00,52.28,0
105.00,53.94,0
88.00,56.59,0
49.00,59.46,0
65.00,61.74,0
135.00,64.04,0
70.00,67.01,0
83.00,70.00,0
84.00,72.61,0
56.00,74.73,0
78.00,76.14,0
60.00,76.94,0
88.00,77.37,0
89.00,77.82,0
110.00,78.70,0
36.00,79.62,0
54.00,79.64,0
99.00,79.04,0
42.00,78.40,0
34.00,77.10,0
62.00,75.00,0
78.00,72.87,0
79.00,71.30,0
85.00,70.40,0
36.00,69.75,0
52.00,68.68,0
52.00,67.18,0
65.00,65.64,0
39.00,64.13,0
47.00,62.43,0
56.00,60.64,0
60.00,59.09,0
74.00,58.02,0
38.00,57.32,0
57.00,56.61,0
74.00,56.06,0
60.00,55.98,0
54.00,56.12,0
143.00,56.94,0
68.00,59.04,0
73.00,61.59,0
64.00,63.79,0
44.00,65.38,0
67.00,66.23,0
94.00,66.94,0
38.00,67.68,0
58.00,67.90,0
39.00,67.41,0
39.00,66.25,0
37.00,64.46,0
34.00,62.18,0
40.00,59.60,0
44.00,56.97,0
47.00,54.54,0
47.00,52.42,0
76.00,50.87,0
53.00,50.09,0
47.00,49.74,0
64.00,49.57,0
61.00,49.75,0
60.00,50.27,0
67.00,51.06,0
57.00,52.04,0
85.00,53.27,0
62.00,54.82,0
72.00,56.51,0
68.00,58.20,0
70.00,59.85,0
67.00,61.40,0
129.00,63.29,0
71.00,65.92,0
48.00,68.38,0
72.00,69.97,0
56.00,70.90,0
61.00,71.30,0
84.00,71.41,0
45.00,71.40,0
36.00,70.76,0
83.00,69.59,0
36.00,68.37,0
39.00,66.78,0
59.00,64.80,0
65.00,62.99,0
44.00,61.46,0
73.00,60.13,0
39.00,59.03,0
75.00,58.10,0
64.00,57.57,0
53.00,57.38,0
54.00,57.19,0
55.00,56.94,0
65.00,56.77,0
64.00,56.81,0
57.00,57.03,0
87.00,57.50,0
45.00,58.24,0
95.00,59.12,0
62.00,60.29,0
63.00,61.52,0
73.00,62.57,0
120.00,64.02,0
63.00,66.11,0
36.00,67.85,0
69.00,68.61,0
39.00,68.69,0
60.00,68.19,0
62.00,67.39,0
49.00,66.47,0
37.00,65.21,0
47.00,63.50,0
36.00,61.49,0
35.00,59.20,0
38.00,56.69,0
37.00,54.13,0
45.00,51.70,0
45.00,49.56,0
57.00,47.89,0
53.00,46.78,0
50.00,46.16,0
71.00,46.00,0
50.00,46.36,0
68.00,47.08,0
63.00,48.12,0
71.00,49.52,0
59.00,51.12,0
85.00,52.92,0
61.00,54.93,0
66.00,56.89,0
64.00,58.63,0
69.00,60.18,0
63.00,61.57,0
81.00,62.86,0
60.00,64.13,0
50.00,65.04,0
61.00,65.41,0
44.00,65.32,0
54.00,64.76,0
108.00,64.35,0
43.00,64.50,0
39.00,64.40,0
74.00,63.81,0
37.00,63.10,0
36.00,62.00,0
68.00,60.57,0
36.00,59.20,0
48.00,57.76,0
96.00,56.64,0
54.00,56.36,0
54.00,56.40,0
69.00,56.49,0
63.00,56.79,0
51.00,57.18,0
103.00,57.79,0
59.00,58.97,0
74.00,60.35,0
69.00,61.68,0
62.00,62.92,0
57.00,63.85,0
68.00,64.46,0
59.00,64.88,0
59.00,65.08,0
55.00,64.99,0
52.00,64.60,0
61.00,63.99,0
98.00,63.65,0
50.00,63.83,0
42.00,63.84,0
64.00,63.37,0
34.00,62.60,0
35.00,61.32,0
45.00,59.55,0
36.00,57.56,0
43.00,55.48,0
48.00,53.46,0
40.00,51.63,0
81.00,50.27,0
56.00,49.71,0
57.00,49.71,0
72.00,50.06,0
67.00,50.89,0
54.00,51.99,0
125.00,53.58,0
58.00,56.02,0
69.00,58.58,0
65.00,60.75,0
63.00,62.56,0
56.00,63.90,0
78.00,64.90,0
64.00,65.80,0
53.00,66.44,0
60.00,66.63,0
45.00,66.38,0
53.00,65.67,0
48.00,64.60,0
46.00,63.27,0
45.00,61.69,0
44.00,59.94,0
33.00,58.00,0
36.00,55.81,0
51.00,53.59,0
33.00,51.54,0
76.00,49.88,0
43.00,48.85,0
43.00,48.14,0
112.00,48.01,0
57.00,48.99,0
64.00,50.52,0
69.00,52.11,0
66.00,53.81,0
57.00,55.46,0
127.00,57.41,0
60.00,60.06,0
70.00,62.71,0
62.00,64.81,0
65.00,66.41,0
60.00,67.51,0
76.00,68.27,0
63.00,68.86,0
56.00,69.17,0
52.00,69.00,0
48.00,68.30,0
49.00,67.14,0
41.00,65.58,0
43.00,63.67,0
40.00,61.49,0
64.00,59.35,0
40.00,57.47,0
36.00,55.64,0
34.00,53.61,0
37.00,51.46,0
48.00,49.41,0
51.00,47.75,0
54.00,46.59,0
51.00,45.90,0
47.00,45.54,0
66.00,45.50,0
38.00,45.77,0
70.00,46.20,0
64.00,47.00,0
44.00,48.06,0
66.00,49.08,0
95.00,50.46,0
64.00,52.50,0
69.00,54.73,0
66.00,56.82,0
68.00,58.76,0
65.00,60.50,0
55.00,61.91,0
54.00,62.83,0
50.00,63.21,0
69.00,63.25,0
41.00,63.09,0
49.00,62.53,0
52.00,61.62,0
34.00,60.43,0
31.00,58.78,0
42.00,56.71,0
53.00,54.66,0
38.00,52.82,0
54.00,51.20,0
39.00,49.80,0
51.00,48.60,0
60.00,47.74,0
52.00,47.36,0
84.00,47.56,0
55.00,48.41,0
68.00,49.62,0
58.00,50.96,0
72.00,52.41,0
59.00,53.93,0
122.00,55.89,0
60.00,58.54,0
65.00,61.15,0
79.00,63.33,0
64.00,65.27,0
60.00,66.79,0
84.00,67.96,0
65.00,69.02,0
50.00,69.73,0
54.00,69.77,0
41.00,69.13,0
42.00,67.83,0
86.00,66.35,0
36.00,65.09,0
40.00,63.62,0
85.00,62.06,0
36.00,60.85,0
37.00,59.53,0
68.00,58.02,0
54.00,56.84,0
49.00,55.92,0
89.00,55.36,0
54.00,55.44,0
60.00,55.79,0
53.00,56.08,0
68.00,56.38,0
59.00,56.80,0
80.00,57.44,0
58.00,58.32,0
70.00,59.25,0
62.00,60.15,0
61.00,60.96,0
58.00,61.55,0
104.00,62.29,0
65.00,63.53,0
58.00,64.79,0
66.00,65.65,0
37.00,66.00,0
57.00,65.71,0
84.00,65.26,0
40.00,64.95,0
38.00,64.24,0
74.00,63.15,0
39.00,62.09,0
34.00,60.77,0
53.00,59.08,0
36.00,57.30,0
42.00,55.43,0
79.00,53.82,0
51.00,52.90,0
52.00,52.38,0
62.00,52.04,0
40.00,51.85,0
35.00,51.45,0
69.00,50.93,0
53.00,50.71,0
41.00,50.66,0
56.00,50.53,0
75.00,50.64,0
67.00,51.31,0
108.00,52.74,0
59.00,54.91,0
58.00,57.09,0
68.00,58.87,0
54.00,60.32,0
45.00,61.26,0
89.00,61.87,0
53.00,62.57,0
47.00,63.04,0
58.00,63.00,0
44.00,62.60,0
33.00,61.71,0
80.00,60.57,0
38.00,59.60,0
144.00,59.39,0
94.00,60.72,0
42.00,62.81,0
48.00,64.19,0
72.00,64.85,0
56.00,65.26,0
52.00,65.36,0
94.00,65.38,0
48.00,65.61,0
69.00,65.75,0
75.00,65.85,0
73.00,66.16,0
46.00,66.41,0
142.00,66.94,0
57.00,68.34,0
68.00,69.83,0
69.00,70.81,0
66.00,71.47,0
56.00,71.73,0
112.00,71.95,0
70.00,72.63,0
46.00,73.21,0
60.00,73.07,0
49.00,72.33,0
55.00,71.13,0
85.00,69.88,0
38.00,68.80,0
35.00,67.32,0
69.00,65.43,0
36.00,63.56,0
35.00,61.50,0
68.00,59.33,0
46.00,57.52,0
50.00,55.97,0
54.00,54.60,0
58.00,53.54,0
65.00,52.91,0
59.00,52.72,0
68.00,52.91,0
64.00,53.44,0
76.00,54.32,0
61.00,55.49,0
71.00,56.76,0
67.00,58.09,0
70.00,59.45,0
55.00,60.68,0
112.00,62.02,0
66.00,63.84,0
64.00,65.65,0
66.00,67.01,0
46.00,67.83,0
52.00,67.95,0
43.00,67.39,0
58.00,66.36,0
38.00,65.01,0
38.00,63.26,0
51.00,61.21,0
36.00,59.07,0
35.00,56.81,0
44.00,54.45,0
68.00,52.43,0
38.00,50.97,0
58.00,49.84,0
42.00,48.96,0
44.00,48.20,0
84.00,47.80,0
60.00,48.17,0
58.00,49.02,0
73.00,50.11,0
64.00,51.49,0
64.00,53.02,0
86.00,54.74,0
60.00,56.68,0
59.00,58.47,0
55.00,59.82,0
60.00,60.76,0
57.00,61.39,0
204.00,62.96,0
77.00,66.54,0
162.00,71.35,0
70.00,76.54,0
44.00,80.81,0
52.00,83.12,0
50.00,83.78,0
36.00,83.04,0
38.00,81.05,0
40.00,78.12,0
39.00,74.61,0
37.00,70.76,0
69.00,66.99,0
37.00,63.67,0
56.00,60.68,0
52.00,58.07,0
56.00,55.95,0
51.00,54.26,0
42.00,52.84,0
56.00,51.59,0
47.00,50.60,0
75.00,50.04,0
63.00,50.10,0
77.00,50.79,0
69.00,51.99,0
83.00,53.66,0
59.00,55.58,0
72.00,57.45,0
60.00,59.16,0
58.00,60.56,0
77.00,61.72,0
44.00,62.67,0
66.00,63.23,0
48.00,63.42,0
72.00,63.40,0
41.00,63.22,0
54.00,62.70,0
38.00,61.78,0
36.00,60.41,0
46.00,58.66,0
39.00,56.77,0
41.00,54.82,0
44.00,52.89,0
38.00,51.05,0
67.00,49.52,0
51.00,48.55,0
42.00,47.96,0
54.00,47.49,0
70.00,47.37,0
56.00,47.79,0
59.00,48.51,0
63.00,49.42,0
68.00,50.56,0
100.00,52.23,0
90.00,54.73,0
37.00,57.44,0
78.00,59.61,0
50.00,61.28,0
59.00,62.49,0
58.00,63.21,0
103.00,63.97,0
59.00,65.10,0
34.00,65.91,0
73.00,66.01,0
42.00,65.73,0
56.00,65.10,0
89.00,64.49,0
37.00,64.12,0
38.00,63.39,0
117.00,62.63,0
38.00,62.55,0
36.00,62.31,0
70.00,61.56,0
42.00,60.76,0
50.00,59.82,0
116.00,59.27,0
57.00,59.69,0
66.00,60.48,0
74.00,61.26,0
68.00,62.15,0
62.00,63.02,0
120.00,64.18,0
66.00,65.99,0
76.00,67.89,0
68.00,69.45,0
68.00,70.66,0
62.00,71.44,0
88.00,71.98,0
60.00,72.48,0
46.00,72.56,0
65.00,72.01,0
38.00,70.98,0
50.00,69.43,0
43.00,67.45,0
41.00,65.18,0
34.00,62.60,0
39.00,59.80,0
39.00,56.95,0
35.00,54.15,0
47.00,51.52,0
36.00,49.19,0
44.00,47.13,0
45.00,45.41,0
73.00,44.31,0
70.00,44.17,0
54.00,44.80,0
75.00,45.89,0
48.00,47.29,0
74.00,48.81,0
57.00,50.45,0
123.00,52.59,0
60.00,55.49,0
65.00,58.40,0
72.00,60.84,0
64.00,62.95,0
49.00,64.52,0
83.00,65.61,0
38.00,66.36,0
57.00,66.51,0
59.00,66.17,0
53.00,65.61,0
50.00,64.79,0
49.00,63.69,0
42.00,62.32,0
34.00,60.60,0
44.00,58.57,0
36.00,56.39,0
35.00,54.12,0
57.00,51.95,0
39.00,50.14,0
38.00,48.53,0
64.00,47.19,0
54.00,46.44,0
111.00,46.67,0
56.00,48.05,0
64.00,49.88,0
65.00,51.69,0
65.00,53.49,0
65.00,55.24,0
80.00,57.02,0
60.00,58.84,0
76.00,60.56,0
66.00,62.16,0
63.00,63.57,0
59.00,64.61,0
89.00,65.49,0
59.00,66.45,0
36.00,66.98,0
61.00,66.77,0
44.00,66.07,0
40.00,64.92,0
67.00,63.47,0
37.00,62.02,0
33.00,60.30,0
49.00,58.26,0
38.00,56.18,0
38.00,54.09,0
58.00,52.13,0
45.00,50.57,0
48.00,49.33,0
60.00,48.42,0
54.00,47.96,0
62.00,47.93,0
64.00,48.31,0
80.00,49.24,0
63.00,50.68,0
112.00,52.73,0
54.00,55.36,0
69.00,57.91,0
60.00,60.02,0
62.00,61.71,0
60.00,62.98,0
83.00,64.04,0
66.00,65.15,0
53.00,66.05,0
56.00,66.44,0
46.00,66.28,0
58.00,65.68,0
53.00,64.83,0
52.00,63.82,0
38.00,62.56,0
37.00,60.90,0
44.00,58.91,0
35.00,56.77,0
35.00,54.50,0
65.00,52.38,0
41.00,50.75,0
44.00,49.40,0
64.00,48.34,0
45.00,47.74,0
52.00,47.40,0
112.00,47.72,0
49.00,49.08,0
65.00,50.76,0
58.00,52.31,0
76.00,53.89,0
62.00,55.56,0
118.00,57.62,0
64.00,60.28,0
77.00,62.97,0
69.00,65.31,0
64.00,67.24,0
60.00,68.61,0
69.00,69.47,0
60.00,69.96,0
53.00,70.02,0
57.00,69.60,0
52.00,68.79,0
50.00,67.64,0
42.00,66.14,0
43.00,64.27,0
41.00,62.12,0
38.00,59.78,0
38.00,57.31,0
32.00,54.75,0
39.00,52.15,0
43.00,49.72,0
52.00,47.69,0
49.00,46.20,0
54.00,45.22,0
53.00,44.72,0
62.00,44.69,0
69.00,45.23,0
50.00,46.20,0
74.00,47.42,0
64.00,48.94,0
74.00,50.77,0
56.00,52.69,0
78.00,54.59,0
64.00,56.52,0
70.00,58.39,0
59.00,60.06,0
57.00,61.37,0
66.00,62.31,0
54.00,62.97,0
52.00,63.25,0
103.00,63.53,0
53.00,64.22,0
46.00,64.72,0
66.00,64.71,0
46.00,64.41,0
36.00,63.65,0
69.00,62.52,0
36.00,61.33,0
38.00,59.87,0
95.00,58.50,0
53.00,57.85,0
46.00,57.48,0
57.00,56.97,0
56.00,56.48,0
53.00,56.08,0
121.00,56.26,0
58.00,57.44,0
72.00,59.01,0
66.00,60.46,0
76.00,61.88,0
54.00,63.16,0
117.00,64.53,0
66.00,66.37,0
65.00,68.16,0
74.00,69.50,0
59.00,70.47,0
58.00,70.94,0
95.00,71.19,0
59.00,71.56,0
46.00,71.62,0
61.00,71.04,0
38.00,69.96,0
35.00,68.24,0
57.00,66.04,0
36.00,63.72,0
33.00,61.19,0
60.00,58.58,0
44.00,56.29,0
40.00,54.24,0
56.00,52.38,0
45.00,50.86,0
56.00,49.70,0
74.00,49.08,0
48.00,49.07,0
68.00,49.41,0
58.00,50.04,0
70.00,50.95,0
58.00,52.08,0
94.00,53.53,0
53.00,55.33,0
70.00,57.10,0
66.00,58.69,0
64.00,60.17,0
68.00,61.46,0
112.00,62.99,0
57.00,64.96,0
52.00,66.60,0
67.00,67.54,0
45.00,67.93,0
54.00,67.72,0
73.00,67.19,0
45.00,66.59,0
39.00,65.60,0
61.00,64.20,0
36.00,62.64,0
34.00,60.77,0
55.00,58.65,0
39.00,56.61,0
50.00,54.71,0
44.00,52.96,0
52.00,51.46,0
51.00,50.25,0
53.00,49.39,0
70.00,48.97,0
54.00,49.08,0
71.00,49.60,0
57.00,50.45,0
73.00,51.56,0
61.00,52.88,0
77.00,54.38,0
64.00,56.03,0
66.00,57.67,0
63.00,59.15,0
65.00,60.44,0
58.00,61.50,0
86.00,62.48,0
56.00,63.52,0
48.00,64.25,0
57.00,64.40,0
44.00,64.09,0
46.00,63.31,0
104.00,62.61,0
37.00,62.42,0
34.00,61.97,0
64.00,60.97,0
38.00,59.85,0
39.00,58.50,0
52.00,56.92,0
42.00,55.37,0
46.00,53.87,0
63.00,52.58,0
54.00,51.72,0
60.00,51.27,0
55.00,51.13,0
72.00,51.33,0
58.00,51.91,0
79.00,52.84,0
59.00,54.07,0
68.00,55.41,0
66.00,56.76,0
65.00,58.09,0
54.00,59.25,0
71.00,60.19,0
64.00,61.06,0
52.00,61.78,0
60.00,62.17,0
42.00,62.17,0
49.00,61.72,0
53.00,60.93,0
44.00,59.96,0
38.00,58.72,0
50.00,57.24,0
38.00,55.68,0
36.00,53.99,0
44.00,52.20,0
35.00,50.42,0
56.00,48.81,0
50.00,47.60,0
52.00,46.83,0
62.00,46.48,0
61.00,46.63,0
69.00,47.29,0
50.00,48.29,0
103.00,49.70,0
59.00,51.73,0
75.00,54.02,0
67.00,56.25,0
61.00,58.32,0
59.00,60.02,0
76.00,61.43,0
60.00,62.71,0
65.00,63.77,0
64.00,64.56,0
53.00,65.07,0
61.00,65.21,0
75.00,65.22,0
54.00,65.27,0
43.00,65.02,0
61.00,64.33,0
39.00,63.38,0
38.00,62.02,0
89.00,60.62,0
34.00,59.62,0
36.00,58.48,0
36.00,56.86,0
49.00,55.04,0
40.00,53.27,0
76.00,51.86,0
47.00,51.05,0
47.00,50.54,0
120.00,50.64,0
52.00,51.83,0
62.00,53.40,0
72.00,54.87,0
75.00,56.50,0
59.00,58.20,0
98.00,59.96,0
61.00,61.94,0
70.00,63.78,0
68.00,65.30,0
63.00,66.52,0
60.00,67.35,0
93.00,68.03,0
63.00,68.86,0
55.00,69.47,0
73.00,69.68,0
44.00,69.55,0
47.00,68.88,0
68.00,67.80,0
38.00,66.57,0
34.00,64.89,0
48.00,62.75,0
43.00,60.49,0
51.00,58.30,0
35.00,56.19,0
47.00,54.12,0
58.00,52.31,0
48.00,50.95,0
48.00,49.90,0
59.00,49.13,0
65.00,48.84,0
75.00,49.19,0
57.00,50.07,0
90.00,51.40,0
65.00,53.20,0
95.00,55.42,0
67.00,57.92,0
62.00,60.32,0
63.00,62.25,0
90.00,63.95,0
65.00,65.67,0
60.00,67.13,0
59.00,68.03,0
45.00,68.31,0
53.00,67.93,0
83.00,67.32,0
47.00,66.84,0
41.00,66.06,0
85.00,65.06,0
37.00,64.19,0
35.00,63.01,0
80.00,61.58,0
35.00,60.36,0
38.00,58.98,0
87.00,57.63,0
41.00,56.79,0
60.00,56.16,0
64.00,55.69,0
59.00,55.54,0
56.00,55.55,0
76.00,55.77,0
60.00,56.31,0
76.00,57.11,0
69.00,58.15,0
71.00,59.38,0
72.00,60.69,0
72.00,62.05,0
69.00,63.38,0
96.00,64.84,0
63.00,66.48,0
45.00,67.73,0
63.00,68.23,0
51.00,68.19,0
53.00,67.71,0
106.00,67.27,0
40.00,67.25,0
45.00,66.91,0
57.00,65.99,0
35.00,64.71,0
69.00,63.21,0
46.00,61.79,0
51.00,60.42,0
88.00,59.33,0
45.00,58.80,0
51.00,58.34,0
83.00,57.96,0
51.00,57.97,0
43.00,57.95,0
54.00,57.59,0
75.00,57.28,0
62.00,57.35,0
62.00,57.66,0
66.00,58.08,0
45.00,58.45,0
59.00,58.58,0
65.00,58.62,0
54.00,58.72,0
59.00,58.78,0
68.00,58.86,0
66.00,59.14,0
52.00,59.47,0
52.00,59.60,0
53.00,59.45,0
44.00,59.04,0
46.00,58.32,0
40.00,57.31,0
34.00,55.96,0
44.00,54.33,0
36.00,52.61,0
45.00,50.89,0
37.00,49.25,0
55.00,47.81,0
44.00,46.71,0
55.00,45.97,0
53.00,45.60,0
52.00,45.57,0
72.00,45.93,0
54.00,46.75,0
68.00,47.88,0
69.00,49.29,0
64.00,50.97,0
65.00,52.73,0
75.00,54.55,0
57.00,56.37,0
99.00,58.28,0
66.00,60.45,0
62.00,62.53,0
61.00,64.11,0
51.00,65.14,0
48.00,65.51,0
132.00,65.93,0
54.00,67.09,0
38.00,68.05,0
80.00,68.27,0
35.00,68.10,0
34.00,67.24,0
34.00,65.51,0
41.00,63.20,0
41.00,60.66,0
43.00,58.10,0
63.00,55.80,0
47.00,54.00,0
47.00,52.53,0
64.00,51.37,0
52.00,50.67,0
62.00,50.36,0
59.00,50.40,0
68.00,50.82,0
61.00,51.57,0
67.00,52.57,0
66.00,53.74,0
71.00,55.09,0
71.00,56.59,0
44.00,57.99,0
57.00,58.93,0
56.00,59.45,0
60.00,59.78,0
45.00,59.88,0
56.00,59.67,0
46.00,59.23,0
58.00,58.63,0
44.00,57.94,0
36.00,57.00,0
67.00,55.92,0
54.00,55.10,0
40.00,54.43,0
75.00,53.85,0
42.00,53.55,0
35.00,53.15,0
49.00,52.42,0
48.00,51.63,0
55.00,50.98,0
54.00,50.55,0
60.00,50.40,0
66.00,50.60,0
50.00,51.08,0
78.00,51.77,0
70.00,52.86,0
56.00,54.21,0
65.00,55.48,0
76.00,56.78,0
65.00,58.22,0
84.00,59.78,0
61.00,61.43,0
64.00,62.87,0
72.00,64.05,0
46.00,64.93,0
60.00,65.30,0
90.00,65.54,0
56.00,66.00,0
44.00,66.20,0
71.00,65.94,0
39.00,65.42,0
37.00,64.40,0
86.00,63.14,0
36.00,62.12,0
34.00,60.88,0
90.00,59.53,0
46.00,58.69,0
39.00,57.93,0
69.00,57.04,0
52.00,56.38,0
51.00,55.86,0
123.00,55.90,0
55.00,56.99,0
66.00,58.41,0
75.00,59.73,0
74.00,61.15,0
69.00,62.62,0
118.00,64.39,0
63.00,66.65,0
65.00,68.71,0
60.00,70.10,0
67.00,70.92,0
61.00,71.30,0
52.00,71.23,0
58.00,70.66,0
50.00,69.69,0
50.00,68.38,0
53.00,66.80,0
51.00,65.10,0
44.00,63.30,0
45.00,61.37,0
35.00,59.26,0
34.00,56.93,0
44.00,54.49,0
36.00,52.15,0
44.00,49.96,0
48.00,48.07,0
69.00,46.78,0
66.00,46.33,0
56.00,46.58,0
60.00,47.20,0
49.00,47.97,0
80.00,48.93,0
55.00,50.23,0
73.00,51.73,0
64.00,53.36,0
141.00,55.65,0
58.00,58.89,0
78.00,62.16,0
58.00,64.85,0
66.00,66.90,0
63.00,68.33,0
52.00,69.17,0
60.00,69.40,0
52.00,69.14,0
56.00,68.47,0
43.00,67.41,0
59.00,66.04,0
46.00,64.53,0
39.00,62.82,0
65.00,61.00,0
36.00,59.30,0
35.00,57.47,0
49.00,55.45,0
47.00,53.58,0
40.00,51.89,0
59.00,50.43,0
50.00,49.38,0
60.00,48.75,0
109.00,48.97,0
56.00,50.28,0
64.00,51.96,0
63.00,53.57,0
72.00,55.18,0
80.00,56.96,0
83.00,59.03,0
60.00,61.18,0
73.00,63.07,0
63.00,64.65,0
61.00,65.86,0
64.00,66.66,0
65.00,67.16,0
54.00,67.37,0
50.00,67.15,0
54.00,66.48,0
42.00,65.42,0
43.00,63.95,0
42.00,62.11,0
36.00,60.01,0
92.00,58.13,0
36.00,56.90,0
36.00,55.73,0
91.00,54.65,0
45.00,54.20,0
46.00,53.94,0
65.00,53.63,0
46.00,53.46,0
58.00,53.34,0
93.00,53.59,0
57.00,54.49,0
66.00,55.63,0
63.00,56.75,0
69.00,57.87,0
53.00,58.92,0
77.00,59.84,0
58.00,60.76,0
72.00,61.64,0
83.00,62.63,0
50.00,63.69,0
64.00,64.43,0
52.00,64.76,0
61.00,64.77,0
43.00,64.42,0
46.00,63.62,0
48.00,62.42,0
77.00,61.25,0
44.00,60.38,0
36.00,59.37,0
72.00,58.20,0
80.00,57.54,0
42.00,57.39,0
72.00,57.33,0
52.00,57.36,0
48.00,57.33,0
75.00,57.26,0
51.00,57.37,0
51.00,57.44,0
88.00,57.59,0
57.00,58.15,0
74.00,58.93,0
68.00,59.83,0
110.00,61.19,0
64.00,63.11,0
96.00,65.25,0
60.00,67.32,0
71.00,69.05,0
72.00,70.34,0
57.00,71.25,0
56.00,71.58,0
89.00,71.59,0
35.00,71.46,0
47.00,70.70,0
48.00,69.24,0
54.00,67.48,0
36.00,65.49,0
41.00,63.20,0
37.00,60.65,0
70.00,58.23,0
44.00,56.30,0
45.00,54.65,0
37.00,53.00,0
62.00,51.49,0
45.00,50.35,0
118.00,50.04,0
63.00,50.99,0
47.00,52.43,0
47.00,53.47,0
73.00,54.27,0
48.00,55.07,0
57.00,55.73,0
103.00,56.57,0
56.00,57.98,0
78.00,59.55,0
60.00,61.02,0
73.00,62.36,0
64.00,63.55,0
64.00,64.54,0
63.00,65.27,0
65.00,65.77,0
54.00,66.03,0
98.00,66.27,0
46.00,66.72,0
46.00,66.80,0
64.00,66.33,0
41.00,65.55,0
35.00,64.29,0
83.00,62.81,0
37.00,61.58,0
39.00,60.23,0
72.00,58.75,0
38.00,57.52,0
42.00,56.25,0
56.00,54.89,0
54.00,53.77,0
51.00,52.91,0
71.00,52.39,0
40.00,52.19,0
84.00,52.25,0
63.00,52.82,0
64.00,53.76,0
63.00,54.81,0
73.00,55.96,0
61.00,57.22,0
78.00,58.54,0
59.00,59.89,0
74.00,61.17,0
63.00,62.35,0
71.00,63.42,0
52.00,64.27,0
50.00,64.64,0
60.00,64.55,0
50.00,64.15,0
50.00,63.47,0
48.00,62.49,0
34.00,61.16,0
42.00,59.44,0
43.00,57.50,0
35.00,55.47,0
39.00,53.35,0
45.00,51.28,0
43.00,49.43,0
50.00,47.89,0
58.00,46.79,0
62.00,46.30,0
64.00,46.43,0
54.00,47.00,0
61.00,47.81,0
106.00,49.18,0
86.00,51.55,0
57.00,54.43,0
69.00,57.04,0
66.00,59.29,0
67.00,61.26,0
61.00,62.88,0
60.00,64.10,0
40.00,64.72,0
108.00,65.11,0
54.00,65.81,0
44.00,66.32,0
51.00,66.10,0
61.00,65.46,0
37.00,64.55,0
70.00,63.42,0
35.00,62.21,0
40.00,60.73,0
61.00,59.05,0
51.00,57.58,0
37.00,56.21,0
55.00,54.81,0
47.00,53.53,0
58.00,52.50,0
50.00,51.74,0
43.00,51.12,0
58.00,50.55,0
48.00,50.17,0
71.00,50.07,0
57.00,50.39,0
67.00,51.04,0
62.00,51.94,0
60.00,52.99,0
63.00,54.05,0
77.00,55.25,0
62.00,56.64,0
64.00,58.01,0
61.00,59.21,0
64.00,60.23,0
56.00,61.03,0
58.00,61.57,0
53.00,61.79,0
41.00,61.62,0
54.00,61.01,0
52.00,60.20,0
37.00,59.20,0
46.00,57.90,0
35.00,56.36,0
34.00,54.56,0
46.00,52.63,0
45.00,50.83,0
42.00,49.25,0
53.00,47.93,0
47.00,46.95,0
51.00,46.29,0
90.00,46.23,0
61.00,47.08,0
63.00,48.44,0
60.00,49.91,0
73.00,51.49,0
57.00,53.17,0
97.00,55.03,0
58.00,57.18,0
72.00,59.28,0
55.00,61.04,0
66.00,62.41,0
48.00,63.32,0
90.00,64.00,0
38.00,64.61,0
44.00,64.67,0
60.00,64.11,0
43.00,63.28,0
53.00,62.20,0
49.00,60.97,0
36.00,59.56,0
42.00,57.86,0
39.00,55.98,0
39.00,54.02,0
108.00,52.60,0
35.00,52.18,0
46.00,51.99,0
41.00,51.51,0
58.00,50.98,0
52.00,50.62,0
47.00,50.40,0
76.00,50.40,0
85.00,51.08,0
81.00,52.61,0
57.00,54.54,0
57.00,56.30,0
72.00,57.78,0
51.00,59.07,0
85.00,60.25,0
58.00,61.45,0
66.00,62.54,0
57.00,63.35,0
57.00,63.82,0
60.00,63.98,0
71.00,64.04,0
58.00,64.11,0
46.00,63.98,0
50.00,63.41,0
71.00,62.68,0
44.00,62.00,0
50.00,61.16,0
35.00,59.98,0
35.00,58.37,0
40.00,56.42,0
38.00,54.33,0
34.00,52.19,0
37.00,50.02,0
51.00,48.02,0
56.00,46.53,0
55.00,45.67,0
43.00,45.22,0
73.00,45.16,0
52.00,45.61,0
80.00,46.57,0
42.00,47.86,0
70.00,49.19,0
58.00,50.56,0
77.00,52.10,0
60.00,53.80,0
68.00,55.50,0
56.00,57.04,0
60.00,58.31,0
58.00,59.28,0
88.00,60.24,0
51.00,61.33,0
45.00,62.07,0
68.00,62.31,0
49.00,62.33,0
38.00,61.98,0
42.00,61.04,0
39.00,59.64,0
38.00,57.92,0
38.00,55.96,0
37.00,53.87,0
38.00,51.74,0
44.00,49.71,0
59.00,48.05,0
50.00,46.96,0
50.00,46.30,0
52.00,45.94,0
68.00,45.99,0
52.00,46.48,0
75.00,47.36,0
56.00,48.60,0
63.00,50.00,0
55.00,51.38,0
72.00,52.74,0
58.00,54.16,0
80.00,55.67,0
58.00,57.25,0
69.00,58.75,0
61.00,60.07,0
56.00,61.13,0
60.00,61.84,0
44.00,62.15,0
48.00,61.95,0
48.00,61.31,0
44.00,60.35,0
44.00,59.12,0
35.00,57.61,0
69.00,56.07,0
35.00,54.77,0
34.00,53.39,0
67.00,51.99,0
43.00,50.95,0
46.00,50.12,0
52.00,49.38,0
54.00,48.87,0
54.00,48.63,0
84.00,48.88,0
48.00,49.67,0
72.00,50.72,0
62.00,51.94,0
81.00,53.43,0
57.00,55.12,0
61.00,56.70,0
59.00,57.99,0
73.00,59.14,0
55.00,60.20,0
80.00,61.20,0
53.00,62.14,0
55.00,62.80,0
55.00,63.03,0
52.00,62.91,0
45.00,62.43,0
51.00,61.59,0
50.00,60.55,0
44.00,59.37,0
53.00,58.09,0
43.00,56.80,0
33.00,55.36,0
59.00,53.82,0
38.00,52.43,0
39.00,51.08,0
83.00,50.01,0
45.00,49.61,0
53.00,49.53,0
52.00,49.52,0
53.00,49.60,0
46.00,49.71,0
74.00,49.96,0
44.00,50.47,0
68.00,51.08,0
48.00,51.75,0
73.00,52.50,0
53.00,53.37,0
68.00,54.32,0
58.00,55.28,0
48.00,56.10,0
59.00,56.63,0
63.00,57.05,0
53.00,57.46,0
94.00,58.03,0
53.00,58.98,0
45.00,59.78,0
46.00,59.98,0
49.00,59.68,0
43.00,59.02,0
42.00,58.03,0
36.00,56.72,0
35.00,55.07,0
33.00,53.14,0
43.00,51.11,0
40.00,49.19,0
42.00,47.47,0
50.00,46.03,0
49.00,44.99,0
56.00,44.40,0
53.00,44.25,0
67.00,44.57,0
48.00,45.28,0
73.00,46.27,0
53.00,47.54,0
70.00,48.99,0
62.00,50.58,0
63.00,52.24,0
71.00,53.92,0
71.00,55.69,0
57.00,57.43,0
61.00,58.89,0
57.00,60.00,0
52.00,60.74,0
56.00,61.08,0
53.00,61.11,0
41.00,60.79,0
69.00,60.23,0
37.00,59.59,0
42.00,58.66,0
68.00,57.58,0
35.00,56.61,0
35.00,55.44,0
92.00,54.34,0
38.00,53.83,0
45.00,53.43,0
95.00,53.20,0
47.00,53.60,0
52.00,54.12,0
56.00,54.44,0
62.00,54.76,0
56.00,55.13,0
102.00,55.88,0
54.00,57.20,0
68.00,58.61,0
72.00,59.92,0
69.00,61.25,0
52.00,62.40,0
70.00,63.23,0
54.00,63.80,0
60.00,64.08,0
60.00,64.12,0
51.00,63.93,0
56.00,63.48,0
44.00,62.74,0
52.00,61.72,0
64.00,60.66,0
43.00,59.69,0
100.00,59.05,0
43.00,58.98,0
35.00,58.80,0
35.00,57.94,0
48.00,56.64,0
42.00,55.21,0
47.00,53.78,0
66.00,52.58,0
48.00,51.81,0
60.00,51.35,0
57.00,51.16,0
56.00,51.22,0
47.00,51.36,0
76.00,51.64,0
53.00,52.22,0
65.00,52.99,0
60.00,53.82,0
76.00,54.84,0
65.00,56.08,0
67.00,57.43,0
53.00,58.64,0
55.00,59.50,0
58.00,60.02,0
42.00,60.19,0
52.00,59.93,0
59.00,59.45,0
47.00,58.91,0
37.00,58.12,0
41.00,56.94,0
35.00,55.43,0
35.00,53.66,0
40.00,51.73,0
33.00,49.79,0
41.00,47.88,0
43.00,46.15,0
53.00,44.79,0
53.00,43.95,0
46.00,43.56,0
58.00,43.50,0
50.00,43.76,0
61.00,44.33,0
60.00,45.21,0
65.00,46.42,0
60.00,47.87,0
80.00,49.58,0
55.00,51.52,0
61.00,53.36,0
58.00,54.94,0
95.00,56.57,0
61.00,58.49,0
56.00,60.27,0
54.00,61.52,0
49.00,62.19,0
48.00,62.29,0
55.00,61.97,0
48.00,61.37,0
89.00,60.88,0
53.00,60.79,0
37.00,60.64,0
38.00,59.88,0
35.00,58.55,0
39.00,56.83,0
36.00,54.87,0
39.00,52.81,0
54.00,50.88,0
47.00,49.34,0
49.00,48.16,0
62.00,47.39,0
56.00,47.12,0
64.00,47.33,0
56.00,47.90,0
62.00,48.73,0
47.00,49.62,0
81.00,50.62,0
66.00,51.98,0
68.00,53.61,0
62.00,55.27,0
64.00,56.81,0
56.00,58.14,0
58.00,59.16,0
58.00,59.89,0
48.00,60.29,0
53.00,60.31,0
42.00,59.95,0
51.00,59.25,0
44.00,58.31,0
39.00,57.14,0
36.00,55.68,0
41.00,53.98,0
36.00,52.17,0
34.00,50.29,0
48.00,48.46,0
62.00,47.05,0
50.00,46.26,0
54.00,45.91,0
46.00,45.81,0
52.00,45.86,0
51.00,46.04,0
65.00,46.47,0
48.00,47.14,0
79.00,48.09,0
53.00,49.35,0
66.00,50.76,0
58.00,52.16,0
67.00,53.55,0
63.00,54.95,0
124.00,56.81,0
66.00,59.46,0
67.00,62.18,0
57.00,64.31,0
55.00,65.75,0
53.00,66.49,0
69.00,66.76,0
49.00,66.74,0
50.00,66.30,0
62.00,65.53,0
38.00,64.53,0
36.00,63.07,0
83.00,61.48,0
35.00,60.19,0
39.00,58.81,0
61.00,57.25,0
41.00,55.84,0
41.00,54.44,0
49.00,53.00,0
54.00,51.74,0
47.00,50.76,0
63.00,50.09,0
51.00,49.77,0
68.00,49.81,0
45.00,50.11,0
69.00,50.55,0
60.00,51.22,0
73.00,52.21,0
55.00,53.39,0
64.00,54.56,0
55.00,55.61,0
69.00,56.59,0
58.00,57.53,0
57.00,58.34,0
48.00,58.85,0
56.00,59.02,0
53.00,58.96,0
51.00,58.72,0
36.00,58.18,0
48.00,57.26,0
35.00,56.04,0
36.00,54.54,0
46.00,52.86,0
42.00,51.24,0
36.00,49.69,0
53.00,48.25,0
40.00,47.06,0
50.00,46.12,0
48.00,45.43,0
48.00,45.01,0
59.00,44.88,0
52.00,45.10,0
52.00,45.55,0
