346.00,213.66,1
266.00,222.97,1
73.00,230.52,1
40.00,232.31,1
100.00,228.10,1
194.00,220.89,1
206.00,213.83,1
277.00,208.71,1
36.00,204.49,1
344.00,200.26,1
137.00,197.53,1
200.00,195.69,1
288.00,194.65,1
131.00,194.93,1
36.00,193.53,1
202.00,189.40,1
149.00,184.87,1
61.00,179.96,1
163.00,173.87,1
100.00,167.53,1
147.00,161.38,1
42.00,154.97,1
154.00,148.16,1
60.00,141.48,1
47.00,134.38,1
181.00,127.30,1
106.00,121.97,1
166.00,118.51,1
253.00,117.72,1
132.00,119.84,1
268.00,124.00,1
127.00,129.65,1
71.00,134.56,1
84.00,136.76,1
166.00,137.23,1
104.00,137.35,1
181.00,137.48,1
202.00,138.57,1
81.00,140.33,1
73.00,140.64,1
60.00,138.58,1
108.00,134.92,1
173.00,131.39,1
126.00,129.16,1
56.00,127.17,1
123.00,124.45,1
82.00,121.43,1
52.00,117.92,1
147.00,114.11,1
61.00,110.79,1
95.00,107.62,1
55.00,104.18,1
385.00,103.00,1
180.00,107.04,1
278.00,115.11,1
150.00,124.78,1
87.00,133.49,1
212.00,140.13,1
62.00,145.27,1
282.00,149.48,1
151.00,154.18,1
260.00,159.63,1
324.00,166.72,1
358.00,177.10,1
480.00,191.71,1
146.00,208.61,1
58.00,221.43,1
76.00,226.50,1
62.00,225.10,1
134.00,219.31,1
127.00,211.39,1
58.00,202.07,1
229.00,192.20,1
64.00,183.14,1
136.00,174.28,1
304.00,167.07,1
126.00,163.28,1
186.00,161.14,1
376.00,161.42,1
208.00,165.80,1
98.00,171.00,1
110.00,173.53,1
133.00,173.44,1
98.00,171.52,1
48.00,167.49,1
409.00,163.88,1
329.00,165.63,1
133.00,171.38,1
88.00,175.73,1
321.00,178.44,1
81.00,181.30,1
172.00,182.89,1
106.00,182.45,1
161.00,180.57,1
226.00,178.57,1
101.00,177.05,1
54.00,174.00,1
208.00,169.38,1
152.00,165.40,1
190.00,162.71,1
158.00,160.99,1
237.00,160.51,1
143.00,161.25,1
187.00,162.36,1
96.00,162.89,1
206.00,162.75,1
166.00,162.84,1
234.00,163.91,1
64.00,165.07,1
289.00,165.88,1
46.00,166.69,1
67.00,165.52,1
108.00,161.55,1
84.00,156.21,1
96.00,150.06,1
72.00,143.30,1
57.00,135.86,1
84.00,127.93,1
127.00,120.59,1
577.00,118.64,1
82.00,124.53,1
79.00,131.68,1
97.00,135.53,1
38.00,136.53,1
146.00,135.39,1
101.00,133.61,1
79.00,131.36,1
150.00,128.69,1
192.00,127.14,1
82.00,126.85,1
89.00,126.11,1
92.00,124.27,1
177.00,122.48,1
209.00,122.49,1
132.00,124.45,1
69.00,126.32,1
78.00,126.44,1
73.00,124.81,1
208.00,123.02,1
87.00,122.36,1
47.00,121.35,1
90.00,118.80,1
94.00,115.59,1
73.00,112.23,1
240.00,109.94,1
102.00,110.00,1
159.00,111.39,1
71.00,112.83,1
56.00,113.13,1
154.00,112.40,1
66.00,111.69,1
38.00,110.13,1
158.00,107.78,1
52.00,105.78,1
187.00,104.48,1
151.00,104.81,1
68.00,106.21,1
74.00,106.74,1
161.00,106.72,1
69.00,107.03,1
64.00,106.71,1
375.00,107.69,1
61.00,112.10,1
58.00,116.34,1
47.00,117.54,1
50.00,116.22,1
226.00,114.47,1
100.00,114.33,1
270.00,116.19,1
98.00,119.86,1
107.00,123.42,1
36.00,124.90,1
89.00,124.11,1
64.00,121.70,1
155.00,118.91,1
48.00,116.35,1
102.00,113.47,1
68.00,110.17,1
54.00,106.44,1
183.00,103.05,1
103.00,101.39,1
162.00,101.35,1
94.00,102.28,1
208.00,104.22,1
63.00,106.99,1
235.00,110.27,1
66.00,114.06,1
83.00,116.88,1
99.00,117.90,1
49.00,117.52,1
83.00,115.65,1
96.00,112.96,1
126.00,110.50,1
77.00,108.49,1
94.00,106.47,1
52.00,104.03,1
94.00,101.14,1
177.00,99.06,1
52.00,98.34,1
123.00,97.88,1
66.00,97.30,1
115.00,96.71,1
43.00,95.85,1
158.00,95.01,1
164.00,95.56,1
62.00,97.35,1
116.00,98.84,1
72.00,99.72,1
49.00,99.64,1
107.00,98.58,1
111.00,97.60,1
144.00,97.54,1
110.00,98.48,1
50.00,99.35,1
62.00,98.99,1
145.00,98.07,1
233.00,98.98,1
126.00,102.51,1
56.00,106.27,1
52.00,108.00,1
144.00,108.24,1
39.00,107.98,1
138.00,107.19,1
180.00,107.14,1
67.00,108.23,1
55.00,108.54,1
62.00,107.15,1
41.00,104.37,1
54.00,100.44,1
36.00,95.64,1
39.00,90.18,1
151.00,85.25,1
63.00,82.02,1
64.00,79.68,1
214.00,78.62,1
64.00,79.85,1
220.00,82.81,1
92.00,87.23,1
79.00,91.71,1
85.00,94.84,1
88.00,96.87,1
95.00,98.15,1
180.00,99.67,1
170.00,102.69,1
99.00,106.70,1
117.00,110.23,1
105.00,112.88,1
65.00,114.41,1
57.00,114.18,1
98.00,112.52,1
86.00,110.35,1
79.00,107.94,1
38.00,104.86,1
72.00,100.93,1
68.00,96.67,1
48.00,92.35,1
63.00,87.89,1
104.00,83.89,1
35.00,80.61,1
58.00,77.37,1
61.00,74.10,1
211.00,72.40,1
89.00,73.48,1
50.00,75.50,1
105.00,76.97,1
127.00,78.75,1
96.00,81.26,1
38.00,83.43,1
119.00,84.73,1
93.00,85.96,1
117.00,87.55,1
78.00,89.21,1
58.00,90.25,1
37.00,89.96,1
92.00,88.61,1
62.00,86.99,1
148.00,85.89,1
70.00,85.76,1
89.00,85.95,1
46.00,85.67,1
74.00,84.73,1
132.00,83.91,1
124.00,84.35,1
63.00,85.56,1
84.00,86.41,1
125.00,87.14,1
182.00,89.11,1
148.00,92.95,1
51.00,97.17,1
231.00,101.14,1
67.00,105.62,1
189.00,110.12,1
244.00,115.63,1
50.00,122.01,1
215.00,127.45,1
91.00,132.09,1
194.00,136.13,1
100.00,139.48,1
46.00,141.04,1
181.00,140.63,1
69.00,139.60,1
154.00,138.11,1
127.00,136.57,1
110.00,135.17,1
420.00,135.99,1
86.00,140.69,1
82.00,145.20,1
66.00,146.40,1
87.00,144.93,1
34.00,141.26,1
55.00,135.52,1
75.00,128.48,1
104.00,121.42,1
141.00,115.54,1
171.00,111.87,1
35.00,109.68,1
149.00,107.61,1
113.00,106.16,1
87.00,105.38,1
89.00,104.41,1
127.00,103.46,1
107.00,103.04,1
87.00,102.86,1
143.00,102.82,1
175.00,103.93,1
162.00,106.77,1
94.00,110.31,1
39.00,112.55,1
72.00,112.53,1
109.00,111.21,1
111.00,109.84,1
71.00,108.49,1
37.00,106.26,1
115.00,103.19,1
67.00,100.21,1
84.00,97.38,1
34.00,94.22,1
63.00,90.48,1
114.00,86.91,1
67.00,84.29,1
115.00,82.51,1
40.00,81.22,1
176.00,80.62,1
133.00,81.86,1
86.00,84.46,1
89.00,86.91,1
125.00,89.11,1
156.00,91.93,1
50.00,95.06,1
154.00,97.69,1
58.00,99.89,1
176.00,101.95,1
97.00,104.34,1
77.00,106.40,1
66.00,107.06,1
200.00,107.40,1
64.00,108.49,1
100.00,109.27,1
167.00,109.81,1
128.00,111.24,1
102.00,112.99,1
105.00,114.19,1
61.00,114.41,1
42.00,113.01,1
80.00,110.07,1
53.00,106.30,1
106.00,102.33,1
111.00,99.04,1
55.00,96.43,1
93.00,93.85,1
45.00,91.15,1
114.00,88.53,1
107.00,86.76,1
145.00,86.46,1
72.00,87.27,1
50.00,87.80,1
154.00,88.00,1
149.00,89.44,1
67.00,91.88,1
74.00,93.64,1
127.00,94.71,1
36.00,95.39,1
194.00,96.01,1
125.00,97.85,1
47.00,100.07,1
97.00,101.07,1
136.00,101.60,1
78.00,102.34,1
147.00,103.15,1
75.00,104.04,1
64.00,104.27,1
66.00,103.21,1
38.00,100.92,1
151.00,98.26,1
69.00,96.37,1
188.00,95.69,1
40.00,96.04,1
80.00,96.00,1
72.00,95.04,1
43.00,93.37,1
37.00,90.61,1
62.00,87.00,1
64.00,83.23,1
72.00,79.77,1
159.00,77.54,1
136.00,77.62,1
165.00,80.06,1
102.00,83.98,1
54.00,87.68,1
138.00,90.46,1
41.00,92.64,1
108.00,93.95,1
56.00,94.42,1
85.00,94.17,1
377.00,95.85,1
176.00,102.39,1
106.00,110.88,1
74.00,117.48,1
73.00,121.30,1
96.00,122.79,1
132.00,123.14,1
46.00,122.70,1
69.00,120.71,1
185.00,118.25,1
74.00,116.73,1
109.00,115.36,1
108.00,113.81,1
38.00,111.87,1
58.00,108.68,1
77.00,104.56,1
97.00,100.53,1
37.00,96.69,1
44.00,92.35,1
190.00,88.60,1
149.00,87.55,1
41.00,88.26,1
140.00,88.94,1
264.00,91.37,1
66.00,96.29,1
70.00,100.70,1
55.00,102.88,1
82.00,103.30,1
39.00,102.31,1
50.00,99.90,1
56.00,96.37,1
76.00,92.47,1
117.00,89.13,1
170.00,87.61,1
210.00,89.12,1
40.00,92.52,1
69.00,95.02,1
63.00,95.74,1
57.00,95.20,1
145.00,94.30,1
78.00,94.01,1
100.00,94.00,1
217.00,94.99,1
142.00,98.23,1
48.00,101.99,1
86.00,104.14,1
89.00,104.87,1
58.00,104.62,1
74.00,103.26,1
59.00,100.99,1
48.00,97.91,1
36.00,93.92,1
71.00,89.36,1
38.00,84.72,1
40.00,79.93,1
58.00,75.11,1
297.00,72.73,1
37.00,74.21,1
61.00,76.46,1
35.00,77.22,1
139.00,77.48,1
110.00,78.61,1
117.00,80.82,1
96.00,83.46,1
220.00,87.08,1
163.00,92.72,1
118.00,99.45,1
181.00,106.07,1
186.00,113.10,1
87.00,120.01,1
41.00,124.61,1
77.00,126.00,1
77.00,125.11,1
45.00,122.56,1
89.00,118.70,1
69.00,114.25,1
91.00,109.72,1
164.00,106.07,1
89.00,104.00,1
127.00,102.87,1
46.00,101.82,1
48.00,99.87,1
59.00,96.71,1
136.00,93.61,1
57.00,91.36,1
72.00,89.29,1
189.00,88.00,1
73.00,88.42,1
175.00,90.05,1
51.00,92.24,1
136.00,94.26,1
86.00,96.06,1
46.00,97.18,1
144.00,97.48,1
42.00,97.59,1
43.00,96.68,1
164.00,95.19,1
128.00,95.05,1
203.00,96.98,1
66.00,100.18,1
79.00,102.73,1
176.00,104.57,1
289.00,108.50,1
122.00,115.13,1
109.00,121.69,1
115.00,126.41,1
87.00,129.34,1
89.00,130.40,1
43.00,129.43,1
71.00,126.45,1
46.00,121.90,1
75.00,116.35,1
150.00,111.14,1
81.00,107.29,1
38.00,103.69,1
70.00,99.42,1
80.00,95.02,1
67.00,90.99,1
154.00,87.96,1
139.00,86.99,1
114.00,87.93,1
159.00,90.09,1
63.00,92.85,1
71.00,94.81,1
47.00,95.24,1
103.00,94.63,1
57.00,93.59,1
61.00,92.00,1
98.00,90.04,1
97.00,88.49,1
139.00,87.97,1
99.00,88.58,1
53.00,89.35,1
90.00,89.42,1
87.00,89.16,1
63.00,88.71,1
36.00,87.50,1
81.00,85.47,1
144.00,83.93,1
37.00,83.34,1
40.00,82.27,1
83.00,80.39,1
61.00,78.50,1
55.00,76.62,1
53.00,74.51,1
138.00,72.92,1
36.00,72.31,1
47.00,71.59,1
127.00,70.80,1
38.00,70.65,1
128.00,70.95,1
44.00,71.63,1
70.00,72.14,1
81.00,72.33,1
45.00,72.38,1
220.00,73.25,1
127.00,76.54,1
47.00,80.82,1
69.00,83.80,1
58.00,85.30,1
119.00,86.13,1
69.00,86.93,1
75.00,87.41,1
55.00,87.14,1
57.00,86.05,1
75.00,84.39,1
141.00,83.22,1
136.00,83.67,1
37.00,84.96,1
50.00,85.27,1
66.00,84.38,1
38.00,82.72,1
39.00,80.22,1
140.00,77.79,1
121.00,77.01,1
133.00,78.15,1
64.00,80.15,1
156.00,82.48,1
99.00,85.46,1
41.00,88.16,1
84.00,89.48,1
70.00,89.83,1
97.00,89.77,1
38.00,89.26,1
184.00,88.86,1
122.00,89.99,1
36.00,91.72,1
59.00,92.09,1
36.00,90.88,1
41.00,88.37,1
37.00,84.82,1
54.00,80.71,1
77.00,76.75,1
55.00,73.38,1
92.00,70.70,1
65.00,68.83,1
104.00,67.84,1
77.00,67.73,1
107.00,68.43,1
68.00,69.68,1
60.00,70.82,1
50.00,71.32,1
46.00,71.05,1
85.00,70.36,1
83.00,69.98,1
132.00,70.54,1
124.00,72.55,1
49.00,75.23,1
47.00,77.00,1
65.00,77.52,1
73.00,77.41,1
78.00,77.16,1
223.00,78.17,1
80.00,81.32,1
45.00,84.58,1
148.00,86.88,1
49.00,88.99,1
64.00,90.21,1
82.00,90.30,1
84.00,89.96,1
75.00,89.41,1
203.00,89.66,1
171.00,92.29,1
216.00,97.53,1
156.00,104.56,1
90.00,111.55,1
136.00,117.07,1
102.00,121.22,1
98.00,124.00,1
94.00,125.25,1
161.00,125.75,1
42.00,125.76,1
163.00,124.97,1
62.00,123.80,1
196.00,122.80,1
49.00,122.14,1
127.00,121.08,1
49.00,119.17,1
45.00,116.02,1
161.00,112.25,1
39.00,109.04,1
155.00,106.24,1
40.00,103.83,1
80.00,101.16,1
201.00,99.10,1
218.00,100.11,1
86.00,103.55,1
207.00,107.69,1
55.00,111.87,1
42.00,114.30,1
41.00,113.84,1
68.00,111.30,1
214.00,108.93,1
41.00,107.97,1
96.00,106.92,1
280.00,106.83,1
112.00,109.58,1
131.00,113.29,1
54.00,115.89,1
111.00,116.93,1
76.00,116.77,1
144.00,116.13,1
70.00,115.40,1
67.00,113.93,1
107.00,111.60,1
123.00,109.49,1
229.00,109.08,1
74.00,110.62,1
48.00,111.64,1
261.00,112.29,1
49.00,114.19,1
110.00,115.74,1
38.00,115.63,1
48.00,113.66,1
46.00,109.87,1
100.00,105.34,1
88.00,101.17,1
39.00,97.26,1
194.00,94.05,1
100.00,92.85,1
42.00,92.48,1
118.00,91.63,1
215.00,92.04,1
66.00,94.37,1
57.00,96.36,1
72.00,96.77,1
218.00,97.34,1
72.00,99.34,1
90.00,101.31,1
129.00,102.61,1
48.00,103.47,1
40.00,102.88,1
200.00,101.74,1
167.00,102.53,1
153.00,105.46,1
128.00,109.17,1
148.00,112.99,1
48.00,116.05,1
162.00,117.90,1
45.00,118.85,1
38.00,118.03,1
87.00,115.23,1
42.00,111.39,1
376.00,109.32,1
113.00,111.67,1
73.00,115.34,1
56.00,116.92,1
160.00,117.09,1
87.00,117.18,1
80.00,116.79,1
78.00,115.31,1
187.00,113.86,1
128.00,113.80,1
61.00,114.15,1
68.00,113.26,1
116.00,111.42,1
223.00,110.66,1
127.00,112.15,1
85.00,114.22,1
95.00,115.26,1
44.00,114.86,1
162.00,113.60,1
244.00,113.95,1
169.00,117.21,1
398.00,123.92,1
182.00,134.41,1
298.00,146.71,1
84.00,158.33,1
71.00,166.37,1
37.00,169.13,1
230.00,168.70,1
70.00,167.48,1
119.00,165.05,1
62.00,160.78,1
52.00,154.64,1
60.00,146.73,1
393.00,140.55,1
133.00,139.34,1
90.00,140.03,1
91.00,139.23,1
197.00,137.89,1
215.00,138.11,1
46.00,139.29,1
134.00,139.23,1
318.00,139.81,1
104.00,142.89,1
95.00,145.64,1
303.00,147.85,1
78.00,151.10,1
79.00,153.01,1
149.00,152.57,1
223.00,152.15,1
108.00,152.62,1
105.00,152.43,1
58.00,150.33,1
59.00,146.06,1
90.00,140.20,1
154.00,134.34,1
130.00,129.81,1
67.00,126.05,1
246.00,123.25,1
161.00,123.01,1
120.00,124.46,1
137.00,125.89,1
143.00,127.26,1
126.00,128.63,1
98.00,129.49,1
69.00,129.08,1
207.00,128.16,1
177.00,128.71,1
60.00,130.00,1
112.00,130.06,1
217.00,129.95,1
155.00,131.35,1
71.00,133.02,1
104.00,133.20,1
349.00,134.14,1
74.00,137.66,1
171.00,141.31,1
108.00,143.73,1
302.00,146.52,1
350.00,152.55,1
39.00,160.73,1
160.00,166.50,1
317.00,170.97,1
183.00,176.79,1
105.00,181.88,1
108.00,183.88,1
167.00,183.34,1
221.00,182.35,1
274.00,182.88,1
194.00,185.20,1
80.00,186.97,1
190.00,186.63,1
362.00,187.00,1
115.00,189.59,1
303.00,192.71,1
294.00,197.09,1
134.00,202.37,1
158.00,205.63,1
50.00,205.45,1
453.00,204.40,1
50.00,205.19,1
50.00,203.99,1
180.00,199.05,1
68.00,192.62,1
174.00,185.42,1
60.00,177.75,1
67.00,169.02,1
50.00,158.81,1
55.00,147.63,1
299.00,138.04,1
210.00,133.37,1
82.00,132.04,1
45.00,130.12,1
123.00,126.78,1
165.00,123.81,1
76.00,121.84,1
39.00,119.24,1
68.00,115.16,1
189.00,111.25,1
280.00,110.61,1
45.00,113.02,1
191.00,115.76,1
40.00,117.87,1
96.00,118.61,1
309.00,119.72,1
61.00,123.04,1
181.00,126.57,1
432.00,132.16,1
115.00,141.68,1
167.00,151.09,1
251.00,159.03,1
85.00,166.04,1
77.00,169.95,1
169.00,170.65,1
97.00,169.77,1
51.00,166.86,1
87.00,161.48,1
365.00,156.93,1
36.00,155.36,1
170.00,154.05,1
206.00,152.77,1
119.00,152.55,1
572.00,155.73,1
70.00,164.06,1
222.00,172.71,1
72.00,178.40,1
139.00,180.99,1
55.00,180.28,1
431.00,179.40,1
222.00,182.23,1
387.00,188.85,1
52.00,196.31,1
165.00,200.90,1
42.00,201.22,1
314.00,199.44,1
56.00,197.50,1
190.00,194.57,1
306.00,192.05,1
219.00,192.22,1
252.00,194.26,1
56.00,195.82,1
74.00,194.17,1
80.00,188.85,1
43.00,180.80,1
298.00,172.54,1
49.00,166.26,1
110.00,160.16,1
46.00,152.81,1
86.00,144.52,1
199.00,136.88,1
42.00,130.91,1
91.00,125.12,1
71.00,119.01,1
179.00,113.84,1
188.00,111.30,1
53.00,110.72,1
85.00,109.75,1
49.00,107.62,1
139.00,105.10,1
62.00,102.92,1
135.00,101.16,1
97.00,100.02,1
140.00,99.73,1
59.00,99.83,1
73.00,99.33,1
203.00,99.04,1
70.00,100.10,1
872.00,107.59,1
325.00,127.44,1
191.00,152.50,1
224.00,174.20,1
365.00,193.23,1
376.00,212.31,1
86.00,229.75,1
54.00,240.40,1
61.00,242.61,1
116.00,238.59,1
140.00,231.22,1
296.00,223.70,1
75.00,217.26,1
326.00,211.56,1
99.00,207.07,1
183.00,202.64,1
425.00,199.96,1
137.00,200.99,1
44.00,201.26,1
97.00,197.41,1
38.00,190.20,1
68.00,180.40,1
151.00,169.65,1
283.00,161.27,1
127.00,156.58,1
146.00,153.50,1
46.00,149.92,1
180.00,145.69,1
100.00,141.84,1
74.00,137.98,1
53.00,132.96,1
49.00,126.60,1
80.00,119.48,1
43.00,112.19,1
37.00,104.60,1
68.00,96.90,1
141.00,90.45,1
106.00,86.33,1
44.00,83.64,1
139.00,81.58,1
289.00,82.39,1
111.00,87.13,1
150.00,93.33,1
314.00,100.97,1
43.00,110.25,1
187.00,118.51,1
126.00,125.35,1
97.00,130.83,1
131.00,134.38,1
58.00,136.06,1
160.00,136.19,1
169.00,136.31,1
46.00,136.39,1
36.00,134.39,1
102.00,130.23,1
72.00,125.31,1
116.00,120.42,1
73.00,115.84,1
54.00,111.12,1
394.00,108.63,1
158.00,111.47,1
130.00,116.92,1
82.00,121.32,1
219.00,124.90,1
62.00,128.30,1
93.00,130.24,1
78.00,130.09,1
40.00,128.03,1
88.00,124.24,1
240.00,121.03,1
41.00,119.65,1
227.00,119.19,1
40.00,119.33,1
135.00,119.14,1
74.00,118.22,1
83.00,116.63,1
119.00,114.53,1
127.00,112.85,1
127.00,111.98,1
78.00,111.41,1
69.00,110.19,1
202.00,109.08,1
431.00,112.15,1
104.00,120.49,1
53.00,128.57,1
51.00,132.56,1
52.00,132.88,1
99.00,130.79,1
63.00,127.43,1
167.00,123.91,1
51.00,120.84,1
298.00,119.20,1
177.00,120.83,1
73.00,124.12,1
102.00,126.02,1
279.00,127.90,1
69.00,131.14,1
154.00,133.99,1
63.00,135.35,1
84.00,134.90,1
77.00,132.62,1
228.00,130.37,1
67.00,129.31,1
96.00,128.01,1
36.00,125.21,1
94.00,121.09,1
58.00,116.28,1
53.00,110.94,1
135.00,105.67,1
82.00,101.52,1
84.00,98.18,1
68.00,95.02,1
102.00,92.13,1
98.00,89.95,1
86.00,88.51,1
141.00,87.88,1
39.00,87.87,1
135.00,87.88,1
98.00,88.35,1
88.00,89.26,1
64.00,89.79,1
54.00,89.45,1
61.00,88.15,1
115.00,86.65,1
278.00,87.36,1
103.00,91.42,1
51.00,95.92,1
104.00,98.72,1
72.00,100.31,1
43.00,100.58,1
213.00,100.53,1
106.00,101.92,1
196.00,104.78,1
122.00,108.61,1
58.00,112.04,1
44.00,113.25,1
113.00,112.56,1
135.00,111.66,1
64.00,110.98,1
56.00,109.42,1
130.00,107.14,1
79.00,105.12,1
93.00,103.27,1
156.00,101.93,1
138.00,102.04,1
67.00,102.89,1
284.00,104.74,1
42.00,108.29,1
54.00,110.89,1
96.00,111.18,1
57.00,110.23,1
53.00,108.03,1
42.00,104.45,1
103.00,100.26,1
41.00,96.15,1
67.00,91.93,1
53.00,87.57,1
178.00,84.26,1
205.00,84.06,1
74.00,86.61,1
58.00,89.09,1
53.00,90.02,1
41.00,89.43,1
36.00,87.43,1
136.00,85.07,1
107.00,83.91,1
37.00,83.46,1
58.00,82.32,1
80.00,80.66,1
98.00,79.34,1
299.00,80.47,1
88.00,85.18,1
70.00,90.46,1
85.00,94.06,1
36.00,95.95,1
196.00,97.12,1
255.00,100.47,1
52.00,105.99,1
108.00,110.54,1
127.00,113.60,1
132.00,116.26,1
233.00,119.59,1
54.00,123.56,1
137.00,126.44,1
85.00,127.86,1
112.00,128.17,1
109.00,127.62,1
163.00,127.06,1
158.00,127.33,1
131.00,128.38,1
186.00,129.94,1
39.00,131.31,1
168.00,131.57,1
102.00,131.36,1
68.00,130.48,1
50.00,127.87,1
38.00,123.32,1
50.00,117.25,1
56.00,110.34,1
59.00,103.26,1
46.00,96.28,1
70.00,89.60,1
92.00,83.86,1
42.00,79.18,1
62.00,74.97,1
60.00,71.15,1
46.00,67.79,1
116.00,65.21,1
36.00,63.70,1
59.00,62.48,1
55.00,61.22,1
151.00,60.89,1
118.00,62.54,1
53.00,65.36,1
37.00,67.49,1
58.00,68.41,1
81.00,68.78,1
86.00,69.32,1
67.00,70.08,1
156.00,71.46,1
78.00,73.94,1
68.00,76.53,1
67.00,78.29,1
66.00,79.24,1
67.00,79.54,1
156.00,80.08,1
37.00,81.30,1
37.00,81.74,1
127.00,81.33,1
116.00,81.71,1
47.00,82.66,1
203.00,84.07,1
48.00,86.52,1
67.00,88.55,1
50.00,89.07,1
35.00,88.17,1
44.00,85.91,1
48.00,82.75,1
78.00,79.41,1
60.00,76.43,1
113.00,74.21,1
49.00,72.84,1
78.00,71.79,1
51.00,70.72,1
48.00,69.46,1
35.00,67.70,1
96.00,65.90,1
40.00,64.56,1
63.00,63.38,1
96.00,62.55,1
116.00,62.92,1
40.00,64.17,1
63.00,65.14,1
66.00,65.64,1
42.00,65.80,1
42.00,65.33,1
37.00,64.15,1
116.00,63.04,1
119.00,63.34,1
49.00,64.82,1
39.00,65.92,1
62.00,66.14,1
77.00,66.09,1
79.00,66.32,1
134.00,67.35,1
62.00,69.31,1
50.00,71.05,1
60.00,71.85,1
143.00,72.68,1
128.00,74.83,1
82.00,77.99,1
110.00,81.13,1
82.00,84.01,1
62.00,86.20,1
83.00,87.38,1
60.00,87.78,1
92.00,87.61,1
129.00,87.67,1
80.00,88.38,1
64.00,88.91,1
39.00,88.40,1
165.00,87.63,1
68.00,87.76,1
73.00,88.06,1
37.00,87.44,1
64.00,85.81,1
93.00,83.87,1
87.00,82.40,1
100.00,81.60,1
67.00,81.23,1
180.00,81.68,1
114.00,83.79,1
62.00,86.50,1
34.00,87.94,1
63.00,87.71,1
60.00,86.44,1
37.00,84.41,1
115.00,82.14,1
122.00,80.93,1
98.00,81.12,1
40.00,81.55,1
40.00,80.96,1
42.00,79.16,1
93.00,76.96,1
110.00,75.55,1
42.00,74.92,1
50.00,73.97,1
46.00,72.35,1
49.00,70.30,1
86.00,68.31,1
47.00,66.76,1
56.00,65.33,1
57.00,63.87,1
102.00,62.89,1
61.00,62.74,1
52.00,62.84,1
124.00,63.23,1
106.00,64.79,1
44.00,66.97,1
86.00,68.73,1
112.00,70.50,1
108.00,72.98,1
39.00,75.49,1
78.00,77.08,1
149.00,78.59,1
104.00,81.13,1
58.00,83.82,1
37.00,85.20,1
44.00,84.86,1
131.00,83.91,1
123.00,83.97,1
42.00,84.72,1
41.00,84.53,1
42.00,82.96,1
364.00,83.08,1
121.00,87.84,1
88.00,94.31,1
52.00,98.96,1
56.00,101.28,1
120.00,102.03,1
58.00,102.13,1
41.00,101.12,1
36.00,98.45,1
70.00,94.67,1
63.00,90.64,1
123.00,87.22,1
72.00,84.90,1
54.00,82.98,1
66.00,80.81,1
38.00,78.33,1
54.00,75.47,1
40.00,72.32,1
80.00,69.31,1
72.00,66.98,1
61.00,65.36,1
108.00,64.46,1
119.00,64.94,1
55.00,66.50,1
182.00,68.88,1
72.00,72.49,1
67.00,76.09,1
131.00,79.10,1
131.00,82.58,1
156.00,87.06,1
55.00,91.71,1
44.00,94.76,1
56.00,95.55,1
216.00,96.07,1
166.00,98.72,1
65.00,102.56,1
35.00,104.82,1
51.00,104.60,1
43.00,102.43,1
49.00,98.91,1
41.00,94.44,1
109.00,89.90,1
45.00,85.99,1
33.00,82.09,1
127.00,78.37,1
122.00,76.34,1
62.00,75.89,1
56.00,75.54,1
46.00,74.58,1
101.00,73.45,1
46.00,72.59,1
136.00,72.26,1
43.00,72.61,1
37.00,72.61,1
38.00,71.49,1
106.00,70.08,1
73.00,69.35,1
65.00,69.13,1
102.00,69.20,1
41.00,69.53,1
62.00,69.51,1
252.00,70.64,1
137.00,75.00,1
62.00,80.67,1
90.00,85.22,1
36.00,88.13,1
202.00,90.44,1
59.00,93.34,1
70.00,95.68,1
71.00,96.51,1
93.00,96.46,1
182.00,96.87,1
125.00,98.81,1
108.00,101.50,1
95.00,103.78,1
172.00,105.97,1
64.00,108.29,1
92.00,109.70,1
51.00,109.60,1
48.00,107.90,1
47.00,104.63,1
118.00,100.82,1
50.00,97.35,1
164.00,94.66,1
160.00,93.92,1
68.00,94.82,1
67.00,95.37,1
73.00,94.91,1
36.00,93.48,1
129.00,91.56,1
48.00,89.90,1
67.00,88.08,1
41.00,85.63,1
101.00,82.99,1
85.00,80.96,1
48.00,79.37,1
37.00,77.33,1
51.00,74.66,1
140.00,72.46,1
284.00,73.54,1
50.00,78.22,1
96.00,83.15,1
82.00,86.82,1
54.00,89.33,1
46.00,90.25,1
102.00,89.99,1
112.00,89.81,1
65.00,89.94,1
79.00,89.72,1
120.00,89.42,1
47.00,89.26,1
50.00,88.36,1
75.00,86.58,1
53.00,84.45,1
60.00,82.03,1
98.00,79.72,1
83.00,78.14,1
36.00,76.83,1
47.00,74.96,1
120.00,73.13,1
80.00,72.34,1
42.00,72.02,1
42.00,71.09,1
52.00,69.51,1
45.00,67.59,1
42.00,65.42,1
50.00,63.09,1
56.00,60.87,1
60.00,59.00,1
49.00,57.49,1
40.00,56.08,1
68.00,54.79,1
84.00,54.14,1
140.00,54.96,1
127.00,57.81,1
89.00,62.06,1
46.00,66.14,1
82.00,69.22,1
66.00,71.56,1
38.00,73.04,1
110.00,73.83,1
64.00,74.66,1
52.00,75.21,1
36.00,74.82,1
46.00,73.46,1
80.00,71.71,1
81.00,70.39,1
90.00,69.81,1
90.00,69.96,1
62.00,70.52,1
64.00,70.90,1
77.00,71.06,1
69.00,71.20,1
154.00,72.00,1
123.00,74.36,1
96.00,77.81,1
239.00,82.45,1
61.00,88.51,1
88.00,93.90,1
112.00,97.78,1
95.00,100.85,1
77.00,102.98,1
37.00,103.54,1
43.00,102.14,1
102.00,99.54,1
126.00,97.36,1
95.00,96.20,1
102.00,95.59,1
119.00,95.43,1
164.00,96.32,1
49.00,97.92,1
70.00,98.65,1
73.00,98.10,1
105.00,97.10,1
46.00,95.84,1
101.00,94.18,1
47.00,92.24,1
62.00,89.83,1
37.00,86.74,1
48.00,83.05,1
134.00,79.70,1
39.00,77.46,1
61.00,75.46,1
72.00,73.36,1
174.00,72.49,1
92.00,73.65,1
49.00,75.46,1
57.00,76.37,1
52.00,76.31,1
37.00,75.37,1
80.00,73.86,1
49.00,72.30,1
104.00,71.06,1
86.00,70.60,1
77.00,70.83,1
52.00,71.08,1
144.00,71.61,1
104.00,73.32,1
81.00,75.78,1
67.00,77.89,1
51.00,79.11,1
46.00,79.20,1
177.00,79.29,1
92.00,80.82,1
82.00,82.97,1
129.00,85.05,1
170.00,88.04,1
64.00,91.82,1
43.00,94.47,1
148.00,95.81,1
62.00,96.98,1
81.00,97.58,1
63.00,97.18,1
67.00,95.92,1
38.00,93.73,1
88.00,90.88,1
92.00,88.23,1
95.00,86.34,1
104.00,85.23,1
84.00,84.78,1
91.00,84.63,1
35.00,84.20,1
73.00,83.03,1
87.00,81.61,1
45.00,80.24,1
87.00,78.74,1
47.00,77.18,1
45.00,75.32,1
71.00,73.13,1
105.00,71.46,1
52.00,70.59,1
60.00,69.82,1
42.00,68.70,1
127.00,67.81,1
51.00,67.76,1
77.00,68.02,1
86.00,68.37,1
112.00,69.36,1
92.00,71.15,1
95.00,73.40,1
54.00,75.46,1
65.00,76.75,1
139.00,77.86,1
46.00,79.34,1
99.00,80.57,1
37.00,81.17,1
77.00,81.00,1
112.00,80.70,1
58.00,80.77,1
40.00,80.36,1
42.00,78.88,1
62.00,76.68,1
65.00,74.37,1
54.00,72.19,1
99.00,70.40,1
65.00,69.33,1
36.00,68.42,1
45.00,66.96,1
42.00,65.02,1
77.00,63.10,1
196.00,62.80,1
67.00,64.94,1
137.00,68.29,1
58.00,71.88,1
54.00,74.77,1
122.00,76.87,1
70.00,78.96,1
166.00,81.48,1
58.00,84.51,1
141.00,87.51,1
148.00,90.94,1
82.00,94.84,1
92.00,98.00,1
63.00,99.88,1
112.00,100.73,1
71.00,101.00,1
73.00,100.56,1
63.00,99.22,1
130.00,97.64,1
50.00,96.29,1
223.00,95.82,1
129.00,97.48,1
42.00,99.84,1
59.00,100.58,1
34.00,99.39,1
75.00,96.86,1
58.00,93.74,1
318.00,92.48,1
98.00,95.05,1
90.00,98.87,1
91.00,101.54,1
60.00,102.96,1
47.00,102.75,1
34.00,100.74,1
113.00,97.76,1
124.00,95.43,1
104.00,94.35,1
36.00,93.45,1
69.00,91.69,1
112.00,89.69,1
130.00,88.70,1
51.00,88.51,1
76.00,87.99,1
133.00,87.45,1
100.00,87.82,1
99.00,88.77,1
87.00,89.74,1
62.00,90.27,1
69.00,90.01,1
44.00,88.84,1
135.00,87.43,1
54.00,86.51,1
141.00,86.12,1
61.00,86.27,1
39.00,86.02,1
83.00,84.83,1
42.00,83.16,1
148.00,81.75,1
47.00,81.16,1
64.00,80.56,1
43.00,79.23,1
152.00,78.09,1
130.00,78.59,1
96.00,80.59,1
54.00,82.55,1
64.00,83.53,1
168.00,84.40,1
42.00,85.93,1
242.00,88.33,1
72.00,92.20,1
112.00,96.21,1
126.00,99.56,1
71.00,102.41,1
51.00,103.81,1
126.00,103.91,1
117.00,104.01,1
68.00,104.19,1
48.00,103.38,1
39.00,101.00,1
42.00,97.23,1
49.00,92.57,1
63.00,87.64,1
43.00,82.80,1
43.00,77.97,1
58.00,73.26,1
55.00,69.03,1
138.00,66.06,1
130.00,65.44,1
133.00,67.21,1
45.00,69.97,1
110.00,72.51,1
165.00,75.60,1
97.00,79.90,1
136.00,84.61,1
85.00,89.16,1
91.00,92.94,1
48.00,95.34,1
48.00,95.95,1
65.00,94.96,1
62.00,93.04,1
54.00,90.52,1
57.00,87.48,1
40.00,83.99,1
81.00,80.36,1
94.00,77.39,1
52.00,75.23,1
78.00,73.39,1
69.00,71.85,1
68.00,70.66,1
59.00,69.60,1
118.00,69.00,1
63.00,69.25,1
61.00,69.67,1
108.00,70.10,1
63.00,70.93,1
158.00,72.46,1
66.00,74.92,1
71.00,77.30,1
39.00,78.58,1
69.00,78.75,1
43.00,78.09,1
52.00,76.71,1
86.00,75.05,1
83.00,73.85,1
92.00,73.35,1
72.00,73.34,1
91.00,73.62,1
57.00,73.97,1
89.00,74.22,1
92.00,74.66,1
170.00,76.18,1
49.00,78.79,1
77.00,81.03,1
99.00,82.54,1
51.00,83.65,1
41.00,83.74,1
54.00,82.57,1
36.00,80.47,1
81.00,77.92,1
54.00,75.48,1
98.00,73.51,1
78.00,72.29,1
109.00,71.99,1
88.00,72.55,1
59.00,73.42,1
104.00,74.22,1
66.00,75.13,1
40.00,75.61,1
45.00,75.05,1
219.00,75.03,1
61.00,77.03,1
60.00,79.31,1
60.00,80.41,1
51.00,80.50,1
49.00,79.65,1
137.00,78.73,1
50.00,78.51,1
136.00,78.83,1
55.00,79.60,1
76.00,80.20,1
172.00,81.15,1
95.00,83.48,1
74.00,86.09,1
62.00,87.76,1
73.00,88.34,1
64.00,88.11,1
40.00,87.00,1
72.00,85.06,1
62.00,82.81,1
103.00,80.84,1
111.00,79.81,1
72.00,79.67,1
67.00,79.59,1
58.00,79.07,1
174.00,79.02,1
93.00,80.50,1
53.00,82.38,1
48.00,83.13,1
47.00,82.55,1
68.00,81.12,1
68.00,79.42,1
92.00,77.95,1
74.00,76.95,1
46.00,76.02,1
88.00,74.89,1
38.00,73.70,1
45.00,72.09,1
58.00,70.02,1
118.00,68.44,1
64.00,67.94,1
92.00,68.11,1
44.00,68.40,1
63.00,68.37,1
148.00,68.72,1
87.00,70.43,1
88.00,72.79,1
99.00,75.17,1
103.00,77.70,1
39.00,79.91,1
109.00,81.34,1
68.00,82.42,1
39.00,82.86,1
150.00,82.91,1
132.00,84.10,1
54.00,86.11,1
98.00,87.59,1
56.00,88.34,1
40.00,88.05,1
82.00,86.73,1
61.00,85.05,1
57.00,83.12,1
38.00,80.65,1
46.00,77.59,1
79.00,74.43,1
109.00,72.15,1
51.00,70.92,1
40.00,69.71,1
105.00,68.44,1
54.00,67.73,1
81.00,67.38,1
190.00,68.26,1
91.00,71.27,1
89.00,75.02,1
66.00,78.17,1
61.00,80.29,1
85.00,81.50,1
77.00,82.26,1
44.00,82.46,1
57.00,81.71,1
99.00,80.56,1
127.00,80.18,1
134.00,81.28,1
44.00,83.06,1
70.00,84.09,1
61.00,84.11,1
81.00,83.60,1
48.00,82.68,1
36.00,81.01,1
60.00,78.54,1
96.00,76.14,1
99.00,74.71,1
56.00,74.05,1
36.00,73.13,1
100.00,71.90,1
56.00,71.00,1
54.00,70.16,1
50.00,68.98,1
48.00,67.46,1
91.00,66.04,1
78.00,65.33,1
91.00,65.42,1
145.00,66.70,1
60.00,69.12,1
59.00,71.35,1
82.00,72.82,1
60.00,73.88,1
78.00,74.55,1
46.00,74.76,1
61.00,74.35,1
48.00,73.36,1
64.00,72.01,1
59.00,70.55,1
42.00,68.95,1
85.00,67.35,1
61.00,66.16,1
51.00,65.20,1
120.00,64.65,1
37.00,64.82,1
173.00,65.85,1
75.00,68.23,1
67.00,71.01,1
91.00,73.25,1
108.00,75.48,1
92.00,77.97,1
68.00,80.27,1
45.00,81.61,1
75.00,81.86,1
78.00,81.59,1
87.00,81.32,1
42.00,80.86,1
124.00,80.27,1
53.00,80.01,1
55.00,79.51,1
72.00,78.46,1
109.00,77.61,1
120.00,77.79,1
74.00,78.85,1
42.00,79.61,1
75.00,79.48,1
63.00,78.86,1
95.00,78.23,1
65.00,77.79,1
51.00,77.17,1
60.00,76.02,1
138.00,75.19,1
72.00,75.45,1
85.00,76.18,1
132.00,77.32,1
39.00,78.83,1
122.00,80.12,1
66.00,81.33,1
48.00,82.06,1
40.00,81.56,1
62.00,80.06,1
80.00,78.28,1
37.00,76.48,1
54.00,74.30,1
37.00,71.68,1
79.00,69.03,1
90.00,67.09,1
55.00,66.01,1
211.00,66.39,1
91.00,69.20,1
84.00,73.01,1
76.00,76.26,1
35.00,78.45,1
101.00,79.56,1
59.00,80.22,1
90.00,80.62,1
99.00,81.05,1
50.00,81.50,1
59.00,81.27,1
244.00,81.81,1
65.00,84.62,1
48.00,87.45,1
39.00,88.34,1
97.00,87.93,1
88.00,87.36,1
39.00,86.62,1
40.00,84.88,1
162.00,83.08,1
79.00,82.63,1
38.00,82.52,1
121.00,81.99,1
80.00,81.86,1
54.00,81.81,1
55.00,81.08,1
69.00,79.76,1
71.00,78.31,1
64.00,76.89,1
130.00,75.98,1
115.00,76.42,1
56.00,77.67,1
50.00,78.33,1
94.00,78.32,1
102.00,78.54,1
83.00,79.25,1
49.00,79.80,1
60.00,79.56,1
51.00,78.56,1
80.00,77.21,1
82.00,76.05,1
39.00,75.00,1
59.00,73.52,1
70.00,71.84,1
226.00,71.71,1
55.00,74.02,1
44.00,76.47,1
71.00,77.56,1
92.00,78.13,1
159.00,79.40,1
103.00,81.98,1
50.00,84.66,1
88.00,86.30,1
94.00,87.34,1
78.00,88.17,1
90.00,88.70,1
80.00,88.96,1
111.00,89.20,1
63.00,89.45,1
82.00,89.32,1
70.00,88.73,1
50.00,87.59,1
120.00,86.22,1
45.00,85.11,1
80.00,83.84,1
96.00,82.59,1
127.00,82.21,1
77.00,82.73,1
60.00,83.21,1
42.00,82.79,1
48.00,81.32,1
98.00,79.46,1
60.00,77.93,1
44.00,76.35,1
35.00,74.13,1
39.00,71.26,1
74.00,68.27,1
54.00,65.73,1
72.00,63.73,1
54.00,62.18,1
40.00,60.77,1
84.00,59.49,1
52.00,58.70,1
46.00,58.09,1
59.00,57.38,1
87.00,57.02,1
57.00,57.26,1
128.00,58.28,1
89.00,60.46,1
36.00,62.94,1
54.00,64.52,1
43.00,65.14,1
57.00,65.08,1
251.00,66.26,1
81.00,70.28,1
54.00,74.88,1
41.00,77.81,1
57.00,79.05,1
80.00,79.31,1
68.00,79.24,1
35.00,78.63,1
64.00,77.24,1
72.00,75.58,1
92.00,74.29,1
68.00,73.53,1
213.00,74.18,1
102.00,77.18,1
56.00,80.83,1
58.00,83.17,1
123.00,84.63,1
73.00,86.06,1
40.00,86.85,1
56.00,86.29,1
125.00,85.30,1
137.00,85.39,1
161.00,87.29,1
54.00,90.10,1
142.00,92.65,1
105.00,95.19,1
55.00,97.34,1
52.00,97.97,1
111.00,97.42,1
84.00,96.75,1
37.00,95.64,1
49.00,93.35,1
65.00,90.16,1
46.00,86.62,1
136.00,83.48,1
68.00,81.53,1
128.00,80.66,1
34.00,80.30,1
112.00,79.91,1
148.00,80.33,1
125.00,82.41,1
79.00,85.21,1
56.00,87.31,1
38.00,87.91,1
53.00,86.99,1
66.00,85.14,1
168.00,83.83,1
115.00,84.34,1
47.00,85.62,1
88.00,86.21,1
306.00,88.18,1
129.00,93.63,1
92.00,100.12,1
58.00,104.80,1
57.00,107.06,1
91.00,107.41,1
38.00,106.41,1
127.00,104.55,1
52.00,102.53,1
41.00,99.85,1
54.00,96.06,1
57.00,91.70,1
70.00,87.32,1
127.00,83.77,1
40.00,81.33,1
58.00,78.96,1
62.00,76.36,1
67.00,73.92,1
105.00,72.11,1
60.00,71.14,1
78.00,70.55,1
65.00,70.10,1
53.00,69.60,1
59.00,68.81,1
59.00,67.84,1
55.00,66.78,1
136.00,66.29,1
116.00,67.42,1
41.00,69.43,1
128.00,71.37,1
39.00,73.26,1
86.00,74.69,1
57.00,75.51,1
48.00,75.68,1
158.00,75.88,1
76.00,77.17,1
123.00,79.19,1
75.00,81.39,1
52.00,83.06,1
51.00,83.46,1
40.00,82.61,1
134.00,81.42,1
53.00,80.81,1
114.00,80.61,1
46.00,80.49,1
213.00,81.21,1
112.00,83.91,1
100.00,87.63,1
71.00,90.73,1
60.00,92.58,1
56.00,92.97,1
66.00,92.15,1
88.00,90.76,1
52.00,89.14,1
57.00,87.02,1
40.00,84.23,1
103.00,81.30,1
74.00,79.03,1
40.00,77.10,1
36.00,74.66,1
65.00,71.80,1
126.00,69.66,1
35.00,68.64,1
66.00,67.76,1
53.00,66.67,1
70.00,65.64,1
86.00,64.99,1
207.00,66.07,1
80.00,69.48,1
55.00,73.27,1
77.00,75.92,1
60.00,77.65,1
74.00,78.64,1
61.00,79.01,1
33.00,78.56,1
57.00,77.14,1
142.00,75.90,1
140.00,76.43,1
39.00,78.13,1
72.00,79.22,1
76.00,79.57,1
52.00,79.49,1
86.00,78.99,1
104.00,78.70,1
54.00,78.77,1
53.00,78.40,1
58.00,77.32,1
85.00,76.05,1
42.00,74.79,1
76.00,73.39,1
102.00,72.34,1
36.00,71.77,1
54.00,70.85,1
40.00,69.32,1
47.00,67.35,1
60.00,65.23,1
37.00,63.15,1
58.00,61.06,1
145.00,59.92,1
118.00,60.91,1
39.00,63.14,1
103.00,65.21,1
129.00,67.73,1
85.00,71.10,1
46.00,74.16,1
121.00,76.50,1
39.00,78.45,1
63.00,79.50,1
45.00,79.40,1
55.00,78.42,1
51.00,76.77,1
43.00,74.62,1
55.00,72.11,1
72.00,69.68,1
39.00,67.49,1
79.00,65.49,1
51.00,63.85,1
184.00,63.52,1
56.00,65.10,1
66.00,67.15,1
89.00,68.77,1
78.00,70.39,1
42.00,71.67,1
64.00,72.14,1
71.00,72.10,1
49.00,71.79,1
78.00,71.23,1
62.00,70.65,1
50.00,69.95,1
62.00,68.96,1
51.00,67.79,1
97.00,66.81,1
172.00,67.32,1
42.00,69.47,1
49.00,71.33,1
44.00,71.89,1
40.00,71.40,1
80.00,70.35,1
131.00,69.96,1
93.00,70.96,1
107.00,72.88,1
78.00,75.11,1
37.00,76.79,1
75.00,77.42,1
86.00,77.59,1
69.00,77.76,1
48.00,77.57,1
84.00,76.92,1
77.00,76.30,1
224.00,77.14,1
84.00,80.26,1
49.00,83.62,1
74.00,85.54,1
138.00,86.93,1
66.00,88.55,1
40.00,89.42,1
111.00,89.23,1
63.00,88.82,1
175.00,88.98,1
95.00,90.37,1
59.00,91.95,1
64.00,92.39,1
62.00,91.71,1
132.00,90.81,1
39.00,90.14,1
65.00,88.92,1
37.00,86.74,1
64.00,83.88,1
51.00,80.72,1
259.00,79.17,1
36.00,80.38,1
94.00,82.15,1
127.00,83.68,1
69.00,85.53,1
152.00,87.55,1
55.00,89.74,1
65.00,91.14,1
38.00,91.04,1
60.00,89.59,1
65.00,87.37,1
56.00,84.82,1
102.00,82.39,1
57.00,80.43,1
96.00,78.87,1
39.00,77.45,1
150.00,76.49,1
58.00,76.52,1
108.00,77.11,1
74.00,77.89,1
38.00,78.33,1
67.00,77.88,1
84.00,77.07,1
52.00,76.27,1
79.00,75.36,1
103.00,74.76,1
76.00,74.81,1
75.00,75.10,1
56.00,75.17,1
34.00,74.56,1
47.00,73.04,1
38.00,70.84,1
55.00,68.30,1
38.00,65.65,1
86.00,63.25,1
100.00,61.91,1
44.00,61.57,1
57.00,61.31,1
156.00,61.67,1
108.00,63.86,1
125.00,67.52,1
62.00,71.54,1
141.00,75.46,1
117.00,79.75,1
114.00,84.42,1
99.00,88.85,1
153.00,93.12,1
53.00,97.07,1
127.00,100.04,1
72.00,102.13,1
37.00,102.87,1
38.00,101.52,1
80.00,98.73,1
38.00,95.31,1
59.00,91.31,1
44.00,86.91,1
37.00,82.21,1
74.00,77.50,1
64.00,73.41,1
66.00,70.10,1
59.00,67.37,1
36.00,64.89,1
46.00,62.32,1
55.00,59.82,1
40.00,57.56,1
134.00,56.17,1
116.00,56.76,1
122.00,59.39,1
35.00,62.70,1
42.00,65.07,1
78.00,66.35,1
105.00,67.63,1
101.00,69.58,1
47.00,71.69,1
78.00,73.17,1
50.00,73.97,1
103.00,74.46,1
64.00,75.01,1
42.00,75.20,1
127.00,75.13,1
100.00,75.89,1
62.00,77.17,1
140.00,78.60,1
52.00,80.36,1
61.00,81.56,1
98.00,82.02,1
184.00,83.32,1
84.00,86.09,1
118.00,89.23,1
36.00,91.61,1
77.00,92.59,1
87.00,92.56,1
63.00,92.07,1
42.00,90.75,1
70.00,88.53,1
37.00,85.73,1
114.00,82.89,1
48.00,80.57,1
42.00,78.23,1
72.00,75.55,1
74.00,73.16,1
46.00,71.12,1
146.00,69.81,1
82.00,69.99,1
74.00,70.99,1
112.00,72.23,1
68.00,73.83,1
64.00,75.17,1
37.00,75.62,1
79.00,75.25,1
37.00,74.40,1
69.00,73.12,1
87.00,71.89,1
36.00,70.88,1
64.00,69.62,1
62.00,68.22,1
41.00,66.79,1
87.00,65.40,1
79.00,64.62,1
98.00,64.73,1
61.00,65.45,1
65.00,66.19,1
77.00,66.78,1
90.00,67.58,1
57.00,68.55,1
59.00,69.19,1
116.00,69.80,1
40.00,70.69,1
122.00,71.66,1
47.00,72.77,1
156.00,74.29,1
145.00,77.15,1
36.00,80.79,1
52.00,83.10,1
37.00,83.56,1
56.00,82.63,1
66.00,80.96,1
42.00,78.92,1
59.00,76.48,1
169.00,74.81,1
36.00,74.67,1
82.00,74.76,1
83.00,74.70,1
90.00,74.97,1
101.00,75.72,1
117.00,77.17,1
66.00,79.03,1
78.00,80.54,1
48.00,81.25,1
41.00,80.87,1
48.00,79.36,1
66.00,77.27,1
43.00,74.96,1
57.00,72.46,1
76.00,70.08,1
91.00,68.45,1
46.00,67.45,1
84.00,66.68,1
77.00,66.29,1
53.00,66.21,1
71.00,66.05,1
58.00,65.84,1
53.00,65.49,1
72.00,65.00,1
49.00,64.52,1
56.00,63.89,1
125.00,63.66,1
89.00,64.66,1
66.00,66.33,1
38.00,67.55,1
112.00,68.34,1
95.00,69.63,1
35.00,71.10,1
124.00,72.25,1
112.00,73.99,1
49.00,76.15,1
39.00,77.33,1
75.00,77.33,1
94.00,77.12,1
114.00,77.52,1
155.00,79.22,1
79.00,82.05,1
58.00,84.56,1
88.00,86.00,1
50.00,86.59,1
60.00,86.23,1
79.00,85.15,1
50.00,83.73,1
65.00,81.90,1
40.00,79.60,1
166.00,77.79,1
36.00,77.22,1
34.00,76.48,1
47.00,74.63,1
75.00,72.44,1
52.00,70.43,1
53.00,68.49,1
38.00,66.37,1
60.00,64.13,1
50.00,62.01,1
144.00,60.88,1
91.00,61.56,1
70.00,63.33,1
36.00,64.79,1
104.00,65.78,1
94.00,67.17,1
42.00,68.75,1
48.00,69.56,1
114.00,69.95,1
64.00,70.74,1
113.00,71.94,1
158.00,74.19,1
55.00,77.45,1
36.00,79.89,1
96.00,80.92,1
56.00,81.38,1
60.00,81.25,1
56.00,80.39,1
88.00,79.22,1
35.00,77.92,1
36.00,75.96,1
58.00,73.31,1
91.00,70.88,1
71.00,69.26,1
173.00,69.11,1
35.00,70.45,1
38.00,71.46,1
67.00,71.33,1
62.00,70.80,1
66.00,70.19,1
57.00,69.47,1
114.00,69.06,1
42.00,69.17,1
120.00,69.60,1
43.00,70.31,1
81.00,70.90,1
40.00,71.03,1
86.00,70.82,1
114.00,71.01,1
79.00,72.06,1
35.00,73.01,1
55.00,73.01,1
112.00,72.72,1
53.00,72.84,1
180.00,73.82,1
77.00,76.17,1
47.00,78.60,1
45.00,79.63,1
50.00,79.33,1
60.00,78.17,1
49.00,76.51,1
75.00,74.65,1
56.00,72.87,1
39.00,70.98,1
51.00,68.71,1
60.00,66.38,1
55.00,64.28,1
86.00,62.67,1
116.00,62.23,1
48.00,62.86,1
61.00,63.52,1
37.00,63.63,1
57.00,63.20,1
103.00,62.88,1
84.00,63.44,1
51.00,64.44,1
101.00,65.44,1
166.00,67.51,1
64.00,70.98,1
74.00,74.31,1
39.00,76.46,1
49.00,77.22,1
64.00,76.89,1
35.00,75.85,1
60.00,74.16,1
43.00,72.05,1
129.00,70.34,1
56.00,69.67,1
94.00,69.62,1
55.00,69.76,1
40.00,69.58,1
138.00,69.39,1
42.00,69.93,1
66.00,70.40,1
43.00,70.23,1
59.00,69.51,1
68.00,68.56,1
66.00,67.73,1
50.00,66.93,1
69.00,66.04,1
76.00,65.37,1
162.00,65.88,1
101.00,68.22,1
42.00,71.11,1
107.00,73.36,1
86.00,75.48,1
76.00,77.52,1
109.00,79.39,1
86.00,81.32,1
38.00,82.73,1
33.00,82.67,1
48.00,81.15,1
78.00,79.02,1
48.00,76.87,1
65.00,74.67,1
71.00,72.59,1
44.00,70.68,1
104.00,69.07,1
144.00,68.86,1
128.00,70.72,1
104.00,73.95,1
66.00,77.29,1
116.00,80.19,1
212.00,83.96,1
43.00,88.90,1
73.00,92.78,1
56.00,94.68,1
51.00,94.93,1
60.00,93.78,1
43.00,91.57,1
164.00,89.42,1
66.00,88.44,1
51.00,87.65,1
81.00,86.20,1
37.00,84.32,1
81.00,82.05,1
74.00,79.87,1
38.00,77.78,1
62.00,75.36,1
60.00,72.88,1
47.00,70.47,1
108.00,68.47,1
48.00,67.26,1
57.00,66.28,1
57.00,65.15,1
96.00,64.35,1
36.00,63.97,1
114.00,63.90,1
57.00,64.39,1
35.00,64.81,1
93.00,64.80,1
73.00,65.08,1
69.00,65.69,1
47.00,66.12,1
38.00,65.91,1
113.00,65.52,1
77.00,65.89,1
67.00,66.76,1
110.00,67.86,1
38.00,69.15,1
45.00,69.74,1
123.00,69.96,1
38.00,70.54,1
72.00,70.89,1
38.00,70.62,1
64.00,69.83,1
71.00,68.87,1
36.00,67.87,1
98.00,66.86,1
47.00,66.18,1
72.00,65.66,1
107.00,65.56,1
40.00,66.02,1
48.00,66.13,1
61.00,65.65,1
44.00,64.89,1
64.00,63.92,1
150.00,63.73,1
73.00,65.12,1
62.00,66.99,1
126.00,68.87,1
40.00,70.94,1
115.00,72.83,1
153.00,75.35,1
81.00,78.94,1
122.00,82.67,1
94.00,86.23,1
100.00,89.48,1
79.00,92.08,1
99.00,93.96,1
52.00,95.00,1
82.00,94.99,1
39.00,93.95,1
34.00,91.64,1
118.00,88.72,1
70.00,86.37,1
131.00,84.95,1
92.00,84.57,1
39.00,84.42,1
55.00,83.37,1
86.00,81.74,1
95.00,80.47,1
80.00,79.78,1
38.00,79.04,1
200.00,78.81,1
71.00,80.22,1
149.00,82.70,1
75.00,85.52,1
45.00,87.68,1
40.00,88.11,1
53.00,86.97,1
38.00,84.74,1
34.00,81.60,1
130.00,78.45,1
126.00,76.95,1
57.00,76.89,1
62.00,76.81,1
56.00,76.16,1
52.00,75.02,1
59.00,73.49,1
182.00,72.80,1
62.00,73.89,1
103.00,75.66,1
71.00,77.31,1
60.00,78.52,1
56.00,78.89,1
63.00,78.49,1
47.00,77.49,1
120.00,76.45,1
40.00,75.84,1
104.00,75.38,1
37.00,74.89,1
41.00,73.86,1
39.00,71.94,1
37.00,69.39,1
156.00,67.39,1
98.00,67.36,1
51.00,68.44,1
61.00,69.16,1
39.00,69.17,1
52.00,68.46,1
86.00,67.56,1
59.00,66.97,1
117.00,66.97,1
59.00,67.67,1
77.00,68.54,1
50.00,69.10,1
39.00,69.03,1
35.00,68.04,1
115.00,66.88,1
98.00,66.80,1
78.00,67.75,1
87.00,69.05,1
35.00,70.13,1
93.00,70.70,1
137.00,71.76,1
89.00,73.96,1
39.00,76.11,1
36.00,76.89,1
158.00,77.16,1
166.00,79.08,1
57.00,82.47,1
54.00,85.08,1
134.00,86.72,1
74.00,88.37,1
116.00,90.00,1
44.00,91.15,1
61.00,91.20,1
37.00,89.89,1
54.00,87.49,1
48.00,84.37,1
101.00,81.28,1
66.00,78.85,1
75.00,76.95,1
55.00,75.20,1
35.00,73.20,1
44.00,70.65,1
58.00,67.88,1
85.00,65.55,1
36.00,63.80,1
46.00,62.03,1
56.00,60.15,1
52.00,58.47,1
41.00,56.93,1
140.00,56.14,1
90.00,57.08,1
47.00,58.95,1
46.00,60.32,1
98.00,61.33,1
63.00,62.59,1
83.00,64.01,1
88.00,65.60,1
65.00,67.33,1
41.00,68.55,1
77.00,69.05,1
39.00,69.08,1
76.00,68.73,1
42.00,68.11,1
46.00,67.09,1
209.00,66.94,1
77.00,69.11,1
44.00,71.84,1
46.00,73.28,1
64.00,73.59,1
161.00,74.17,1
117.00,76.31,1
58.00,79.18,1
111.00,81.58,1
93.00,83.79,1
89.00,85.89,1
65.00,87.42,1
96.00,88.30,1
142.00,89.35,1
76.00,90.97,1
106.00,92.49,1
92.00,93.73,1
199.00,95.62,1
97.00,98.75,1
39.00,101.44,1
49.00,101.98,1
115.00,101.10,1
92.00,100.15,1
42.00,98.94,1
36.00,96.48,1
125.00,93.40,1
56.00,90.79,1
90.00,88.51,1
79.00,86.46,1
76.00,84.71,1
35.00,82.79,1
70.00,80.37,1
46.00,77.70,1
64.00,74.96,1
59.00,72.33,1
56.00,69.91,1
78.00,67.81,1
64.00,66.26,1
38.00,64.91,1
112.00,63.82,1
55.00,63.50,1
45.00,63.37,1
139.00,63.52,1
102.00,65.04,1
76.00,67.52,1
63.00,69.80,1
38.00,71.20,1
202.00,72.73,1
106.00,76.02,1
82.00,80.11,1
112.00,83.74,1
94.00,87.03,1
36.00,89.42,1
40.00,89.99,1
74.00,89.00,1
64.00,87.38,1
36.00,85.23,1
54.00,82.34,1
39.00,78.92,1
138.00,75.95,1
35.00,74.09,1
40.00,72.27,1
59.00,69.94,1
83.00,67.85,1
78.00,66.52,1
75.00,65.91,1
64.00,65.69,1
81.00,65.70,1
140.00,66.56,1
36.00,68.33,1
70.00,69.74,1
119.00,70.94,1
85.00,72.77,1
49.00,74.55,1
34.00,75.22,1
64.00,74.73,1
79.00,73.87,1
112.00,73.53,1
51.00,73.78,1
64.00,73.83,1
125.00,73.94,1
41.00,74.52,1
47.00,74.59,1
54.00,73.74,1
51.00,72.35,1
52.00,70.62,1
65.00,68.78,1
111.00,67.53,1
42.00,67.08,1
36.00,66.42,1
36.00,64.96,1
62.00,63.11,1
57.00,61.40,1
48.00,59.93,1
151.00,59.35,1
122.00,60.85,1
45.00,63.62,1
70.00,65.96,1
110.00,67.99,1
43.00,70.04,1
39.00,71.22,1
86.00,71.46,1
66.00,71.57,1
124.00,72.12,1
62.00,73.25,1
68.00,74.30,1
36.00,74.58,1
36.00,73.75,1
50.00,72.00,1
40.00,69.74,1
35.00,67.06,1
44.00,64.09,1
34.00,61.01,1
68.00,58.14,1
42.00,55.78,1
51.00,53.83,1
56.00,52.22,1
68.00,51.18,1
99.00,51.11,1
123.00,52.57,1
132.00,55.91,1
174.00,61.23,1
73.00,67.82,1
50.00,73.65,1
51.00,77.49,1
48.00,79.50,1
55.00,80.07,1
99.00,79.97,1
81.00,80.01,1
79.00,80.20,1
54.00,80.12,1
38.00,79.27,1
46.00,77.45,1
100.00,75.41,1
80.00,74.06,1
118.00,73.71,1
108.00,74.52,1
37.00,75.74,1
39.00,75.99,1
68.00,75.18,1
41.00,73.85,1
139.00,72.79,1
85.00,72.91,1
59.00,73.65,1
45.00,73.82,1
37.00,73.04,1
36.00,71.31,1
54.00,68.98,1
55.00,66.57,1
70.00,64.47,1
117.00,63.33,1
62.00,63.39,1
52.00,63.77,1
76.00,63.95,1
45.00,64.03,1
83.00,64.03,1
86.00,64.37,1
93.00,65.38,1
42.00,66.58,1
88.00,67.48,1
89.00,68.46,1
118.00,70.13,1
215.00,73.57,1
68.00,78.83,1
104.00,83.99,1
38.00,87.73,1
49.00,89.56,1
67.00,89.67,1
77.00,88.93,1
46.00,87.63,1
73.00,85.74,1
41.00,83.39,1
133.00,81.23,1
58.00,79.92,1
63.00,78.86,1
125.00,78.00,1
41.00,77.69,1
217.00,78.40,1
127.00,81.32,1
59.00,85.26,1
134.00,88.56,1
124.00,91.87,1
73.00,95.12,1
35.00,96.96,1
65.00,96.86,1
81.00,95.61,1
127.00,94.42,1
104.00,94.02,1
40.00,93.70,1
62.00,92.41,1
50.00,90.15,1
62.00,87.30,1
51.00,84.10,1
72.00,80.85,1
57.00,77.78,1
80.00,75.08,1
161.00,73.67,1
140.00,74.63,1
60.00,77.04,1
46.00,78.84,1
84.00,79.56,1
96.00,80.04,1
81.00,80.71,1
66.00,81.23,1
106.00,81.57,1
46.00,81.82,1
86.00,81.64,1
71.00,81.19,1
139.00,81.21,1
110.00,82.33,1
42.00,83.78,1
161.00,85.05,1
92.00,86.96,1
54.00,88.84,1
167.00,90.37,1
102.00,92.59,1
108.00,95.19,1
65.00,97.18,1
56.00,97.91,1
49.00,97.11,1
184.00,96.08,1
39.00,95.89,1
74.00,95.34,1
65.00,93.86,1
48.00,91.72,1
161.00,89.72,1
56.00,88.76,1
49.00,87.76,1
42.00,85.71,1
118.00,83.39,1
52.00,81.61,1
85.00,80.09,1
73.00,78.73,1
104.00,77.86,1
89.00,77.68,1
54.00,77.76,1
40.00,77.21,1
51.00,75.77,1
82.00,74.01,1
52.00,72.44,1
46.00,70.76,1
63.00,68.85,1
102.00,67.40,1
63.00,66.79,1
91.00,66.75,1
111.00,67.47,1
57.00,68.84,1
46.00,69.85,1
99.00,70.35,1
67.00,70.97,1
50.00,71.44,1
91.00,71.56,1
133.00,72.31,1
52.00,73.86,1
44.00,74.92,1
83.00,75.09,1
72.00,75.07,1
47.00,74.83,1
47.00,73.93,1
87.00,72.68,1
93.00,71.93,1
132.00,72.34,1
116.00,74.18,1
61.00,76.64,1
87.00,78.65,1
70.00,80.11,1
55.00,80.89,1
133.00,81.40,1
58.00,82.24,1
42.00,82.55,1
68.00,81.80,1
48.00,80.39,1
125.00,79.06,1
104.00,78.75,1
102.00,79.53,1
87.00,80.76,1
108.00,82.20,1
49.00,83.49,1
64.00,83.93,1
64.00,83.48,1
149.00,83.20,1
160.00,84.57,1
64.00,87.21,1
87.00,89.44,1
124.00,91.17,1
56.00,92.70,1
98.00,93.55,1
64.00,93.71,1
47.00,92.99,1
65.00,91.19,1
82.00,88.95,1
53.00,86.64,1
60.00,84.05,1
87.00,81.45,1
86.00,79.43,1
138.00,78.56,1
55.00,78.75,1
43.00,78.69,1
43.00,77.56,1
48.00,75.59,1
37.00,73.05,1
101.00,70.55,1
61.00,68.80,1
87.00,67.75,1
62.00,67.18,1
35.00,66.55,1
44.00,65.32,1
126.00,64.29,1
92.00,64.58,1
73.00,65.85,1
42.00,66.95,1
53.00,67.31,1
120.00,67.57,1
62.00,68.47,1
57.00,69.39,1
93.00,70.01,1
152.00,71.43,1
147.00,74.65,1
56.00,78.81,1
105.00,82.36,1
106.00,85.42,1
50.00,87.95,1
40.00,88.99,1
93.00,88.69,1
37.00,87.68,1
304.00,87.92,1
70.00,91.08,1
68.00,94.70,1
85.00,96.71,1
90.00,97.75,1
60.00,98.00,1
36.00,96.96,1
48.00,94.45,1
84.00,91.22,1
56.00,87.99,1
86.00,84.96,1
152.00,82.99,1
88.00,82.73,1
63.00,83.03,1
37.00,82.59,1
69.00,81.22,1
43.00,79.29,1
38.00,76.79,1
55.00,73.79,1
40.00,70.61,1
87.00,67.70,1
101.00,65.86,1
76.00,65.31,1
74.00,65.43,1
168.00,66.61,1
49.00,69.11,1
47.00,71.32,1
40.00,72.15,1
78.00,72.07,1
44.00,71.62,1
147.00,71.50,1
38.00,72.15,1
89.00,72.84,1
41.00,73.08,1
53.00,72.70,1
45.00,71.58,1
55.00,70.00,1
80.00,68.42,1
34.00,67.02,1
85.00,65.67,1
66.00,64.70,1
104.00,64.48,1
37.00,64.75,1
52.00,64.72,1
65.00,64.25,1
46.00,63.66,1
96.00,63.19,1
98.00,63.53,1
102.00,64.95,1
87.00,67.10,1
111.00,69.72,1
56.00,72.43,1
42.00,74.28,1
48.00,74.77,1
82.00,74.49,1
92.00,74.33,1
83.00,74.63,1
79.00,75.18,1
50.00,75.52,1
87.00,75.48,1
48.00,75.20,1
60.00,74.50,1
53.00,73.33,1
77.00,72.03,1
70.00,70.94,1
129.00,70.64,1
52.00,71.21,1
65.00,71.76,1
41.00,71.64,1
47.00,70.79,1
84.00,69.61,1
117.00,69.15,1
61.00,69.66,1
43.00,70.07,1
65.00,69.82,1
89.00,69.48,1
113.00,69.88,1
117.00,71.45,1
81.00,73.83,1
132.00,76.60,1
61.00,79.53,1
105.00,82.10,1
99.00,84.39,1
141.00,87.02,1
42.00,89.64,1
95.00,91.30,1
95.00,92.24,1
78.00,92.91,1
80.00,93.08,1
87.00,92.82,1
83.00,92.33,1
131.00,92.09,1
112.00,92.64,1
149.00,94.18,1
82.00,96.30,1
64.00,97.84,1
40.00,97.84,1
52.00,96.23,1
45.00,93.37,1
64.00,89.80,1
73.00,86.17,1
42.00,82.63,1
41.00,78.85,1
100.00,75.22,1
48.00,72.36,1
129.00,70.49,1
82.00,69.95,1
58.00,70.12,1
72.00,70.16,1
46.00,69.93,1
45.00,69.16,1
49.00,67.81,1
50.00,66.14,1
164.00,65.27,1
58.00,66.06,1
45.00,67.17,1
36.00,67.31,1
84.00,66.86,1
69.00,66.56,1
85.00,66.68,1
51.00,66.96,1
44.00,66.85,1
121.00,66.72,1
75.00,67.38,1
61.00,68.41,1
76.00,69.19,1
39.00,69.57,1
104.00,69.70,1
85.00,70.23,1
162.00,71.92,1
114.00,75.16,1
109.00,79.27,1
170.00,83.92,1
38.00,88.72,1
158.00,92.76,1
40.00,96.03,1
36.00,97.60,1
46.00,96.86,1
63.00,94.67,1
96.00,92.09,1
62.00,89.71,1
50.00,87.16,1
48.00,84.08,1
41.00,80.50,1
86.00,76.91,1
97.00,74.19,1
135.00,73.10,1
113.00,73.81,1
49.00,75.30,1
103.00,76.54,1
57.00,77.53,1
65.00,78.05,1
65.00,77.95,1
48.00,77.30,1
264.00,77.77,1
186.00,81.85,1
98.00,88.29,1
137.00,94.56,1
44.00,99.63,1
101.00,102.88,1
238.00,105.94,1
53.00,109.97,1
67.00,112.79,1
167.00,114.12,1
72.00,115.27,1
102.00,115.74,1
65.00,115.08,1
114.00,113.63,1
155.00,112.48,1
101.00,112.23,1
58.00,111.76,1
54.00,109.93,1
36.00,106.56,1
62.00,102.02,1
69.00,97.09,1
49.00,92.19,1
50.00,87.20,1
54.00,82.20,1
45.00,77.36,1
69.00,72.88,1
106.00,69.47,1
107.00,67.79,1
110.00,67.82,1
123.00,69.35,1
91.00,71.91,1
72.00,74.60,1
70.00,76.69,1
60.00,78.00,1
259.00,80.12,1
94.00,84.63,1
186.00,90.50,1
37.00,96.14,1
104.00,100.25,1
136.00,103.21,1
140.00,106.31,1
100.00,109.42,1
47.00,111.36,1
48.00,111.14,1
108.00,109.37,1
124.00,107.62,1
78.00,106.32,1
42.00,104.47,1
80.00,101.60,1
100.00,98.55,1
190.00,96.86,1
90.00,97.08,1
79.00,97.75,1
116.00,98.03,1
102.00,98.42,1
157.00,99.42,1
115.00,101.27,1
44.00,102.89,1
41.00,102.73,1
115.00,101.20,1
42.00,99.27,1
52.00,96.59,1
124.00,93.59,1
141.00,91.86,1
60.00,91.37,1
41.00,90.46,1
58.00,88.43,1
101.00,86.09,1
95.00,84.41,1
58.00,83.22,1
66.00,81.86,1
42.00,80.03,1
91.00,77.98,1
35.00,75.98,1
47.00,73.67,1
66.00,71.09,1
116.00,69.22,1
83.00,68.66,1
52.00,68.72,1
242.00,70.05,1
38.00,73.50,1
72.00,76.91,1
56.00,78.93,1
52.00,79.80,1
116.00,80.10,1
90.00,80.78,1
166.00,82.44,1
94.00,85.24,1
143.00,88.65,1
120.00,92.44,1
123.00,96.45,1
227.00,101.24,1
96.00,107.11,1
127.00,112.54,1
90.00,116.57,1
119.00,119.29,1
100.00,120.94,1
111.00,121.75,1
58.00,121.47,1
35.00,119.39,1
106.00,115.79,1
193.00,112.87,1
58.00,111.47,1
126.00,110.31,1
60.00,108.85,1
57.00,106.64,1
132.00,103.95,1
166.00,102.50,1
64.00,102.37,1
91.00,102.08,1
65.00,101.04,1
148.00,99.96,1
63.00,99.35,1
47.00,98.24,1
136.00,96.56,1
192.00,96.32,1
69.00,97.83,1
79.00,99.13,1
127.00,99.76,1
34.00,99.97,1
163.00,99.78,1
72.00,99.91,1
74.00,99.85,1
187.00,99.87,1
67.00,100.85,1
47.00,101.30,1
76.00,100.25,1
41.00,98.10,1
68.00,95.11,1
74.00,91.76,1
139.00,89.11,1
98.00,87.87,1
71.00,87.38,1
37.00,86.41,1
100.00,84.83,1
42.00,83.13,1
36.00,80.91,1
62.00,77.99,1
122.00,75.53,1
102.00,74.53,1
162.00,75.37,1
43.00,77.39,1
58.00,78.89,1
131.00,79.82,1
93.00,81.30,1
49.00,82.77,1
78.00,83.36,1
73.00,83.36,1
36.00,82.75,1
45.00,81.12,1
137.00,79.37,1
62.00,78.57,1
126.00,78.57,1
69.00,79.14,1
60.00,79.64,1
120.00,79.94,1
40.00,80.33,1
77.00,80.27,1
117.00,80.13,1
42.00,80.30,1
84.00,80.12,1
52.00,79.50,1
173.00,79.39,1
103.00,80.84,1
114.00,83.36,1
103.00,86.10,1
122.00,88.99,1
37.00,91.42,1
60.00,92.36,1
43.00,91.66,1
104.00,90.17,1
55.00,88.59,1
48.00,86.62,1
92.00,84.25,1
78.00,82.23,1
49.00,80.43,1
59.00,78.34,1
82.00,76.22,1
78.00,74.58,1
56.00,73.29,1
41.00,71.80,1
141.00,70.60,1
78.00,70.67,1
88.00,71.58,1
35.00,72.28,1
86.00,72.45,1
209.00,73.63,1
85.00,76.97,1
79.00,80.75,1
43.00,83.31,1
51.00,84.27,1
114.00,84.36,1
127.00,84.99,1
75.00,86.33,1
51.00,87.20,1
106.00,87.31,1
75.00,87.30,1
55.00,86.97,1
152.00,86.63,1
46.00,86.86,1
54.00,86.62,1
70.00,85.42,1
42.00,83.63,1
37.00,81.08,1
37.00,77.70,1
68.00,74.05,1
36.00,70.54,1
39.00,67.03,1
80.00,63.75,1
152.00,62.06,1
89.00,62.62,1
61.00,64.22,1
66.00,65.60,1
74.00,66.69,1
48.00,67.47,1
66.00,67.79,1
75.00,67.90,1
119.00,68.51,1
54.00,69.74,1
68.00,70.81,1
44.00,71.21,1
108.00,71.35,1
46.00,71.62,1
47.00,71.50,1
46.00,70.57,1
46.00,69.06,1
99.00,67.59,1
94.00,67.04,1
122.00,67.79,1
63.00,69.44,1
78.00,71.10,1
129.00,72.89,1
36.00,74.91,1
57.00,76.10,1
92.00,76.49,1
141.00,77.42,1
38.00,78.98,1
64.00,79.88,1
108.00,80.18,1
78.00,80.72,1
39.00,80.97,1
64.00,80.29,1
124.00,79.53,1
95.00,79.68,1
50.00,80.17,1
82.00,80.18,1
81.00,79.98,1
48.00,79.59,1
67.00,78.68,1
127.00,77.94,1
39.00,77.77,1
64.00,77.30,1
57.00,76.23,1
40.00,74.69,1
55.00,72.63,1
82.00,70.58,1
84.00,69.20,1
44.00,68.29,1
51.00,67.18,1
164.00,66.68,1
106.00,68.12,1
36.00,70.38,1
63.00,71.75,1
120.00,72.75,1
39.00,73.94,1
56.00,74.48,1
151.00,74.93,1
70.00,76.34,1
77.00,77.93,1
84.00,79.10,1
59.00,79.89,1
90.00,80.25,1
68.00,80.41,1
115.00,80.70,1
80.00,81.37,1
91.00,82.22,1
82.00,82.99,1
174.00,84.38,1
70.00,86.77,1
213.00,90.09,1
55.00,94.19,1
45.00,97.23,1
50.00,97.93,1
52.00,96.84,1
40.00,94.40,1
47.00,90.90,1
121.00,87.35,1
42.00,84.49,1
77.00,81.86,1
178.00,80.25,1
47.00,80.37,1
72.00,80.64,1
45.00,80.14,1
112.00,79.36,1
86.00,79.08,1
86.00,79.31,1
83.00,79.69,1
64.00,79.95,1
48.00,79.65,1
76.00,78.73,1
60.00,77.57,1
37.00,76.05,1
100.00,74.31,1
104.00,73.35,1
87.00,73.47,1
67.00,73.98,1
84.00,74.44,1
84.00,74.97,1
83.00,75.66,1
107.00,76.64,1
71.00,77.90,1
59.00,78.82,1
47.00,78.86,1
69.00,78.11,1
70.00,77.07,1
43.00,75.81,1
72.00,74.23,1
56.00,72.58,1
94.00,71.23,1
108.00,70.76,1
132.00,71.72,1
51.00,73.58,1
170.00,75.91,1
108.00,79.31,1
68.00,83.03,1
48.00,85.51,1
65.00,86.46,1
66.00,86.34,1
53.00,85.46,1
38.00,83.70,1
119.00,81.64,1
50.00,80.07,1
104.00,78.90,1
83.00,78.23,1
119.00,78.34,1
101.00,79.34,1
66.00,80.68,1
43.00,81.30,1
51.00,80.76,1
83.00,79.57,1
80.00,78.49,1
51.00,77.50,1
60.00,76.19,1
42.00,74.43,1
38.00,72.14,1
39.00,69.30,1
67.00,66.36,1
65.00,63.90,1
127.00,62.59,1
44.00,62.54,1
73.00,62.82,1
156.00,63.82,1
84.00,66.35,1
139.00,69.92,1
58.00,73.80,1
37.00,76.71,1
47.00,77.87,1
119.00,78.25,1
112.00,79.23,1
89.00,80.94,1
57.00,82.42,1
68.00,83.07,1
122.00,83.41,1
42.00,83.84,1
204.00,84.78,1
94.00,87.19,1
86.00,90.08,1
68.00,92.06,1
52.00,92.77,1
41.00,92.00,1
72.00,90.08,1
131.00,88.26,1
36.00,87.01,1
81.00,85.54,1
218.00,85.02,1
112.00,87.04,1
58.00,89.83,1
110.00,91.77,1
65.00,93.04,1
106.00,93.79,1
44.00,93.91,1
143.00,93.68,1
117.00,94.10,1
50.00,94.84,1
69.00,94.62,1
186.00,94.41,1
99.00,95.60,1
67.00,97.07,1
187.00,98.45,1
77.00,100.53,1
45.00,101.96,1
74.00,101.67,1
74.00,100.28,1
42.00,98.07,1
72.00,95.05,1
180.00,92.64,1
139.00,92.50,1
74.00,93.73,1
128.00,95.00,1
70.00,96.14,1
83.00,96.72,1
54.00,96.36,1
132.00,95.57,1
48.00,94.83,1
41.00,93.36,1
65.00,90.76,1
116.00,88.15,1
145.00,86.90,1
63.00,86.96,1
126.00,87.42,1
45.00,87.85,1
283.00,89.41,1
146.00,93.96,1
66.00,99.61,1
63.00,103.43,1
178.00,105.96,1
110.00,108.75,1
142.00,111.74,1
204.00,115.28,1
212.00,120.48,1
102.00,126.48,1
95.00,131.08,1
62.00,133.16,1
94.00,132.91,1
67.00,130.92,1
146.00,128.17,1
37.00,125.12,1
208.00,122.20,1
172.00,121.12,1
60.00,121.37,1
63.00,120.47,1
56.00,117.79,1
89.00,114.04,1
42.00,109.69,1
100.00,105.01,1
213.00,101.74,1
96.00,101.04,1
180.00,102.04,1
166.00,104.56,1
40.00,107.59,1
92.00,109.11,1
42.00,108.85,1
46.00,106.87,1
106.00,103.83,1
48.00,100.60,1
63.00,97.01,1
112.00,93.44,1
71.00,90.59,1
141.00,88.70,1
44.00,87.61,1
93.00,86.55,1
118.00,85.76,1
41.00,85.38,1
115.00,84.87,1
53.00,84.35,1
43.00,83.35,1
47.00,81.36,1
119.00,79.28,1
51.00,77.84,1
53.00,76.44,1
90.00,74.89,1
145.00,74.36,1
49.00,75.05,1
74.00,75.71,1
124.00,76.37,1
66.00,77.54,1
87.00,78.71,1
207.00,80.70,1
71.00,84.29,1
44.00,87.47,1
126.00,89.36,1
124.00,91.31,1
48.00,93.26,1
152.00,94.74,1
118.00,96.62,1
78.00,98.71,1
100.00,100.12,1
166.00,101.56,1
90.00,103.60,1
101.00,105.43,1
131.00,106.83,1
34.00,107.64,1
74.00,106.93,1
41.00,104.70,1
75.00,101.44,1
154.00,98.46,1
235.00,98.04,1
176.00,101.09,1
135.00,106.06,1
86.00,110.74,1
66.00,113.71,1
149.00,115.22,1
218.00,117.38,1
62.00,120.49,1
105.00,122.55,1
112.00,123.24,1
43.00,122.77,1
72.00,120.59,1
60.00,116.96,1
93.00,112.68,1
134.00,108.85,1
72.00,105.92,1
42.00,102.83,1
94.00,99.15,1
60.00,95.46,1
35.00,91.56,1
76.00,87.26,1
72.00,83.25,1
40.00,79.60,1
151.00,76.69,1
50.00,75.20,1
53.00,74.09,1
68.00,72.65,1
176.00,72.17,1
211.00,74.64,1
120.00,80.00,1
49.00,85.56,1
123.00,89.77,1
72.00,93.04,1
79.00,95.30,1
52.00,96.19,1
114.00,96.14,1
50.00,95.64,1
157.00,95.16,1
54.00,95.12,1
76.00,94.75,1
120.00,94.04,1
71.00,93.59,1
129.00,93.38,1
83.00,93.55,1
52.00,93.44,1
147.00,93.04,1
86.00,93.22,1
65.00,93.46,1
40.00,92.65,1
136.00,91.30,1
36.00,90.13,1
88.00,88.71,1
58.00,86.92,1
81.00,85.04,1
94.00,83.40,1
38.00,81.93,1
161.00,80.84,1
268.00,82.57,1
197.00,88.55,1
50.00,96.06,1
92.00,101.81,1
88.00,105.46,1
103.00,107.81,1
199.00,110.11,1
98.00,113.18,1
62.00,115.55,1
121.00,116.36,1
70.00,116.22,1
160.00,115.75,1
72.00,115.39,1
78.00,114.45,1
54.00,112.27,1
66.00,108.97,1
222.00,106.23,1
86.00,105.56,1
108.00,105.72,1
73.00,105.43,1
70.00,104.41,1
36.00,102.23,1
176.00,99.82,1
145.00,99.13,1
102.00,100.01,1
137.00,101.39,1
215.00,103.99,1
327.00,109.94,1
205.00,119.75,1
88.00,130.07,1
180.00,138.25,1
88.00,144.32,1
57.00,147.58,1
67.00,147.39,1
122.00,144.95,1
140.00,142.01,1
68.00,138.97,1
156.00,135.64,1
72.00,132.35,1
45.00,128.32,1
79.00,123.00,1
49.00,116.96,1
37.00,110.25,1
48.00,102.91,1
244.00,97.05,1
61.00,94.35,1
85.00,92.92,1
62.00,91.18,1
77.00,89.20,1
82.00,87.21,1
78.00,85.45,1
54.00,83.70,1
89.00,81.88,1
84.00,80.39,1
62.00,79.25,1
64.00,78.00,1
51.00,76.47,1
80.00,74.81,1
52.00,73.24,1
59.00,71.64,1
49.00,69.86,1
42.00,67.84,1
36.00,65.47,1
87.00,63.16,1
66.00,61.60,1
92.00,60.95,1
98.00,61.32,1
48.00,62.35,1
54.00,63.12,1
37.00,63.21,1
40.00,62.57,1
59.00,61.46,1
132.00,60.99,1
66.00,61.83,1
98.00,63.44,1
55.00,65.18,1
73.00,66.67,1
101.00,68.10,1
69.00,69.77,1
97.00,71.52,1
40.00,72.98,1
117.00,74.11,1
156.00,76.08,1
102.00,79.45,1
89.00,83.10,1
70.00,86.02,1
103.00,88.14,1
74.00,89.73,1
105.00,90.91,1
78.00,91.80,1
90.00,92.33,1
47.00,92.20,1
77.00,91.21,1
42.00,89.45,1
38.00,86.79,1
93.00,83.64,1
40.00,80.66,1
59.00,77.64,1
107.00,74.97,1
73.00,73.32,1
64.00,72.27,1
128.00,71.81,1
66.00,72.27,1
85.00,73.09,1
125.00,74.28,1
68.00,76.06,1
97.00,77.85,1
75.00,79.43,1
109.00,80.95,1
101.00,82.68,1
169.00,85.25,1
163.00,89.35,1
99.00,94.45,1
159.00,99.50,1
74.00,104.12,1
45.00,107.08,1
65.00,107.66,1
162.00,107.34,1
277.00,109.07,1
64.00,113.25,1
34.00,116.31,1
74.00,116.47,1
43.00,114.58,1
175.00,112.12,1
207.00,111.52,1
60.00,112.78,1
122.00,113.71,1
153.00,114.44,1
49.00,115.15,1
248.00,116.01,1
39.00,117.66,1
62.00,118.21,1
106.00,116.95,1
260.00,116.53,1
158.00,118.91,1
67.00,122.09,1
64.00,123.40,1
278.00,124.22,1
403.00,129.22,1
78.00,138.36,1
178.00,146.84,1
82.00,152.67,1
93.00,155.66,1
73.00,155.60,1
102.00,153.22,1
61.00,149.13,1
238.00,144.90,1
40.00,141.67,1
309.00,139.72,1
236.00,141.01,1
197.00,145.48,1
96.00,150.07,1
876.00,159.06,1
575.00,180.77,1
116.00,208.93,1
310.00,232.66,1
692.00,254.79,1
534.00,281.65,1
37.00,307.61,1
47.00,322.54,1
185.00,325.84,1
125.00,322.03,1
308.00,314.64,1
382.00,307.90,1
37.00,301.77,1
308.00,293.44,1
815.00,289.53,1
193.00,294.71,1
61.00,299.34,1
119.00,296.55,1
194.00,288.64,1
422.00,280.76,1
187.00,275.62,1
336.00,271.96,1
263.00,269.46,1
390.00,269.02,1
74.00,269.03,1
158.00,265.90,1
150.00,259.18,1
48.00,249.67,1
423.00,239.72,1
140.00,232.77,1
133.00,226.70,1
272.00,220.20,1
127.00,214.62,1
178.00,209.10,1
160.00,203.29,1
159.00,197.58,1
103.00,191.52,1
111.00,184.50,1
127.00,176.79,1
186.00,169.65,1
211.00,164.47,1
497.00,164.28,1
442.00,172.33,1
58.00,184.67,1
250.00,194.61,1
142.00,201.53,1
567.00,209.23,1
107.00,219.61,1
229.00,228.59,1
176.00,233.96,1
206.00,236.80,1
121.00,236.98,1
42.00,233.34,1
71.00,225.13,1
288.00,215.32,1
207.00,207.82,1
98.00,201.85,1
183.00,195.47,1
40.00,188.32,1
416.00,182.28,1
174.00,180.30,1
230.00,181.09,1
56.00,181.40,1
182.00,179.98,1
83.00,177.08,1
132.00,173.00,1
106.00,167.89,1
64.00,161.82,1
101.00,154.63,1
118.00,147.23,1
422.00,143.02,1
69.00,143.62,1
130.00,145.02,1
82.00,144.68,1
121.00,143.06,1
281.00,142.09,1
45.00,142.68,1
52.00,141.89,1
129.00,138.89,1
57.00,135.03,1
343.00,132.49,1
194.00,133.94,1
85.00,137.36,1
245.00,140.46,1
178.00,144.40,1
93.00,148.36,1
69.00,150.01,1
98.00,149.02,1
234.00,147.45,1
166.00,147.45,1
238.00,149.24,1
147.00,152.18,1
87.00,154.49,1
114.00,154.72,1
66.00,152.91,1
183.00,150.04,1
152.00,147.72,1
41.00,145.44,1
264.00,143.02,1
53.00,141.59,1
80.00,139.54,1
56.00,135.58,1
88.00,130.38,1
69.00,124.59,1
189.00,119.51,1
165.00,116.78,1
138.00,116.28,1
183.00,117.23,1
75.00,118.87,1
117.00,119.90,1
37.00,119.57,1
489.00,120.99,1
92.00,127.26,1
68.00,133.94,1
127.00,137.52,1
50.00,138.75,1
284.00,139.32,1
112.00,141.18,1
268.00,144.36,1
271.00,149.62,1
307.00,157.92,1
96.00,167.15,1
548.00,177.27,1
276.00,191.27,1
383.00,207.91,1
47.00,222.69,1
83.00,231.19,1
228.00,233.62,1
61.00,232.68,1
252.00,229.25,1
147.00,224.94,1
210.00,220.47,1
73.00,215.06,1
107.00,207.66,1
144.00,198.74,1
72.00,189.24,1
63.00,178.66,1
109.00,167.20,1
37.00,155.58,1
55.00,143.59,1
37.00,131.24,1
47.00,118.96,1
304.00,109.29,1
52.00,104.20,1
71.00,100.85,1
46.00,96.95,1
132.00,93.22,1
124.00,90.90,1
59.00,89.76,1
111.00,88.85,1
83.00,88.23,1
72.00,87.73,1
61.00,86.83,1
100.00,85.69,1
88.00,84.89,1
135.00,84.86,1
79.00,85.66,1
50.00,86.26,1
71.00,85.94,1
297.00,86.89,1
58.00,90.74,1
127.00,95.14,1
77.00,98.54,1
813.00,106.96,1
227.00,125.81,1
140.00,147.64,1
103.00,164.35,1
75.00,175.12,1
90.00,180.31,1
68.00,180.92,1
102.00,178.09,1
399.00,175.60,1
971.00,183.37,1
48.00,203.13,1
553.00,224.85,1
64.00,243.99,1
502.00,260.25,1
285.00,275.19,1
97.00,287.11,1
280.00,292.91,1
50.00,293.45,1
515.00,291.54,1
336.00,292.20,1
642.00,298.16,1
380.00,309.40,1
212.00,321.08,1
106.00,326.89,1
230.00,325.85,1
670.00,324.51,1
508.00,330.04,1
734.00,343.35,1
312.00,361.04,1
608.00,378.84,1
142.00,393.64,1
408.00,402.61,1
134.00,405.10,1
316.00,401.74,1
85.00,392.98,1
206.00,378.98,1
386.00,363.09,1
180.00,348.59,1
492.00,336.28,1
578.00,330.22,1
81.00,328.97,1
220.00,325.07,1
372.00,318.73,1
158.00,312.66,1
45.00,303.73,1
67.00,289.44,1
377.00,273.58,1
245.00,261.30,1
49.00,250.90,1
132.00,238.62,1
235.00,225.92,1
45.00,214.14,1
82.00,201.46,1
142.00,188.07,1
120.00,175.68,1
107.00,164.51,1
70.00,153.91,1
76.00,143.44,1
115.00,133.51,1
175.00,125.54,1
100.00,120.01,1
158.00,116.26,1
57.00,113.47,1
67.00,110.40,1
108.00,106.88,1
88.00,103.74,1
64.00,100.80,1
50.00,97.42,1
80.00,93.65,1
305.00,91.96,1
72.00,93.98,1
204.00,97.82,1
80.00,102.13,1
242.00,107.06,1
130.00,113.00,1
96.00,118.73,1
551.00,126.35,1
197.00,139.58,1
241.00,154.82,1
133.00,167.99,1
224.00,178.47,1
345.00,188.18,1
211.00,198.65,1
47.00,206.76,1
254.00,210.73,1
858.00,218.50,1
179.00,235.00,1
249.00,251.88,1
302.00,264.46,1
206.00,274.02,1
376.00,281.23,1
164.00,286.68,1
107.00,288.04,1
319.00,285.32,1
398.00,283.26,1
107.00,282.43,1
1023.00,286.00,1
87.00,297.86,1
182.00,308.43,1
416.00,313.39,1
296.00,317.62,1
198.00,320.31,1
50.00,317.88,1
306.00,310.46,1
790.00,306.58,1
90.00,309.83,1
63.00,310.57,1
310.00,305.25,1
173.00,298.18,1
502.00,292.53,1
97.00,289.11,1
49.00,283.08,1
71.00,271.36,1
82.00,255.64,1
60.00,237.65,1
40.00,218.13,1
56.00,197.67,1
80.00,177.49,1
70.00,158.65,1
67.00,141.46,1
69.00,125.97,1
84.00,112.42,1
66.00,100.92,1
70.00,91.21,1
121.00,83.52,1
82.00,78.17,1
67.00,74.43,1
186.00,72.46,1
114.00,73.16,1
96.00,75.50,1
262.00,79.49,1
355.00,87.96,1
454.00,103.36,1
303.00,124.62,1
78.00,146.06,1
251.00,163.37,1
333.00,178.67,1
210.00,193.70,1
51.00,205.36,1
184.00,211.49,1
684.00,218.27,1
96.00,229.86,1
188.00,239.86,1
289.00,245.81,1
307.00,251.06,1
70.00,254.80,1
168.00,254.30,1
801.00,255.50,1
140.00,263.86,1
344.00,273.27,1
115.00,279.20,1
130.00,280.23,1
119.00,275.81,1
55.00,266.81,1
144.00,254.22,1
156.00,240.33,1
120.00,226.60,1
493.00,216.02,1
60.00,210.51,1
352.00,207.34,1
154.00,205.66,1
223.00,204.90,1
56.00,202.98,1
232.00,199.48,1
57.00,194.98,1
209.00,189.69,1
252.00,185.41,1
208.00,183.66,1
411.00,185.19,1
176.00,190.23,1
160.00,195.41,1
52.00,197.41,1
163.00,195.91,1
1023.00,199.92,1
127.00,215.69,1
189.00,232.67,1
128.00,243.10,1
210.00,248.38,1
272.00,250.96,1
133.00,251.95,1
86.00,249.49,1
695.00,247.64,1
172.00,251.70,1
795.00,261.73,1
959.00,283.17,1
312.00,315.07,1
104.00,342.84,1
204.00,358.63,1
108.00,363.83,1
229.00,361.11,1
381.00,354.94,1
47.00,347.08,1
185.00,335.09,1
36.00,318.55,1
89.00,298.28,1
62.00,275.33,1
37.00,250.82,1
50.00,225.40,1
101.00,200.59,1
353.00,180.12,1
202.00,167.05,1
37.00,158.17,1
69.00,149.02,1
65.00,139.10,1
76.00,129.23,1
105.00,120.10,1
75.00,112.18,1
85.00,105.26,1
137.00,99.69,1
67.00,95.69,1
101.00,92.56,1
81.00,90.02,1
89.00,88.03,1
110.00,86.65,1
36.00,85.60,1
190.00,85.05,1
72.00,85.86,1
158.00,87.73,1
420.00,92.96,1
122.00,103.18,1
80.00,113.73,1
249.00,122.37,1
100.00,130.50,1
98.00,136.88,1
126.00,140.68,1
34.00,142.07,1
964.00,148.08,1
214.00,165.64,1
463.00,188.95,1
327.00,212.54,1
438.00,236.33,1
393.00,259.77,1
460.00,282.91,1
229.00,303.90,1
299.00,319.84,1
532.00,332.59,1
66.00,343.09,1
335.00,347.96,1
356.00,349.15,1
75.00,347.77,1
126.00,340.43,1
38.00,326.47,1
74.00,307.35,1
54.00,284.67,1
191.00,261.11,1
184.00,239.70,1
145.00,221.31,1
97.00,204.74,1
132.00,189.27,1
68.00,174.80,1
43.00,160.61,1
253.00,147.89,1
213.00,139.63,1
114.00,135.31,1
220.00,133.00,1
286.00,133.79,1
59.00,137.01,1
151.00,139.51,1
40.00,140.10,1
279.00,140.14,1
180.00,141.96,1
398.00,147.23,1
486.00,158.54,1
60.00,173.73,1
44.00,184.90,1
40.00,188.77,1
113.00,187.46,1
39.00,182.76,1
52.00,175.12,1
248.00,166.75,1
508.00,163.63,1
363.00,169.30,1
48.00,178.66,1
112.00,184.57,1
277.00,187.50,1
68.00,189.58,1
64.00,188.83,1
75.00,184.24,1
46.00,176.77,1
91.00,167.39,1
130.00,157.70,1
70.00,148.60,1
74.00,139.60,1
291.00,132.36,1
102.00,128.78,1
204.00,127.58,1
137.00,127.79,1
100.00,128.51,1
247.00,129.64,1
149.00,132.34,1
92.00,135.29,1
44.00,136.14,1
80.00,134.43,1
121.00,131.37,1
93.00,128.12,1
78.00,124.59,1
116.00,120.81,1
42.00,116.85,1
82.00,112.31,1
68.00,107.42,1
40.00,102.28,1
121.00,97.21,1
74.00,93.08,1
196.00,90.72,1
37.00,90.12,1
121.00,89.91,1
324.00,91.76,1
98.00,97.38,1
72.00,103.33,1
102.00,107.28,1
322.00,111.68,1
54.00,117.96,1
46.00,122.76,1
76.00,124.13,1
78.00,123.36,1
328.00,123.32,1
58.00,125.80,1
58.00,127.66,1
70.00,126.87,1
101.00,124.52,1
1022.00,129.33,1
130.00,147.60,1
55.00,167.64,1
107.00,180.14,1
36.00,186.16,1
91.00,186.79,1
65.00,183.38,1
56.00,177.02,1
93.00,168.55,1
72.00,159.12,1
47.00,149.05,1
100.00,138.65,1
68.00,128.76,1
100.00,119.76,1
64.00,111.71,1
76.00,104.40,1
49.00,97.59,1
238.00,92.58,1
206.00,91.81,1
64.00,94.11,1
84.00,96.20,1
111.00,97.43,1
49.00,98.08,1
216.00,98.84,1
41.00,100.47,1
108.00,101.74,1
148.00,102.69,1
213.00,105.13,1
180.00,109.75,1
59.00,114.86,1
169.00,118.81,1
79.00,121.81,1
57.00,123.24,1
46.00,122.23,1
66.00,119.19,1
46.00,114.79,1
62.00,109.45,1
208.00,104.90,1
150.00,103.18,1
57.00,103.13,1
113.00,102.79,1
124.00,102.51,1
159.00,103.21,1
42.00,104.33,1
51.00,104.14,1
41.00,102.09,1
107.00,99.14,1
198.00,97.37,1
175.00,98.42,1
355.00,103.47,1
82.00,111.92,1
42.00,119.28,1
56.00,122.74,1
179.00,124.03,1
102.00,125.18,1
80.00,125.74,1
167.00,125.55,1
54.00,125.12,1
246.00,124.96,1
106.00,126.10,1
91.00,127.34,1
74.00,127.06,1
73.00,125.21,1
153.00,122.73,1
68.00,120.49,1
37.00,117.49,1
33.00,112.74,1
312.00,108.83,1
58.00,108.19,1
164.00,109.03,1
78.00,109.90,1
107.00,110.46,1
55.00,110.09,1
186.00,109.50,1
67.00,109.52,1
150.00,109.80,1
82.00,110.09,1
215.00,111.05,1
43.00,112.70,1
66.00,113.25,1
83.00,112.04,1
100.00,110.17,1
142.00,108.61,1
39.00,107.34,1
69.00,105.20,1
56.00,102.01,1
62.00,98.22,1
51.00,94.00,1
62.00,89.54,1
42.00,84.98,1
68.00,80.48,1
42.00,76.21,1
52.00,72.13,1
75.00,68.47,1
53.00,65.54,1
90.00,63.39,1
113.00,62.52,1
60.00,62.91,1
65.00,63.59,1
62.00,64.09,1
38.00,64.23,1
116.00,64.30,1
157.00,65.77,1
109.00,69.16,1
44.00,72.93,1
147.00,76.22,1
44.00,79.36,1
127.00,82.12,1
40.00,84.29,1
376.00,87.98,1
103.00,95.31,1
39.00,102.85,1
55.00,107.13,1
102.00,108.92,1
39.00,109.12,1
67.00,107.70,1
52.00,104.92,1
34.00,101.01,1
92.00,96.44,1
38.00,91.90,1
43.00,87.14,1
96.00,82.45,1
36.00,78.41,1
139.00,75.29,1
44.00,73.38,1
165.00,72.76,1
62.00,73.50,1
39.00,74.34,1
95.00,74.46,1
54.00,74.42,1
127.00,74.66,1
154.00,76.21,1
185.00,79.99,1
40.00,84.90,1
138.00,89.16,1
47.00,92.44,1
46.00,94.16,1
131.00,94.59,1
68.00,94.89,1
100.00,95.02,1
105.00,95.05,1
62.00,95.01,1
63.00,94.25,1
56.00,92.57,1
62.00,90.17,1
73.00,87.46,1
47.00,84.62,1
61.00,81.55,1
120.00,78.91,1
131.00,77.86,1
87.00,78.37,1
55.00,79.15,1
59.00,79.24,1
82.00,78.79,1
52.00,78.12,1
79.00,77.21,1
82.00,76.38,1
44.00,75.60,1
192.00,75.50,1
117.00,77.42,1
59.00,80.34,1
280.00,84.16,1
105.00,90.28,1
232.00,97.95,1
167.00,106.63,1
49.00,114.78,1
67.00,119.92,1
87.00,122.07,1
86.00,122.36,1
56.00,121.14,1
82.00,118.49,1
58.00,114.85,1
69.00,110.49,1
118.00,106.12,1
101.00,102.64,1
140.00,100.41,1
134.00,99.65,1
258.00,101.29,1
140.00,105.70,1
45.00,110.37,1
132.00,113.28,1
199.00,115.94,1
44.00,118.87,1
38.00,119.83,1
68.00,118.17,1
310.00,117.01,1
124.00,119.04,1
67.00,121.83,1
44.00,122.40,1
81.00,120.73,1
64.00,117.68,1
84.00,113.89,1
80.00,109.83,1
37.00,105.43,1
116.00,100.83,1
93.00,96.99,1
43.00,93.72,1
87.00,90.33,1
60.00,87.06,1
50.00,83.81,1
40.00,80.24,1
100.00,76.77,1
207.00,75.29,1
36.00,76.24,1
190.00,78.32,1
35.00,81.04,1
40.00,82.91,1
175.00,83.98,1
61.00,85.75,1
103.00,87.56,1
77.00,88.89,1
125.00,90.12,1
41.00,91.12,1
133.00,91.67,1
63.00,92.12,1
127.00,92.60,1
60.00,93.02,1
55.00,92.76,1
217.00,92.70,1
46.00,94.02,1
38.00,94.79,1
69.00,93.81,1
50.00,91.83,1
40.00,89.02,1
48.00,85.41,1
164.00,82.32,1
48.00,80.77,1
91.00,79.83,1
104.00,79.23,1
239.00,80.63,1
107.00,84.71,1
36.00,89.05,1
157.00,92.17,1
126.00,95.44,1
36.00,98.45,1
118.00,100.07,1
106.00,101.12,1
148.00,102.52,1
66.00,104.07,1
42.00,104.47,1
111.00,103.48,1
70.00,102.06,1
69.00,100.25,1
42.00,97.62,1
82.00,94.33,1
48.00,90.80,1
52.00,87.01,1
52.00,82.94,1
138.00,79.54,1
52.00,77.46,1
61.00,75.82,1
46.00,73.89,1
82.00,71.91,1
57.00,70.24,1
66.00,68.82,1
54.00,67.47,1
80.00,66.31,1
61.00,65.51,1
64.00,64.94,1
64.00,64.45,1
89.00,64.27,1
132.00,65.11,1
69.00,67.08,1
180.00,70.11,1
126.00,74.68,1
40.00,79.59,1
93.00,83.16,1
79.00,85.64,1
124.00,87.79,1
36.00,89.53,1
110.00,90.41,1
49.00,90.62,1
46.00,89.88,1
42.00,87.84,1
77.00,85.09,1
39.00,82.14,1
38.00,78.76,1
164.00,75.90,1
66.00,74.79,1
46.00,74.31,1
35.00,73.08,1
136.00,71.81,1
64.00,71.54,1
70.00,71.74,1
154.00,72.48,1
43.00,74.13,1
117.00,75.90,1
122.00,78.03,1
97.00,80.86,1
76.00,83.58,1
40.00,85.27,1
38.00,85.35,1
191.00,85.12,1
82.00,86.29,1
98.00,88.08,1
42.00,89.16,1
40.00,88.85,1
44.00,87.06,1
54.00,84.33,1
68.00,81.28,1
82.00,78.52,1
36.00,76.04,1
102.00,73.75,1
79.00,72.22,1
36.00,71.11,1
46.00,69.53,1
92.00,67.85,1
61.00,66.74,1
96.00,66.26,1
110.00,66.71,1
71.00,68.05,1
89.00,69.64,1
57.00,71.08,1
86.00,72.21,1
170.00,73.99,1
45.00,76.79,1
85.00,79.24,1
82.00,80.93,1
91.00,82.35,1
43.00,83.24,1
49.00,83.03,1
84.00,81.97,1
120.00,81.24,1
81.00,81.35,1
60.00,81.57,1
66.00,81.25,1
46.00,80.28,1
40.00,78.51,1
41.00,75.96,1
66.00,73.05,1
38.00,70.17,1
76.00,67.47,1
97.00,65.55,1
127.00,65.22,1
149.00,66.96,1
61.00,70.11,1
65.00,72.95,1
70.00,74.85,1
45.00,75.88,1
89.00,76.20,1
91.00,76.53,1
70.00,77.06,1
111.00,77.75,1
108.00,79.01,1
66.00,80.61,1
78.00,81.79,1
67.00,82.36,1
130.00,82.90,1
58.00,83.75,1
87.00,84.38,1
61.00,84.49,1
68.00,84.07,1
65.00,83.13,1
36.00,81.60,1
72.00,79.46,1
42.00,77.04,1
49.00,74.35,1
111.00,71.91,1
90.00,70.67,1
60.00,70.30,1
129.00,70.50,1
60.00,71.44,1
54.00,72.31,1
52.00,72.39,1
40.00,71.68,1
61.00,70.36,1
155.00,69.66,1
52.00,70.32,1
94.00,71.42,1
61.00,72.38,1
52.00,72.93,1
47.00,72.68,1
38.00,71.60,1
39.00,69.75,1
69.00,67.55,1
50.00,65.52,1
65.00,63.74,1
42.00,62.12,1
38.00,60.38,1
66.00,58.58,1
40.00,57.01,1
84.00,55.84,1
49.00,55.22,1
36.00,54.73,1
89.00,54.29,1
48.00,54.32,1
100.00,54.91,1
129.00,56.65,1
68.00,59.63,1
58.00,62.60,1
117.00,65.27,1
54.00,68.00,1
91.00,70.44,1
86.00,72.63,1
94.00,74.84,1
39.00,76.64,1
43.00,77.23,1
91.00,76.91,1
104.00,76.85,1
38.00,77.05,1
60.00,76.63,1
64.00,75.62,1
115.00,74.85,1
36.00,74.52,1
80.00,74.02,1
39.00,73.13,1
40.00,71.66,1
44.00,69.53,1
42.00,67.01,1
72.00,64.53,1
81.00,62.72,1
39.00,61.53,1
60.00,60.40,1
42.00,59.21,1
37.00,57.84,1
73.00,56.45,1
100.00,55.87,1
59.00,56.33,1
154.00,57.89,1
32.00,60.48,1
62.00,62.77,1
53.00,64.15,1
111.00,65.39,1
66.00,66.99,1
54.00,68.45,1
80.00,69.39,1
39.00,69.90,1
55.00,69.73,1
38.00,68.85,1
83.00,67.66,1
36.00,66.51,1
124.00,65.74,1
58.00,65.81,1
36.00,65.98,1
37.00,65.30,1
54.00,63.98,1
39.00,62.38,1
72.00,60.79,1
59.00,59.56,1
52.00,58.67,1
46.00,57.78,1
60.00,56.87,1
37.00,55.98,1
75.00,55.18,1
84.00,54.99,1
38.00,55.36,1
53.00,55.57,1
69.00,55.66,1
36.00,55.76,1
49.00,55.56,1
53.00,55.12,1
67.00,54.79,1
53.00,54.72,1
40.00,54.62,1
86.00,54.54,1
52.00,54.87,1
68.00,55.43,1
66.00,56.12,1
127.00,57.51,1
37.00,59.61,1
75.00,61.51,1
38.00,62.79,1
78.00,63.57,1
48.00,64.06,1
36.00,64.04,1
81.00,63.57,1
80.00,63.40,1
39.00,63.50,1
128.00,63.83,1
72.00,65.02,1
41.00,66.36,1
79.00,67.11,1
44.00,67.47,1
37.00,67.19,1
70.00,66.30,1
92.00,65.66,1
51.00,65.52,1
48.00,65.25,1
48.00,64.49,1
69.00,63.55,1
38.00,62.58,1
79.00,61.62,1
60.00,60.98,1
93.00,60.89,1
36.00,61.15,1
43.00,61.04,1
46.00,60.32,1
127.00,59.94,1
39.00,60.48,1
46.00,60.96,1
68.00,60.96,1
66.00,60.99,1
72.00,61.24,1
86.00,61.87,1
57.00,62.78,1
112.00,63.98,1
105.00,65.99,1
53.00,68.43,1
72.00,70.37,1
133.00,72.24,1
46.00,74.45,1
78.00,76.17,1
37.00,76.93,1
129.00,77.28,1
73.00,78.03,1
73.00,78.90,1
70.00,79.33,1
37.00,79.10,1
44.00,77.87,1
81.00,76.05,1
85.00,74.55,1
81.00,73.70,1
76.00,73.29,1
39.00,72.80,1
47.00,71.68,1
105.00,70.43,1
91.00,70.03,1
35.00,70.07,1
69.00,69.69,1
124.00,69.55,1
118.00,70.74,1
47.00,72.68,1
103.00,74.35,1
74.00,75.87,1
103.00,77.44,1
48.00,78.78,1
64.00,79.37,1
94.00,79.42,1
39.00,79.24,1
67.00,78.45,1
97.00,77.49,1
74.00,76.97,1
38.00,76.36,1
44.00,74.99,1
60.00,72.99,1
49.00,70.82,1
46.00,68.50,1
55.00,66.10,1
43.00,63.73,1
46.00,61.37,1
37.00,58.97,1
64.00,56.71,1
77.00,55.12,1
61.00,54.40,1
47.00,54.09,1
190.00,54.92,1
53.00,57.72,1
59.00,60.88,1
55.00,63.14,1
80.00,64.82,1
80.00,66.40,1
62.00,67.90,1
69.00,69.05,1
51.00,69.71,1
39.00,69.64,1
144.00,69.54,1
81.00,70.55,1
49.00,71.92,1
82.00,72.74,1
35.00,73.00,1
44.00,72.40,1
133.00,71.67,1
87.00,72.03,1
70.00,73.05,1
65.00,73.82,1
83.00,74.30,1
73.00,74.72,1
51.00,74.89,1
37.00,74.29,1
72.00,72.99,1
42.00,71.44,1
77.00,69.82,1
76.00,68.53,1
94.00,67.96,1
118.00,68.44,1
87.00,70.01,1
51.00,71.72,1
38.00,72.53,1
81.00,72.46,1
146.00,72.87,1
208.00,75.57,1
90.00,80.54,1
56.00,85.32,1
72.00,88.41,1
42.00,89.83,1
162.00,90.56,1
77.00,91.78,1
92.00,93.04,1
98.00,93.89,1
70.00,94.40,1
44.00,93.98,1
46.00,92.24,1
111.00,89.91,1
44.00,87.74,1
48.00,85.24,1
123.00,82.68,1
54.00,80.89,1
42.00,79.10,1
80.00,76.93,1
44.00,74.76,1
70.00,72.61,1
53.00,70.53,1
38.00,68.39,1
79.00,66.21,1
44.00,64.36,1
109.00,63.10,1
47.00,62.61,1
36.00,62.14,1
69.00,61.28,1
43.00,60.39,1
56.00,59.47,1
50.00,58.49,1
170.00,58.51,1
44.00,60.17,1
36.00,61.87,1
126.00,63.12,1
85.00,65.06,1
48.00,67.24,1
39.00,68.48,1
65.00,68.73,1
168.00,69.43,1
127.00,72.07,1
68.00,75.75,1
64.00,78.74,1
99.00,80.84,1
152.00,83.19,1
89.00,86.28,1
108.00,89.40,1
80.00,92.00,1
155.00,94.42,1
78.00,97.01,1
84.00,99.04,1
47.00,99.73,1
157.00,99.73,1
151.00,100.67,1
106.00,102.75,1
239.00,105.92,1
69.00,110.23,1
63.00,113.49,1
106.00,114.70,1
68.00,114.65,1
114.00,113.76,1
62.00,112.27,1
54.00,109.83,1
32.00,105.99,1
248.00,102.60,1
334.00,103.77,1
119.00,109.84,1
109.00,116.46,1
100.00,121.25,1
67.00,123.98,1
306.00,126.42,1
85.00,130.41,1
92.00,133.83,1
126.00,135.27,1
36.00,135.02,1
78.00,132.64,1
530.00,132.45,1
41.00,137.71,1
404.00,145.54,1
158.00,155.05,1
41.00,163.44,1
87.00,167.09,1
43.00,166.44,1
110.00,162.74,1
191.00,158.29,1
76.00,154.38,1
63.00,149.65,1
206.00,144.47,1
753.00,146.01,1
51.00,156.89,1
76.00,167.67,1
301.00,174.45,1
127.00,180.50,1
51.00,184.12,1
95.00,183.42,1
40.00,179.13,1
286.00,173.76,1
155.00,170.26,1
102.00,167.75,1
508.00,167.48,1
99.00,171.79,1
76.00,175.86,1
37.00,175.48,1
60.00,171.14,1
65.00,163.99,1
69.00,155.27,1
270.00,147.41,1
612.00,146.74,1
175.00,155.15,1
44.00,164.74,1
219.00,170.53,1
78.00,173.93,1
84.00,174.55,1
131.00,172.31,1
106.00,168.64,1
71.00,163.69,1
333.00,159.31,1
424.00,160.35,1
73.00,166.26,1
56.00,170.42,1
204.00,171.13,1
78.00,170.48,1
101.00,168.17,1
140.00,164.32,1
143.00,160.30,1
151.00,156.71,1
39.00,152.80,1
169.00,148.07,1
50.00,143.11,1
366.00,139.84,1
143.00,140.41,1
132.00,142.68,1
138.00,144.20,1
73.00,144.57,1
44.00,142.76,1
58.00,138.48,1
150.00,133.19,1
142.00,128.91,1
46.00,125.36,1
322.00,123.11,1
65.00,123.60,1
92.00,124.39,1
247.00,124.97,1
127.00,127.21,1
72.00,129.44,1
215.00,130.88,1
45.00,132.16,1
80.00,131.94,1
40.00,129.46,1
93.00,125.36,1
204.00,121.66,1
105.00,119.84,1
49.00,118.32,1
248.00,116.98,1
109.00,117.51,1
69.00,118.45,1
55.00,117.74,1
60.00,115.28,1
138.00,112.18,1
362.00,111.89,1
46.00,115.51,1
65.00,118.73,1
118.00,119.66,1
91.00,119.65,1
71.00,118.76,1
177.00,117.54,1
150.00,117.50,1
127.00,118.56,1
163.00,120.14,1
200.00,122.79,1
149.00,126.64,1
108.00,130.38,1
225.00,133.80,1
59.00,137.07,1
119.00,138.83,1
134.00,139.12,1
55.00,138.39,1
494.00,139.37,1
178.00,145.69,1
43.00,153.07,1
90.00,156.54,1
181.00,157.30,1
74.00,157.02,1
92.00,155.10,1
73.00,151.20,1
163.00,146.56,1
235.00,143.42,1
163.00,142.91,1
64.00,142.96,1
98.00,141.49,1
327.00,140.54,1
119.00,142.37,1
54.00,144.17,1
70.00,143.22,1
88.00,140.07,1
64.00,135.60,1
96.00,130.28,1
196.00,125.67,1
53.00,122.49,1
64.00,119.04,1
80.00,114.64,1
39.00,109.68,1
98.00,104.40,1
44.00,99.23,1
80.00,94.22,1
63.00,89.51,1
153.00,85.94,1
100.00,84.26,1
71.00,83.72,1
52.00,82.96,1
61.00,81.59,1
142.00,80.46,1
98.00,80.61,1
47.00,81.24,1
127.00,81.68,1
98.00,82.61,1
69.00,83.83,1
153.00,85.20,1
186.00,88.06,1
106.00,92.53,1
74.00,96.76,1
87.00,99.60,1
82.00,101.19,1
44.00,101.48,1
49.00,100.16,1
149.00,98.25,1
75.00,97.05,1
139.00,96.55,1
51.00,96.31,1
65.00,95.47,1
87.00,93.89,1
40.00,91.89,1
52.00,89.12,1
39.00,85.58,1
72.00,81.73,1
127.00,78.67,1
64.00,76.97,1
55.00,75.69,1
104.00,74.52,1
72.00,73.93,1
47.00,73.48,1
95.00,72.87,1
97.00,72.77,1
142.00,73.84,1
100.00,76.20,1
90.00,79.05,1
78.00,81.56,1
207.00,84.51,1
68.00,88.60,1
39.00,91.94,1
55.00,93.08,1
60.00,92.59,1
66.00,91.15,1
103.00,89.48,1
49.00,87.90,1
83.00,86.15,1
44.00,84.11,1
213.00,82.95,1
146.00,84.47,1
67.00,87.57,1
81.00,90.01,1
235.00,92.72,1
41.00,96.63,1
136.00,100.15,1
41.00,102.43,1
41.00,102.88,1
68.00,101.40,1
106.00,99.24,1
48.00,97.03,1
40.00,94.14,1
37.00,90.18,1
219.00,86.94,1
148.00,86.77,1
261.00,90.27,1
54.00,95.94,1
56.00,100.58,1
117.00,103.10,1
65.00,104.53,1
72.00,104.79,1
45.00,103.59,1
206.00,102.30,1
48.00,102.12,1
48.00,101.49,1
35.00,99.11,1
49.00,95.39,1
175.00,91.95,1
52.00,90.04,1
116.00,88.87,1
71.00,87.99,1
84.00,87.23,1
136.00,86.88,1
61.00,87.20,1
38.00,87.00,1
63.00,85.62,1
164.00,84.45,1
66.00,84.56,1
146.00,85.50,1
179.00,87.84,1
50.00,91.30,1
97.00,94.02,1
80.00,95.65,1
58.00,96.32,1
112.00,96.18,1
56.00,95.69,1
94.00,94.78,1
101.00,93.81,1
144.00,93.61,1
94.00,94.36,1
94.00,95.33,1
55.00,95.69,1
127.00,95.54,1
64.00,95.35,1
97.00,94.96,1
104.00,94.51,1
89.00,94.31,1
40.00,93.69,1
60.00,92.01,1
101.00,89.85,1
104.00,88.26,1
108.00,87.59,1
42.00,87.18,1
78.00,86.21,1
74.00,84.87,1
45.00,83.29,1
72.00,81.28,1
225.00,80.48,1
116.00,82.52,1
36.00,85.42,1
50.00,86.76,1
92.00,86.79,1
130.00,86.94,1
132.00,88.18,1
39.00,89.79,1
72.00,90.36,1
44.00,89.68,1
121.00,88.52,1
74.00,87.69,1
81.00,87.05,1
106.00,86.51,1
66.00,86.21,1
82.00,85.78,1
87.00,85.24,1
147.00,85.34,1
130.00,86.82,1
46.00,88.82,1
130.00,90.32,1
64.00,91.52,1
112.00,92.47,1
44.00,92.88,1
73.00,92.36,1
104.00,91.34,1
77.00,90.51,1
61.00,89.52,1
46.00,87.82,1
74.00,85.50,1
75.00,83.13,1
44.00,80.80,1
62.00,78.21,1
70.00,75.61,1
134.00,73.93,1
36.00,73.30,1
106.00,72.98,1
93.00,73.14,1
94.00,74.04,1
70.00,75.18,1
44.00,75.86,1
146.00,76.38,1
36.00,77.33,1
86.00,78.00,1
150.00,78.89,1
202.00,81.85,1
126.00,87.03,1
103.00,92.71,1
67.00,97.25,1
75.00,100.06,1
139.00,101.83,1
240.00,104.73,1
109.00,109.51,1
81.00,113.97,1
190.00,117.40,1
60.00,120.43,1
102.00,122.15,1
55.00,122.05,1
273.00,121.94,1
97.00,123.62,1
77.00,125.31,1
42.00,124.85,1
68.00,122.26,1
190.00,119.28,1
105.00,117.64,1
48.00,116.21,1
49.00,113.32,1
97.00,109.38,1
54.00,105.22,1
63.00,100.78,1
39.00,95.88,1
144.00,91.33,1
78.00,88.21,1
98.00,86.22,1
175.00,85.57,1
123.00,86.97,1
97.00,89.45,1
122.00,92.01,1
68.00,94.29,1
36.00,95.32,1
104.00,94.96,1
62.00,94.08,1
133.00,93.28,1
54.00,92.74,1
47.00,91.65,1
50.00,89.40,1
70.00,86.52,1
36.00,83.34,1
51.00,79.74,1
71.00,76.10,1
86.00,73.12,1
63.00,70.98,1
37.00,69.06,1
72.00,67.04,1
198.00,66.45,1
58.00,68.17,1
131.00,70.90,1
48.00,73.68,1
50.00,75.65,1
72.00,76.46,1
103.00,76.99,1
58.00,77.63,1
112.00,78.29,1
66.00,79.08,1
96.00,79.88,1
100.00,80.80,1
36.00,81.58,1
39.00,81.20,1
317.00,81.80,1
84.00,85.85,1
86.00,90.81,1
109.00,94.60,1
118.00,97.84,1
80.00,100.57,1
55.00,102.07,1
84.00,102.08,1
60.00,101.04,1
87.00,99.31,1
50.00,97.05,1
107.00,94.54,1
37.00,92.00,1
59.00,89.00,1
96.00,85.86,1
116.00,83.67,1
190.00,83.55,1
80.00,85.48,1
49.00,87.42,1
88.00,88.21,1
162.00,89.08,1
94.00,91.01,1
122.00,93.37,1
51.00,95.29,1
60.00,95.93,1
60.00,95.16,1
83.00,93.61,1
86.00,91.92,1
60.00,90.19,1
84.00,88.29,1
66.00,86.36,1
82.00,84.49,1
217.00,83.98,1
89.00,85.80,1
44.00,87.99,1
40.00,88.53,1
58.00,87.51,1
135.00,86.24,1
37.00,85.45,1
73.00,84.35,1
91.00,82.98,1
86.00,82.02,1
46.00,81.13,1
97.00,80.04,1
169.00,79.96,1
111.00,81.78,1
85.00,84.40,1
74.00,86.53,1
132.00,88.30,1
135.00,90.65,1
66.00,93.31,1
67.00,95.01,1
93.00,95.59,1
74.00,95.57,1
111.00,95.31,1
135.00,95.52,1
39.00,96.00,1
76.00,95.58,1
41.00,94.00,1
107.00,91.86,1
54.00,89.76,1
51.00,87.39,1
95.00,84.76,1
40.00,82.28,1
67.00,79.68,1
134.00,77.62,1
112.00,77.18,1
40.00,77.58,1
144.00,78.11,1
55.00,79.08,1
38.00,79.62,1
81.00,79.16,1
210.00,79.58,1
260.00,83.55,1
94.00,90.61,1
99.00,97.51,1
176.00,103.39,1
52.00,108.60,1
73.00,111.88,1
102.00,113.14,1
87.00,113.37,1
164.00,113.43,1
172.00,114.59,1
128.00,116.94,1
70.00,118.97,1
71.00,119.38,1
99.00,118.31,1
144.00,116.99,1
60.00,115.82,1
40.00,113.61,1
138.00,110.48,1
216.00,108.84,1
128.00,109.80,1
58.00,111.28,1
67.00,111.30,1
127.00,110.26,1
133.00,109.58,1
47.00,109.08,1
38.00,107.28,1
55.00,103.80,1
99.00,99.77,1
37.00,95.80,1
102.00,91.88,1
44.00,88.23,1
77.00,84.74,1
70.00,81.50,1
75.00,78.76,1
124.00,76.92,1
117.00,76.62,1
62.00,77.33,1
101.00,78.14,1
64.00,78.88,1
100.00,79.56,1
131.00,80.71,1
43.00,82.26,1
53.00,82.94,1
59.00,82.43,1
48.00,81.12,1
47.00,79.10,1
60.00,76.62,1
36.00,73.88,1
82.00,71.12,1
170.00,69.73,1
46.00,70.25,1
90.00,71.22,1
78.00,72.12,1
120.00,73.44,1
61.00,75.14,1
158.00,77.27,1
127.00,80.50,1
182.00,85.21,1
84.00,90.75,1
130.00,95.93,1
73.00,100.14,1
236.00,104.26,1
65.00,109.00,1
59.00,112.51,1
130.00,114.04,1
56.00,114.52,1
120.00,114.09,1
42.00,112.77,1
69.00,110.30,1
55.00,106.72,1
46.00,102.33,1
120.00,97.81,1
69.00,94.08,1
176.00,91.71,1
58.00,90.84,1
135.00,90.69,1
54.00,90.74,1
145.00,90.99,1
85.00,91.72,1
238.00,93.82,1
72.00,97.54,1
129.00,101.36,1
123.00,104.65,1
75.00,107.42,1
150.00,109.46,1
78.00,111.14,1
87.00,111.99,1
52.00,111.45,1
114.00,109.85,1
48.00,107.72,1
128.00,105.33,1
47.00,102.93,1
42.00,99.89,1
60.00,95.84,1
127.00,91.98,1
90.00,89.35,1
41.00,87.27,1
76.00,84.85,1
160.00,83.13,1
97.00,83.15,1
88.00,84.06,1
53.00,84.67,1
101.00,84.77,1
119.00,85.13,1
60.00,85.89,1
104.00,86.46,1
61.00,86.75,1
126.00,87.01,1
109.00,87.83,1
90.00,89.14,1
217.00,91.38,1
164.00,95.78,1
62.00,100.99,1
53.00,104.41,1
58.00,105.41,1
245.00,106.10,1
48.00,108.04,1
109.00,109.65,1
75.00,110.07,1
171.00,110.30,1
43.00,110.63,1
138.00,110.49,1
61.00,109.87,1
70.00,108.47,1
236.00,107.44,1
150.00,108.82,1
177.00,112.19,1
90.00,115.96,1
81.00,118.61,1
204.00,120.48,1
84.00,122.65,1
41.00,123.65,1
51.00,122.11,1
171.00,119.48,1
36.00,117.08,1
168.00,114.78,1
109.00,113.21,1
160.00,112.80,1
86.00,113.01,1
110.00,113.09,1
152.00,113.20,1
87.00,113.68,1
97.00,113.78,1
257.00,114.56,1
274.00,118.70,1
183.00,126.12,1
112.00,133.82,1
62.00,139.13,1
80.00,141.18,1
96.00,140.67,1
59.00,138.38,1
88.00,134.56,1
174.00,130.59,1
110.00,127.78,1
78.00,125.32,1
93.00,122.27,1
186.00,119.63,1
156.00,118.80,1
96.00,119.17,1
73.00,118.98,1
47.00,117.28,1
126.00,114.53,1
167.00,112.51,1
85.00,111.77,1
100.00,111.12,1
68.00,109.85,1
101.00,108.05,1
250.00,107.40,1
38.00,108.67,1
282.00,111.07,1
58.00,114.69,1
217.00,118.74,1
123.00,122.98,1
182.00,127.47,1
136.00,131.82,1
189.00,136.09,1
36.00,139.38,1
160.00,140.76,1
52.00,140.49,1
183.00,139.33,1
43.00,137.64,1
263.00,136.20,1
65.00,135.85,1
130.00,135.41,1
36.00,133.59,1
186.00,130.99,1
70.00,128.64,1
94.00,126.07,1
74.00,122.70,1
148.00,119.29,1
46.00,116.20,1
251.00,114.07,1
154.00,114.49,1
38.00,115.96,1
210.00,116.88,1
74.00,118.11,1
157.00,119.40,1
130.00,120.72,1
91.00,121.93,1
62.00,121.91,1
144.00,120.82,1
211.00,120.63,1
342.00,123.99,1
183.00,131.44,1
196.00,140.23,1
135.00,148.15,1
74.00,153.72,1
58.00,155.67,1
69.00,154.12,1
35.00,149.74,1
72.00,143.16,1
145.00,136.09,1
72.00,129.81,1
91.00,123.88,1
119.00,118.37,1
34.00,113.26,1
75.00,107.80,1
97.00,102.40,1
266.00,99.34,1
57.00,99.44,1
44.00,99.74,1
66.00,98.39,1
122.00,96.57,1
132.00,95.65,1
73.00,95.58,1
183.00,96.18,1
35.00,97.38,1
112.00,98.09,1
168.00,98.92,1
64.00,100.52,1
126.00,101.90,1
187.00,103.74,1
142.00,107.04,1
247.00,111.95,1
60.00,117.72,1
115.00,122.19,1
53.00,124.38,1
37.00,124.07,1
270.00,123.00,1
51.00,123.31,1
161.00,123.87,1
48.00,123.68,1
46.00,121.95,1
436.00,121.37,1
62.00,124.99,1
68.00,128.81,1
182.00,130.58,1
156.00,132.47,1
143.00,134.80,1
220.00,137.60,1
76.00,140.62,1
42.00,141.69,1
91.00,139.84,1
151.00,136.91,1
177.00,134.87,1
88.00,133.77,1
56.00,131.90,1
56.00,128.21,1
86.00,123.25,1
123.00,118.30,1
68.00,113.93,1
129.00,110.05,1
44.00,106.52,1
61.00,102.61,1
79.00,98.27,1
69.00,94.11,1
48.00,90.03,1
48.00,85.71,1
35.00,81.08,1
60.00,76.33,1
88.00,72.22,1
143.00,69.84,1
126.00,69.88,1
119.00,71.86,1
240.00,75.99,1
66.00,82.12,1
74.00,87.75,1
54.00,91.35,1
199.00,94.21,1
48.00,97.42,1
44.00,99.43,1
55.00,99.26,1
39.00,97.42,1
189.00,95.46,1
72.00,94.85,1
171.00,95.43,1
129.00,97.20,1
84.00,99.58,1
45.00,100.92,1
60.00,100.53,1
44.00,98.63,1
52.00,95.58,1
94.00,92.10,1
55.00,88.85,1
116.00,86.09,1
89.00,84.26,1
36.00,82.82,1
110.00,81.22,1
64.00,79.96,1
38.00,78.65,1
40.00,76.53,1
96.00,74.16,1
150.00,73.08,1
58.00,73.59,1
127.00,74.80,1
36.00,76.12,1
46.00,76.64,1
104.00,76.41,1
42.00,76.16,1
88.00,75.73,1
77.00,75.34,1
179.00,76.03,1
107.00,78.52,1
128.00,82.13,1
176.00,86.60,1
60.00,91.63,1
79.00,95.52,1
42.00,97.45,1
133.00,98.14,1
105.00,98.83,1
56.00,99.38,1
194.00,99.91,1
72.00,101.29,1
130.00,102.85,1
71.00,103.96,1
67.00,104.16,1
65.00,103.11,1
91.00,101.29,1
71.00,99.18,1
72.00,96.82,1
102.00,94.45,1
68.00,92.37,1
66.00,90.24,1
123.00,88.31,1
96.00,87.30,1
66.00,86.80,1
120.00,86.43,1
127.00,86.87,1
52.00,87.87,1
118.00,88.60,1
63.00,89.13,1
100.00,89.43,1
132.00,89.96,1
46.00,90.79,1
67.00,90.82,1
95.00,90.12,1
39.00,89.04,1
80.00,87.37,1
64.00,85.38,1
127.00,83.82,1
105.00,83.36,1
59.00,83.54,1
38.00,83.06,1
45.00,81.44,1
62.00,79.08,1
93.00,76.83,1
47.00,75.02,1
46.00,73.09,1
84.00,71.04,1
62.00,69.41,1
72.00,68.20,1
60.00,67.23,1
72.00,66.45,1
82.00,66.02,1
67.00,66.03,1
101.00,66.47,1
80.00,67.50,1
45.00,68.58,1
64.00,69.07,1
40.00,68.91,1
60.00,68.19,1
42.00,67.06,1
53.00,65.60,1
75.00,64.17,1
