95,116.28,1
148,118.22,1
415,122.41,1
38,129.87,1
36,135.6,1
190,137.99,1
134,139.79,1
36,140.64,1
93,139.14,1
114,136.21,1
391,135.33,1
273,139.77,1
382,149.31,1
321,162.77,1
454,179.8,1
271,199.13,1
90,216.2,1
341,228.62,1
36,237.22,1
628,244.52,1
56,253.09,1
68,257.95,1
127,255.87,1
197,250.17,1
375,244.98,1
78,241.39,1
603,240.02,1
576,246.31,1
369,260.46,1
75,274.05,1
97,280.51,1
292,280.86,1
439,281.11,1
96,282.45,1
58,279.89,1
345,273.36,1
408,268.89,1
60,266.67,1
115,261.52,1
438,255.01,1
65,250.34,1
251,245.3,1
377,241.16,1
528,242.64,1
59,248.02,1
61,249.79,1
720,250.34,1
714,260.65,1
573,282.21,1
478,308.47,1
309,333.38,1
278,352.68,1
124,363.93,1
39,365.26,1
639,361.23,1
712,362.91,1
470,372.98,1
316,384.54,1
467,393.59,1
314,400.41,1
556,405.99,1
199,410.26,1
586,412.67,1
987,420.26,1
210,434.87,1
217,445.06,1
70,444.15,1
691,437.5,1
672,435.47,1
638,441.48,1
225,449.37,1
171,450.99,1
1023,450.47,1
312,455.97,1
124,459.73,1
89,452.89,1
150,436.55,1
207,414.73,1
564,393.79,1
92,376.64,1
245,359.4,1
240,341.26,1
566,326.83,1
617,321.4,1
201,323.07,1
234,324.01,1
302,322.07,1
723,322.8,1
857,334.04,1
340,354.31,1
65,371.26,1
304,378.34,1
102,377.74,1
219,370.93,1
457,361.79,1
331,354.96,1
162,348.63,1
59,338.26,1
43,321.98,1
606,305.21,1
733,298.71,1
45,301.3,1
512,304.33,1
727,311.34,1
564,327.18,1
306,346.18,1
335,361.68,1
118,370.61,1
297,372.41,1
59,367.95,1
155,357.14,1
34,340.56,1
781,325.01,1
126,316.59,1
214,310.02,1
201,301.05,1
80,290.08,1
275,277.46,1
487,267.91,1
65,262.61,1
208,256.74,1
261,249.96,1
194,244.17,1
204,238.76,1
239,233.71,1
571,232.44,1
488,239.11,1
368,252.01,1
51,264,1
64,268.91,1
117,266.29,1
126,259.07,1
205,249.82,1
150,240.22,1
184,230.7,1
650,225.45,1
34,226.48,1
468,229.53,1
56,232.74,1
383,235.44,1
226,238.36,1
155,240.88,1
66,239.87,1
415,237.01,1
706,240.14,1
266,251.78,1
436,266.07,1
257,279.64,1
318,291.2,1
419,301.2,1
660,313.79,1
157,328.61,1
124,338.16,1
296,340.13,1
391,339.57,1
324,339.5,1
196,338.44,1
173,333.87,1
298,326.34,1
202,317.87,1
242,308.75,1
488,301.31,1
43,296.09,1
402,290.43,1
633,288.71,1
608,296.51,1
222,309.65,1
410,321.47,1
150,329.71,1
248,333.05,1
57,330.48,1
696,326.37,1
212,326.15,1
300,326.91,1
69,324,1
791,321.24,1
96,322.9,1
341,324.42,1
546,325.79,1
145,329.09,1
404,330.98,1
117,330.34,1
78,324.95,1
54,312.92,1
798,301.57,1
108,297.43,1
126,293.87,1
496,288.56,1
64,284.73,1
291,280,1
127,273.57,1
274,266.43,1
305,260.3,1
99,255.16,1
89,247.73,1
69,236.83,1
451,226.34,1
595,223.7,1
197,229.38,1
56,234.74,1
434,237.22,1
310,241.44,1
109,246.25,1
493,250.21,1
149,255.21,1
146,258.33,1
424,259.35,1
331,262.45,1
145,266.28,1
198,267.19,1
44,263.95,1
227,257.07,1
472,251.36,1
238,250.28,1
87,249.74,1
217,246.32,1
87,240.66,1
304,234.17,1
486,231.21,1
268,234,1
454,240.51,1
515,251.39,1
340,266.33,1
53,279.19,1
266,285.69,1
73,286.7,1
153,282.75,1
74,274.21,1
184,262.73,1
94,249.79,1
445,238.46,1
123,231.07,1
258,225.63,1
46,219.73,1
106,211.78,1
210,202.65,1
94,194.15,1
195,186.18,1
54,178.43,1
192,170.75,1
94,163.67,1
428,159.52,1
262,161.02,1
42,165,1
412,168.83,1
115,174.24,1
54,178.35,1
217,179.26,1
119,179.06,1
429,180.27,1
270,185.47,1
61,191.78,1
381,196.63,1
40,200.95,1
305,203.93,1
223,206.67,1
71,208.72,1
85,207.15,1
40,201.51,1
169,193.37,1
167,185.32,1
173,178.65,1
96,172.71,1
144,166.71,1
57,160.3,1
395,155.51,1
104,154.54,1
158,154.97,1
34,153.94,1
196,151.58,1
209,150.02,1
73,149.54,1
56,147.65,1
308,145.41,1
88,145.16,1
251,146.22,1
99,147.87,1
78,148.61,1
91,147.16,1
676,148.86,1
73,157.66,1
79,166.56,1
243,171.79,1
334,177.49,1
117,184.42,1
283,190.62,1
134,195.79,1
112,198.74,1
553,201.94,1
318,210.29,1
571,224.19,1
64,239.87,1
115,250.63,1
32,253.33,1
221,250.4,1
52,244.29,1
196,235.94,1
42,225.85,1
180,214.57,1
505,206.37,1
661,208.49,1
304,220.64,1
353,235.9,1
74,248.68,1
351,257.24,1
442,265.31,1
103,273.7,1
78,277.11,1
630,277.92,1
34,280.66,1
249,281.32,1
629,282.11,1
64,286.3,1
38,286.66,1
423,282.18,1
366,279.76,1
203,279.87,1
73,277.73,1
176,271.34,1
117,262.06,1
202,251.45,1
50,239.83,1
459,229.36,1
111,222.7,1
266,218.08,1
393,215.9,1
454,219.48,1
181,227.12,1
118,233.15,1
325,236.2,1
75,237.69,1
298,237.38,1
280,237.15,1
76,236.86,1
430,235.94,1
130,236.24,1
640,239.59,1
252,247.88,1
42,255.78,1
285,258.53,1
166,258.55,1
101,256,1
427,252.19,1
199,250.47,1
735,253.68,1
257,263.54,1
37,272.93,1
276,276.15,1
347,277.23,1
203,278.57,1
43,277.01,1
36,269.44,1
470,259.65,1
127,252.72,1
213,246.84,1
182,240.31,1
56,232.66,1
198,223.27,1
97,213.32,1
475,205.85,1
254,204.04,1
299,206.47,1
192,210.1,1
71,212.15,1
385,212.67,1
36,213.28,1
127,211.54,1
230,207.57,1
37,202.87,1
72,195.75,1
252,187.49,1
112,180.69,1
409,176.83,1
68,176.25,1
244,176.5,1
438,179.01,1
312,186.75,1
228,197.07,1
371,207.77,1
77,217.68,1
99,223.24,1
224,224.27,1
614,227.2,1
72,234.44,1
125,239.51,1
171,239.59,1
608,240.6,1
52,245.27,1
191,248.19,1
97,246.66,1
756,246.75,1
339,254.63,1
89,264.74,1
629,273.14,1
292,283.98,1
496,296.89,1
55,307.96,1
79,311.92,1
276,308.78,1
169,302.86,1
197,295.09,1
48,284.55,1
318,272.24,1
236,261.49,1
170,252.6,1
116,243.25,1
133,232.56,1
301,222.41,1
496,217.46,1
307,219.63,1
159,224.45,1
127,226.94,1
551,229.3,1
349,236.51,1
888,251.68,1
176,273.76,1
34,292.03,1
141,299.6,1
74,298.79,1
126,291.82,1
93,280.44,1
381,268.28,1
105,258.1,1
65,247.28,1
199,234.52,1
173,222.35,1
108,211.16,1
207,200.61,1
53,190.73,1
186,181.05,1
197,172.85,1
137,166.81,1
118,161.58,1
33,155.63,1
115,148.47,1
218,142.1,1
46,137.48,1
44,132.36,1
340,128.02,1
64,126.95,1
145,126.99,1
34,126.04,1
40,123.28,1
57,118.55,1
85,113.04,1
233,108.9,1
56,107.14,1
47,105.5,1
206,103.72,1
336,105.45,1
80,111.12,1
255,117.94,1
166,125.44,1
321,134.45,1
158,144.81,1
68,153.73,1
236,159.84,1
528,167.98,1
150,180.44,1
56,191.24,1
60,195.89,1
173,195.9,1
120,193.81,1
269,191.47,1
44,189.16,1
105,185.01,1
340,180.66,1
91,178.59,1
119,176.42,1
108,172.57,1
48,167.14,1
61,159.72,1
128,151.3,1
56,143,1
120,134.96,1
204,128.5,1
176,125.13,1
346,125.81,1
135,130.39,1
47,135.03,1
235,137.95,1
110,140.78,1
183,143.54,1
211,146.57,1
161,150.34,1
116,153.6,1
74,154.88,1
179,154.42,1
459,156.29,1
120,162.54,1
42,168.03,1
198,170.03,1
50,169.99,1
139,167.99,1
177,165.1,1
156,162.81,1
200,161.36,1
30,159.78,1
282,157.79,1
222,157.78,1
130,159.59,1
183,161.19,1
172,162.6,1
88,163.38,1
64,162.02,1
114,158.39,1
182,154.32,1
92,150.84,1
142,147.42,1
70,143.64,1
57,138.85,1
36,132.47,1
36,124.65,1
98,116.32,1
32,108.33,1
46,100.42,1
176,93.56,1
232,90.41,1
33,90.54,1
57,90.58,1
37,89.15,1
119,87.2,1
160,86.42,1
42,86.92,1
38,86.76,1
102,85.61,1
159,85.21,1
243,87.52,1
305,94.15,1
183,104.57,1
109,115.44,1
88,123.95,1
103,129.56,1
50,132.42,1
244,133.93,1
203,136.74,1
41,140.06,1
39,140.66,1
320,140.12,1
164,142.01,1
212,145.84,1
77,149.43,1
128,151.32,1
198,152.15,1
344,154.89,1
41,159.49,1
171,162.65,1
34,163.17,1
91,160.94,1
250,157.8,1
518,159.31,1
38,166.05,1
33,170.87,1
33,170.12,1
210,166.53,1
34,162.34,1
61,156.62,1
235,150.35,1
34,145.28,1
115,140.09,1
83,134.4,1
127,129.02,1
176,124.89,1
250,123.61,1
142,125.26,1
230,128.66,1
218,133.73,1
230,140.53,1
89,147.37,1
128,152.14,1
98,154.43,1
156,155.05,1
484,157.75,1
92,164.56,1
50,170.23,1
46,170.97,1
78,167.74,1
157,162.74,1
88,157.55,1
133,152.26,1
35,146.45,1
33,139.17,1
36,130.21,1
135,121.11,1
90,113.46,1
304,108.97,1
258,109.8,1
58,113.98,1
56,116.95,1
116,117.74,1
166,118.21,1
144,119.53,1
120,121.32,1
43,122.21,1
36,120.88,1
146,118.07,1
178,116.2,1
123,116.08,1
88,116.37,1
134,116.33,1
182,116.89,1
64,118.09,1
117,118.63,1
59,118.09,1
66,116.28,1
89,113.4,1
129,110.55,1
156,108.89,1
41,107.99,1
114,106.66,1
85,105.05,1
50,103.13,1
91,100.56,1
176,98.64,1
366,100.54,1
46,106.47,1
219,113.03,1
237,120.21,1
100,128.23,1
54,134.15,1
247,138,1
366,143.86,1
373,154.67,1
169,168.28,1
174,180.37,1
78,188.56,1
312,193.88,1
102,198.17,1
268,201.36,1
138,203.56,1
245,205.02,1
42,204.93,1
170,202.24,1
341,199.49,1
409,201.17,1
338,208.06,1
42,215.72,1
335,220.66,1
370,226.05,1
402,234.81,1
152,244.63,1
595,254.72,1
242,267.02,1
321,279.09,1
250,288.42,1
94,293.59,1
142,292.69,1
218,287.31,1
147,279.78,1
172,270.5,1
123,259.64,1
234,248.23,1
244,238.25,1
32,229.03,1
83,217.74,1
169,205.05,1
120,193.11,1
136,182.17,1
96,171.88,1
231,162.99,1
131,156.53,1
40,150.84,1
144,144.49,1
283,139.92,1
105,138.52,1
87,137.65,1
32,135.05,1
60,130.4,1
89,124.57,1
235,119.92,1
159,118.31,1
32,117.99,1
68,116.28,1
83,113.23,1
42,109.47,1
137,105.52,1
61,102.14,1
62,98.86,1
223,96.46,1
33,95.89,1
268,96.87,1
100,99.89,1
277,105.01,1
248,112.83,1
170,122.77,1
110,132.03,1
140,139.1,1
101,143.95,1
44,146.1,1
172,145.93,1
41,144.54,1
253,142.9,1
63,141.97,1
178,141.17,1
77,140,1
195,138.85,1
61,137.74,1
36,135.29,1
59,130.57,1
90,124.71,1
43,118.49,1
179,112.78,1
190,109.57,1
222,109.92,1
151,112.99,1
49,116.31,1
54,117.53,1
276,118.15,1
123,120.72,1
48,123.38,1
177,124.62,1
200,126.4,1
74,128.94,1
60,130,1
259,130.26,1
40,131.25,1
51,130.9,1
47,127.92,1
228,124.52,1
60,122.46,1
36,120.03,1
59,115.83,1
127,111.15,1
48,106.9,1
66,102.54,1
109,98.23,1
285,96.38,1
237,99.28,1
397,107.64,1
38,119.21,1
169,129.37,1
127,136.99,1
51,142.2,1
90,144.13,1
138,143.92,1
113,142.97,1
87,141.26,1
127,138.74,1
270,137.27,1
33,137.38,1
195,137.31,1
45,136.6,1
39,134.25,1
90,129.83,1
161,125.32,1
33,121.43,1
32,116.62,1
39,110.27,1
89,103.47,1
551,101.17,1
290,108.15,1
104,119.98,1
55,129.59,1
73,135.04,1
73,137.01,1
181,137.31,1
233,138.51,1
244,142.16,1
64,146.69,1
166,149.75,1
107,151.3,1
127,151.69,1
229,151.85,1
38,152.09,1
133,150.89,1
94,148.31,1
40,144.45,1
79,138.87,1
55,132.17,1
159,125.6,1
172,120.94,1
107,118.42,1
35,116.06,1
339,114.69,1
116,116.66,1
222,120.81,1
54,125.04,1
50,127.28,1
36,126.41,1
105,123.48,1
40,119.55,1
264,116.32,1
54,115.14,1
226,115.35,1
102,116.7,1
196,119.02,1
196,122.54,1
186,127.51,1
59,132.25,1
96,134.82,1
114,135.35,1
55,134.44,1
351,134.05,1
137,136.66,1
68,139.83,1
187,141.44,1
54,142.09,1
44,140.73,1
41,136.61,1
420,133.47,1
284,136.23,1
70,142.5,1
105,146.94,1
56,148.28,1
44,146.6,1
50,142.12,1
147,136.45,1
95,131.27,1
79,126.43,1
306,123.18,1
313,124.88,1
47,130.07,1
61,133.61,1
114,134.26,1
48,133.13,1
105,130.5,1
195,127.94,1
104,126.69,1
166,126.25,1
110,126.25,1
144,126.45,1
93,126.48,1
56,125.53,1
33,122.66,1
145,118.66,1
57,114.84,1
47,110.68,1
209,106.83,1
42,104.55,1
177,103.23,1
88,102.81,1
227,103.86,1
114,106.61,1
104,109.78,1
218,113.02,1
84,116.88,1
235,121.07,1
53,125.26,1
49,127.55,1
38,126.69,1
37,123.23,1
33,117.77,1
114,111.54,1
189,106.83,1
155,105.02,1
138,105.41,1
180,107.24,1
92,109.94,1
142,112.54,1
53,114.35,1
51,114.44,1
46,112.43,1
403,111.68,1
328,117.07,1
319,128.55,1
307,143.47,1
107,158.61,1
142,170.38,1
51,177.4,1
230,180.84,1
37,182.03,1
135,180.59,1
134,177.21,1
171,173.53,1
211,170.67,1
143,168.93,1
696,171.79,1
91,181.64,1
119,191.35,1
59,195.67,1
32,194.8,1
230,190.68,1
36,185.62,1
238,180.12,1
104,175.08,1
100,169.99,1
159,164.35,1
225,159.94,1
66,156.87,1
36,152.62,1
165,146.89,1
81,141.38,1
329,137.93,1
65,137.35,1
196,137.76,1
208,138.99,1
245,142.38,1
238,147.95,1
154,154.5,1
82,159.57,1
429,164.31,1
35,170.5,1
233,175.63,1
39,178.21,1
200,178.54,1
216,178.31,1
101,178.3,1
139,177.02,1
69,173.93,1
335,170.9,1
174,170.45,1
408,173.44,1
230,179.99,1
145,187.36,1
345,193.92,1
160,200.7,1
127,205.77,1
50,206.72,1
90,203.28,1
47,196.31,1
298,188.53,1
51,182.12,1
59,175.05,1
412,168.69,1
40,165.85,1
52,162.72,1
67,156.76,1
108,149.52,1
132,142.52,1
185,137.07,1
244,134.53,1
66,134.23,1
35,132.98,1
50,129.2,1
76,123.83,1
54,117.79,1
98,111.65,1
92,106.12,1
229,102.62,1
44,101.45,1
122,100.82,1
125,100.43,1
131,100.95,1
228,103.07,1
333,108.8,1
84,117.58,1
37,124.83,1
99,128.36,1
36,129.09,1
124,127.84,1
117,126,1
237,125.33,1
35,125.84,1
40,124.95,1
296,123.55,1
55,124.05,1
250,125.73,1
95,128.21,1
36,129.79,1
326,130.78,1
98,133.68,1
52,136.2,1
257,137.43,1
152,139.75,1
35,141.81,1
212,142.3,1
77,142.4,1
212,142.54,1
160,143.4,1
37,144.01,1
85,142.39,1
158,139.49,1
204,137.67,1
40,136.73,1
110,134.77,1
297,133.43,1
76,134.4,1
61,134.92,1
73,133.14,1
155,130.39,1
115,128.11,1
125,126.35,1
115,124.8,1
153,123.69,1
113,123.17,1
35,122.13,1
90,119.59,1
69,116.08,1
80,112.13,1
383,110.46,1
83,113.14,1
37,116.27,1
91,116.9,1
121,116.34,1
81,115.49,1
75,114,1
180,112.5,1
83,111.91,1
151,111.86,1
154,112.57,1
95,113.97,1
52,114.54,1
364,115.83,1
86,120.09,1
115,124.73,1
43,127.13,1
32,126.71,1
43,123.48,1
212,119.68,1
167,118.04,1
46,117.78,1
35,116.13,1
129,113.09,1
235,111.4,1
350,114.19,1
264,122.36,1
55,132.19,1
111,139.32,1
136,143.57,1
82,145.92,1
39,145.72,1
189,143.67,1
177,142.27,1
147,142.18,1
113,142.24,1
188,142.23,1
53,141.99,1
220,141.38,1
43,140.67,1
115,138.97,1
403,138.66,1
38,141.72,1
61,143.83,1
222,143.87,1
65,143.85,1
60,142.51,1
522,142.6,1
146,148.18,1
73,154.84,1
37,157.55,1
37,156,1
185,152.15,1
62,148.09,1
406,145.99,1
94,147.51,1
244,150.68,1
127,153.96,1
160,156.8,1
345,160.31,1
155,165.94,1
48,170.55,1
174,171.97,1
101,171.51,1
520,172.86,1
118,178.5,1
154,184.4,1
168,187.72,1
338,190.88,1
287,196.28,1
49,201.83,1
60,203.11,1
46,199.24,1
117,192,1
226,184.36,1
68,177.72,1
47,170.21,1
57,160.74,1
230,151.47,1
138,144.82,1
470,142.96,1
38,145.99,1
319,150.57,1
273,156.88,1
32,163.87,1
119,167.58,1
445,170.77,1
113,176.77,1
191,182.59,1
344,187.91,1
283,195.3,1
226,203.81,1
179,211.09,1
107,215.39,1
316,217.44,1
79,218.57,1
34,216.46,1
272,211.23,1
615,210.06,1
143,215.71,1
439,223.9,1
153,232.4,1
328,240.04,1
373,247.66,1
171,255.53,1
138,260.14,1
120,259.82,1
180,255.66,1
80,248.73,1
44,238.49,1
126,225.32,1
59,210.85,1
68,195.52,1
112,179.96,1
258,166.73,1
32,156.6,1
189,147.95,1
55,140.32,1
46,132.76,1
45,124.24,1
200,116.44,1
116,111.27,1
103,108.07,1
32,105,1
222,102.4,1
262,103.1,1
139,107.48,1
155,112.96,1
111,118.02,1
229,122.96,1
245,129.35,1
172,137.24,1
186,145.1,1
46,151.16,1
38,153.43,1
124,152.16,1
187,150.1,1
55,148.14,1
551,148.72,1
237,155.65,1
211,165.96,1
40,174.09,1
94,177.76,1
117,177.58,1
102,175.17,1
77,170.86,1
128,165.14,1
48,158.52,1
104,150.99,1
83,143.09,1
80,135.27,1
112,127.8,1
76,121.04,1
93,114.86,1
115,109.48,1
136,105.55,1
216,104.04,1
172,105.51,1
186,109.27,1
235,114.92,1
61,121.31,1
40,125.47,1
31,125.96,1
51,123.49,1
249,120.7,1
162,120.42,1
134,122.04,1
55,123.25,1
140,123.29,1
62,122.54,1
177,121.57,1
281,122.55,1
251,127.35,1
60,133.72,1
50,137.64,1
124,138.47,1
94,137.77,1
113,136.21,1
55,133.65,1
107,130.03,1
163,126.57,1
272,125.54,1
197,128.03,1
218,132.95,1
33,137.78,1
61,139.8,1
33,138.31,1
83,134.38,1
140,129.78,1
56,125.46,1
31,120.39,1
32,113.83,1
94,106.67,1
45,99.9,1
32,93.26,1
59,86.53,1
34,80.08,1
46,73.97,1
38,68.25,1
170,64.05,1
192,63.39,1
130,66.41,1
283,72.51,1
357,83.37,1
39,97.34,1
84,109.05,1
117,117.05,1
124,122.94,1
249,128.41,1
70,134.03,1
39,137.43,1
124,137.77,1
102,136.7,1
136,135.22,1
107,133.6,1
41,131.2,1
241,128.61,1
382,129.81,1
309,137.19,1
102,147.3,1
97,155.16,1
167,159.88,1
126,162.8,1
68,163.69,1
61,161.68,1
571,161.06,1
150,166.36,1
76,172.68,1
213,176.07,1
170,178.39,1
162,180.17,1
450,183.34,1
241,190.39,1
173,198.56,1
127,204.13,1
407,208.52,1
337,215.47,1
185,224.06,1
34,229.35,1
58,228.46,1
217,223.34,1
35,216.46,1
110,207.4,1
360,198.76,1
68,193,1
491,190.36,1
120,191.66,1
50,192.78,1
281,191.43,1
141,190.3,1
35,188.11,1
152,183.29,1
304,178.87,1
135,176.98,1
83,175.12,1
167,171.81,1
248,169.11,1
224,168.76,1
83,169.34,1
124,168.45,1
94,165.75,1
325,163.49,1
103,163.32,1
229,164.07,1
210,165.57,1
164,167.94,1
66,169.19,1
131,168.12,1
131,165.57,1
107,162.3,1
38,157.65,1
98,151.27,1
367,146.38,1
86,145.35,1
37,144.52,1
200,142.12,1
301,141.67,1
56,143.68,1
64,144.42,1
109,142.67,1
115,139.93,1
167,137.4,1
154,135.91,1
127,135.24,1
104,134.5,1
209,133.98,1
95,134.25,1
35,133.62,1
212,131.86,1
71,130.54,1
78,128.8,1
43,125.48,1
44,120.57,1
325,116.61,1
310,117.97,1
71,123.44,1
133,128.34,1
488,134.61,1
77,144.65,1
190,154.37,1
105,161.31,1
407,167.92,1
132,176.03,1
493,185.95,1
86,197.25,1
139,205.98,1
386,212.04,1
134,218.25,1
62,221.71,1
384,222.34,1
97,223.12,1
140,222.3,1
278,219.77,1
252,218.4,1
57,217.08,1
545,216.42,1
323,220.83,1
267,228.85,1
55,234.94,1
227,236.84,1
45,235.09,1
45,229.07,1
317,220.72,1
939,220.33,1
192,232.34,1
75,245.29,1
291,252.33,1
40,255.16,1
492,256.03,1
533,261.04,1
297,271.45,1
80,280.36,1
119,282.72,1
344,280.71,1
82,277.28,1
50,270.18,1
31,257.72,1
340,243.52,1
139,231.69,1
441,223.76,1
151,219.98,1
216,217.73,1
103,214.52,1
128,209.57,1
42,202.23,1
314,194.35,1
152,188.7,1
151,184.51,1
128,180.06,1
322,176.74,1
154,175.99,1
260,176.94,1
136,178.49,1
165,179.53,1
103,179.11,1
183,177.47,1
80,174.91,1
138,171.19,1
167,167.04,1
52,162.7,1
75,156.92,1
106,149.92,1
34,142.32,1
53,133.75,1
78,124.65,1
53,115.8,1
47,107.16,1
160,99.6,1
489,97.55,1
89,102.79,1
60,109.37,1
61,113.01,1
245,115.59,1
217,120.03,1
227,126.87,1
389,136.58,1
113,148.62,1
249,159.99,1
477,172.28,1
152,187.05,1
274,200.81,1
128,211.49,1
50,217.46,1
107,217.68,1
205,214.58,1
212,211.17,1
37,207.12,1
72,200.21,1
48,190.3,1
185,179.43,1
58,169.18,1
126,159.35,1
124,150.2,1
110,142.28,1
124,135.43,1
155,129.98,1
215,126.87,1
143,126.3,1
182,127.3,1
84,128.73,1
61,128.98,1
34,126.92,1
172,123.67,1
132,121.32,1
46,119.5,1
48,116.44,1
206,113.15,1
54,111.15,1
83,109.23,1
142,107.16,1
286,107.41,1
36,110.21,1
177,113.12,1
35,115.1,1
89,115.61,1
89,114.69,1
231,114.31,1
226,116.62,1
78,120.78,1
117,124.07,1
130,126.14,1
229,128.54,1
118,131.93,1
224,135.82,1
167,140.33,1
211,145.45,1
323,152.03,1
55,159.52,1
370,166.56,1
55,173.42,1
30,177.15,1
87,175.86,1
81,171.48,1
490,168.57,1
101,170.31,1
318,174.3,1
61,178.17,1
99,179.7,1
109,178.01,1
32,173.78,1
247,168.32,1
158,164.25,1
35,160.67,1
32,154.84,1
71,146.75,1
253,139.28,1
90,134.49,1
193,131.56,1
99,129.72,1
132,128.36,1
121,127.07,1
54,125.45,1
31,122.24,1
115,117.69,1
83,113.21,1
109,109.28,1
280,107.45,1
92,108.76,1
662,115.37,1
38,128.48,1
153,141.53,1
411,153,1
299,167.13,1
106,181.53,1
282,193.04,1
64,201.49,1
108,205.6,1
158,205.59,1
366,205.32,1
275,207.92,1
225,212.41,1
44,215.17,1
429,216.3,1
41,217.8,1
213,217.74,1
46,214.79,1
113,208.97,1
72,200.52,1
114,190.57,1
132,180.31,1
124,170.71,1
158,162.22,1
93,154.81,1
101,147.75,1
39,140.29,1
91,132.23,1
127,124.63,1
56,118.04,1
116,112.07,1
102,107.05,1
181,103.81,1
265,103.9,1
264,108.5,1
44,115.28,1
69,120.12,1
164,122.72,1
127,124.97,1
85,126.71,1
44,126.67,1
66,124.47,1
99,120.99,1
79,117.18,1
127,113.6,1
106,110.75,1
133,108.81,1
99,107.62,1
92,106.66,1
128,105.8,1
48,104.92,1
90,103.4,1
80,101.38,1
203,100.22,1
121,101.02,1
163,103.29,1
59,105.77,1
257,108.6,1
136,112.98,1
177,118.39,1
113,123.56,1
169,128.13,1
121,132.09,1
63,134.67,1
203,135.92,1
98,137.06,1
72,137.3,1
99,135.79,1
311,134.95,1
109,136.66,1
243,139.8,1
124,143.49,1
53,146.06,1
193,146.71,1
101,146.82,1
175,146.76,1
39,145.93,1
135,143.71,1
67,140.41,1
43,135.86,1
55,129.67,1
42,122.32,1
98,114.67,1
94,107.81,1
92,102.16,1
185,98.29,1
274,98.16,1
140,101.95,1
124,107.03,1
146,111.77,1
89,115.84,1
37,118.11,1
355,120.21,1
100,124.79,1
36,129.02,1
202,131.09,1
39,132.29,1
148,132.39,1
151,132.11,1
95,132.03,1
41,130.78,1
267,129.19,1
238,130.38,1
63,133.6,1
32,134.93,1
143,133.75,1
35,131.37,1
99,127.82,1
133,123.93,1
83,120.59,1
53,116.98,1
130,113.02,1
66,109.41,1
49,105.63,1
77,101.27,1
269,98.5,1
197,99.79,1
272,105.13,1
136,112.91,1
186,121.09,1
128,128.56,1
179,135.11,1
166,141.01,1
487,149.04,1
334,162.27,1
135,177.56,1
118,189.29,1
197,196.68,1
327,202.74,1
189,209.21,1
307,215.57,1
172,221.32,1
183,225.29,1
495,229.38,1
213,236.31,1
178,242.84,1
272,246.72,1
90,248.27,1
259,247.15,1
181,244.68,1
87,240.6,1
97,233.34,1
96,223.28,1
62,211.22,1
64,197.47,1
179,183.58,1
201,172.1,1
42,162.82,1
267,154.95,1
72,149.18,1
397,146.5,1
381,149.85,1
168,158.3,1
135,166.51,1
45,171.28,1
133,172.25,1
154,171.17,1
261,170.49,1
141,171.06,1
119,171.32,1
171,170.42,1
129,168.98,1
133,166.97,1
84,163.89,1
66,159.21,1
158,153.51,1
238,149.22,1
57,146.71,1
33,143.17,1
34,137.09,1
36,129.12,1
233,121.6,1
99,116.81,1
41,113.19,1
149,109.44,1
162,107.09,1
137,106.79,1
71,107.21,1
145,107.49,1
390,110.31,1
142,117.55,1
58,125.2,1
44,129.41,1
129,130.65,1
98,130.6,1
116,129.9,1
68,128.38,1
99,125.9,1
125,123.1,1
32,120.05,1
145,116.55,1
168,114.07,1
97,113.17,1
72,112.33,1
123,111,1
444,112.57,1
174,119.74,1
170,129.14,1
150,137.49,1
43,143.55,1
177,146.86,1
181,149.31,1
43,151.04,1
122,150.62,1
78,148.37,1
39,144.4,1
111,138.86,1
236,134.17,1
38,131.28,1
317,129.92,1
42,130.46,1
139,131.02,1
144,130.96,1
99,130.93,1
283,131.73,1
477,137.33,1
188,148.72,1
132,160.57,1
228,169.91,1
37,176.58,1
360,181.3,1
217,186.92,1
80,192.23,1
94,193.85,1
78,191.6,1
211,187.39,1
226,183.99,1
290,183.18,1
80,183.81,1
176,183.4,1
229,182.5,1
167,182.39,1
191,182.51,1
134,182.21,1
93,180.55,1
45,176.38,1
181,170.44,1
219,165.46,1
38,161.62,1
44,156.21,1
43,148.38,1
87,139.36,1
49,130.12,1
98,121.15,1
113,113.28,1
65,106.77,1
64,100.84,1
98,95.4,1
36,90.57,1
32,85.58,1
217,81.58,1
53,80.09,1
72,79.56,1
48,78.56,1
46,76.98,1
68,74.97,1
156,73.75,1
44,73.87,1
68,74.09,1
61,73.81,1
87,73.45,1
39,73.01,1
206,73.32,1
382,77.99,1
116,87.82,1
44,97.81,1
82,104.56,1
62,108.49,1
212,111.35,1
170,115.24,1
57,119.42,1
131,122.09,1
252,124.79,1
54,128.4,1
292,132.27,1
35,136.39,1
97,138.83,1
49,138.43,1
142,136.35,1
127,134.08,1
52,131.63,1
136,128.47,1
330,127.2,1
218,130.35,1
204,136.39,1
188,143.17,1
165,149.74,1
64,154.6,1
34,155.93,1
38,153.25,1
279,149.39,1
190,147.99,1
39,147.78,1
127,146.02,1
39,142.63,1
79,137.72,1
60,131.6,1
154,125.52,1
154,121.06,1
240,119.43,1
113,120.37,1
96,121.75,1
52,121.74,1
47,119.79,1
42,115.93,1
88,111,1
57,105.87,1
141,101.31,1
131,98.36,1
175,97.62,1
187,99.31,1
44,102.19,1
146,104.49,1
42,105.91,1
72,106.01,1
171,105.53,1
493,109.11,1
178,119.14,1
42,130.15,1
224,138.25,1
32,144.17,1
212,148.06,1
82,150.58,1
201,152.29,1
50,152.99,1
202,152.63,1
89,151.81,1
94,150.11,1
40,146.51,1
76,141.02,1
50,134.23,1
168,127.49,1
65,121.87,1
99,116.86,1
56,111.83,1
152,107.32,1
73,103.91,1
178,101.8,1
106,101.23,1
206,102.36,1
70,104.67,1
40,106.16,1
61,105.56,1
111,103.89,1
84,102.23,1
54,100.34,1
83,97.88,1
72,95.19,1
140,93.04,1
188,92.75,1
93,94.48,1
66,96.29,1
76,96.99,1
253,98.2,1
112,101.57,1
149,105.93,1
216,110.89,1
145,116.97,1
91,122.65,1
72,126.23,1
222,128.57,1
101,131.18,1
269,134.54,1
432,141.43,1
66,151.82,1
264,161.52,1
376,171.55,1
79,182.52,1
39,189.59,1
52,190.52,1
73,186.75,1
58,179.89,1
124,171.37,1
42,162.13,1
204,153.18,1
127,146.07,1
223,141.44,1
184,139.47,1
48,138.62,1
32,136.01,1
194,132.08,1
130,129.26,1
70,127.17,1
160,124.93,1
178,123.79,1
148,124.3,1
80,125.15,1
158,125.51,1
33,125.2,1
103,123.55,1
34,120.49,1
80,116.29,1
53,111.31,1
111,106.32,1
130,102.35,1
90,99.76,1
190,98.6,1
168,99.7,1
49,101.96,1
162,103.85,1
74,105.55,1
111,106.83,1
241,108.7,1
176,112.84,1
185,118.65,1
173,125.07,1
165,131.54,1
160,137.59,1
113,142.58,1
234,146.79,1
82,150.61,1
286,154.18,1
162,158.52,1
122,162.62,1
110,164.66,1
74,164.23,1
157,161.93,1
158,159.36,1
56,156.52,1
228,153.31,1
253,152.1,1
312,154.73,1
62,159.33,1
257,163.3,1
41,166.02,1
73,166.05,1
139,163.29,1
78,159.37,1
53,154.03,1
309,148.96,1
45,146.07,1
89,143.09,1
41,138.31,1
64,132.09,1
82,125.1,1
46,117.94,1
123,111.06,1
254,106.65,1
124,105.95,1
136,107.16,1
76,108.43,1
37,108.52,1
86,106.97,1
42,104.36,1
184,101.85,1
35,100.25,1
182,99.31,1
104,99.46,1
126,100.53,1
66,101.51,1
136,102.16,1
44,102.43,1
203,102.79,1
145,104.55,1
121,107.48,1
177,110.8,1
100,114.41,1
129,117.55,1
90,119.76,1
74,120.67,1
55,119.82,1
127,117.8,1
48,115.33,1
37,111.81,1
116,107.43,1
178,104.24,1
314,104.81,1
133,109.48,1
385,117.3,1
47,127.17,1
284,136.75,1
130,145.66,1
150,153.36,1
790,164.15,1
38,181.4,1
219,197.46,1
192,208.71,1
174,216.8,1
153,221.55,1
42,222.21,1
155,218.69,1
387,214.9,1
53,213.02,1
260,210.78,1
183,208.36,1
67,205.38,1
118,199.96,1
158,193.08,1
43,185.44,1
131,176.65,1
78,167.32,1
168,158.47,1
129,150.99,1
143,145.01,1
205,140.78,1
117,138.42,1
40,136.02,1
112,132.27,1
196,128.86,1
174,127.57,1
44,127.23,1
238,126.89,1
122,127.74,1
72,128.73,1
167,128.82,1
135,129.09,1
52,129.08,1
106,127.68,1
64,125.12,1
175,122.43,1
165,121.1,1
153,121.5,1
68,122.23,1
43,121.52,1
153,119.51,1
295,119.34,1
33,121.63,1
56,122.82,1
104,121.73,1
127,120.13,1
42,118.25,1
188,116.22,1
326,116.94,1
101,121.33,1
82,125.69,1
65,127.6,1
121,127.62,1
54,126.41,1
126,124.26,1
60,121.56,1
541,121.95,1
46,127.93,1
114,134.4,1
152,138.42,1
88,141.1,1
44,141.57,1
200,140.39,1
252,140.58,1
160,143.19,1
34,145.45,1
55,144.75,1
31,140.92,1
72,134.94,1
88,128.13,1
177,122.24,1
34,117.64,1
232,114.19,1
131,112.98,1
76,113.01,1
127,112.7,1
237,113.4,1
38,115.45,1
86,116.49,1
76,115.82,1
45,113.85,1
32,110.25,1
59,105.29,1
134,100.39,1
32,96.31,1
75,92.28,1
118,88.66,1
127,86.58,1
36,85.49,1
302,85.96,1
39,89.05,1
139,92.72,1
55,95.52,1
140,97.72,1
43,99.28,1
284,101.39,1
92,105.42,1
76,109.49,1
70,111.58,1
77,111.93,1
142,111.52,1
84,111.21,1
221,111.67,1
263,114.81,1
272,121.74,1
258,131.73,1
262,143.6,1
265,156.48,1
130,168.71,1
93,177.55,1
420,184.51,1
240,193.34,1
256,203.18,1
152,211.42,1
139,216.51,1
43,217.19,1
176,213.91,1
151,208.89,1
48,202.55,1
107,194.02,1
277,185.6,1
63,179.03,1
32,171.75,1
124,162.65,1
184,154.2,1
36,147.04,1
120,139.87,1
172,133.5,1
180,129.55,1
83,127.32,1
36,124.59,1
94,120.49,1
137,116.38,1
33,112.73,1
110,108.82,1
109,105.25,1
134,102.87,1
151,102,1
146,102.75,1
127,104.62,1
271,108.09,1
84,113.34,1
35,117.5,1
56,118.55,1
116,117.63,1
82,116.12,1
40,113.79,1
116,110.58,1
39,107.06,1
86,103.18,1
32,98.84,1
68,94.1,1
95,89.56,1
80,85.95,1
269,84.65,1
111,86.83,1
84,90.34,1
43,92.7,1
39,93.17,1
196,93.08,1
49,93.88,1
78,94.46,1
203,95.15,1
142,97.68,1
34,100.67,1
38,101.69,1
128,101.1,1
32,100.01,1
296,99.9,1
254,103.7,1
43,110.11,1
74,114.78,1
71,116.74,1
75,116.8,1
57,115.31,1
88,112.67,1
46,109.27,1
43,104.94,1
329,101.98,1
94,102.89,1
33,104.7,1
188,105.51,1
146,107.21,1
44,109.27,1
54,109.62,1
133,108.64,1
82,107.63,1
108,106.65,1
207,106.55,1
135,108.35,1
243,112.05,1
193,117.84,1
302,125.98,1
103,135.4,1
350,145.16,1
335,157.12,1
48,169.8,1
288,179.79,1
210,188.33,1
193,196.03,1
131,201.44,1
222,204.51,1
90,205.61,1
40,203.35,1
261,198.51,1
109,193.82,1
383,190.96,1
330,192.36,1
41,195.98,1
68,196.26,1
32,191.78,1
39,183.52,1
173,173.56,1
165,164.8,1
110,157.76,1
122,151.38,1
37,144.78,1
130,137.7,1
122,131.24,1
32,125.34,1
249,120.32,1
68,117.43,1
274,116.77,1
361,120.41,1
118,128.34,1
609,139.99,1
172,156.57,1
126,172.88,1
76,183.74,1
54,188.73,1
348,190.72,1
94,192.89,1
179,194.08,1
47,192.73,1
163,188.99,1
52,183.45,1
96,176.21,1
130,168.01,1
33,159.46,1
127,150.39,1
187,142.44,1
33,136.1,1
50,129.3,1
100,121.81,1
71,114.76,1
105,108.48,1
63,102.96,1
33,97.56,1
272,93.53,1
62,92.61,1
103,92.96,1
88,93.1,1
35,92.73,1
41,91.05,1
98,88.56,1
78,86.34,1
33,84.18,1
78,81.6,1
271,80.72,1
82,83.13,1
34,86.07,1
239,88.68,1
66,92.48,1
134,96.47,1
186,100.6,1
54,105.02,1
73,107.96,1
115,109.25,1
127,110.18,1
116,111.24,1
44,111.71,1
188,111.62,1
52,111.76,1
154,111.85,1
54,111.65,1
42,110.34,1
117,107.82,1
401,107.9,1
52,112.33,1
154,117.42,1
130,121.46,1
158,125.24,1
151,128.89,1
229,133.09,1
225,138.73,1
120,145.01,1
114,149.79,1
95,152.16,1
56,151.95,1
98,149.33,1
70,145.09,1
47,139.47,1
124,132.99,1
68,126.68,1
39,120.19,1
258,114.61,1
100,111.97,1
113,110.96,1
70,109.8,1
140,108.54,1
156,108.16,1
155,109.3,1
263,112.53,1
65,117.4,1
127,121.52,1
296,125.71,1
239,132.6,1
306,142.31,1
154,153.25,1
192,163.15,1
446,173.38,1
342,187.16,1
344,203.53,1
162,219.08,1
334,231.95,1
145,242.13,1
115,248.02,1
108,248.36,1
91,243.98,1
70,235.64,1
168,224.88,1
309,215.18,1
208,208.87,1
82,203.84,1
136,197.5,1
57,189.6,1
160,180.75,1
289,173.55,1
199,170.04,1
291,169.78,1
92,171.16,1
207,172.19,1
138,172.61,1
202,172.88,1
75,172.48,1
99,170.24,1
61,165.72,1
44,159.03,1
57,150.44,1
41,140.63,1
193,131.28,1
36,123.65,1
37,116.27,1
127,108.79,1
58,102.4,1
78,96.8,1
143,92.3,1
68,89.38,1
86,87.22,1
218,86.46,1
175,88.73,1
170,93.57,1
138,99.53,1
213,106.19,1
288,114.74,1
56,124.39,1
67,131.49,1
96,134.94,1
97,136.07,1
473,138.71,1
144,145.85,1
171,154.13,1
36,159.66,1
125,161.67,1
192,161.84,1
40,161.16,1
35,157.91,1
77,151.78,1
97,144.51,1
220,138.26,1
77,134,1
68,129.98,1
33,124.7,1
118,118.66,1
46,112.77,1
174,107.73,1
57,104.06,1
34,100.49,1
46,95.9,1
74,90.91,1
58,86.2,1
32,81.62,1
92,77.21,1
84,73.78,1
33,71.15,1
50,68.46,1
74,65.87,1
53,63.79,1
60,62.09,1
81,60.83,1
62,60.21,1
54,59.88,1
94,59.83,1
81,60.48,1
154,62.34,1
112,65.8,1
93,70.12,1
57,74.02,1
46,76.63,1
53,77.78,1
144,78.53,1
170,80.7,1
121,84.65,1
34,88.53,1
83,90.82,1
109,92.13,1
174,93.98,1
62,96.56,1
203,99.46,1
32,102.5,1
70,104.22,1
46,103.91,1
47,102,1
33,98.63,1
87,94.48,1
127,90.96,1
39,88.41,1
57,85.72,1
35,82.41,1
194,79.82,1
40,79.02,1
100,78.87,1
58,78.62,1
94,78.39,1
120,78.64,1
90,79.72,1
100,81.21,1
211,83.77,1
58,87.7,1
55,90.95,1
35,92.12,1
168,92.4,1
94,93.38,1
36,94.28,1
37,93.54,1
88,91.54,1
93,89.53,1
113,88.23,1
131,88.03,1
49,88.46,1
45,88.14,1
220,87.95,1
34,89.16,1
226,91.36,1
373,97.07,1
60,106.64,1
231,116.34,1
228,126.05,1
110,135.82,1
236,144.41,1
52,151.41,1
380,157.67,1
34,164.19,1
338,170.21,1
42,175.37,1
336,179.76,1
228,184.92,1
86,189.98,1
135,191.99,1
172,191.56,1
40,189.23,1
209,185.04,1
143,180.73,1
165,176.92,1
32,172.38,1
473,169.02,1
69,169.48,1
49,169.68,1
36,165.98,1
186,160.25,1
75,154.6,1
70,148.58,1
119,141.87,1
125,135.67,1
48,129.92,1
190,124.66,1
351,122.93,1
317,127.43,1
426,138.19,1
66,151.94,1
64,162.53,1
50,167.31,1
104,167.68,1
127,165.66,1
181,163.11,1
278,162.1,1
237,163.97,1
93,166.93,1
69,167.76,1
41,165.14,1
260,161.12,1
136,158.48,1
87,156.35,1
68,152.72,1
67,147.34,1
83,140.77,1
132,134.15,1
100,128.39,1
49,122.91,1
39,116.68,1
108,110.04,1
145,104.66,1
86,101.1,1
60,98.15,1
113,95.32,1
38,92.69,1
118,90.17,1
102,88.37,1
108,87.62,1
131,87.86,1
32,88.44,1
221,89.4,1
118,92.03,1
63,95.27,1
62,97.12,1
70,97.46,1
241,98.15,1
291,102.34,1
67,109.44,1
77,115.36,1
77,118.54,1
135,120.08,1
76,120.79,1
167,121.1,1
34,121,1
57,119.36,1
36,115.73,1
74,110.85,1
219,106.8,1
157,105.68,1
32,105.99,1
280,106.85,1
178,110.28,1
127,115.51,1
384,122.37,1
56,131.37,1
165,139.32,1
90,144.72,1
341,149.71,1
54,155.35,1
39,158.57,1
35,157.22,1
99,152.77,1
33,146.58,1
65,138.97,1
79,130.61,1
35,122.1,1
58,113.33,1
70,104.76,1
72,97.02,1
120,90.68,1
66,85.98,1
99,82.46,1
157,80.51,1
56,80.22,1
61,80.08,1
71,79.38,1
101,78.75,1
36,78.21,1
184,78.16,1
139,80,1
53,82.98,1
66,85.08,1
81,86.08,1
120,86.87,1
48,87.65,1
41,87.48,1
209,87.26,1
384,91.1,1
135,100.11,1
161,110.34,1
42,118.6,1
101,123.85,1
63,126.32,1
75,126.54,1
168,125.7,1
125,125.33,1
31,124.62,1
204,123.21,1
199,123.31,1
227,126.11,1
134,130.54,1
122,134.68,1
173,137.94,1
242,141.71,1
416,148.68,1
31,158.14,1
82,164.75,1
160,167.32,1
199,168.72,1
106,169.69,1
123,169.27,1
52,166.7,1
131,162.25,1
156,157.4,1
110,153.08,1
39,148.19,1
96,141.95,1
68,135.02,1
74,127.83,1
52,120.38,1
78,112.87,1
96,105.95,1
70,100,1
224,95.96,1
183,95.45,1
186,98.26,1
166,103.08,1
181,109.08,1
62,114.9,1
294,120.47,1
140,127.21,1
179,134.34,1
281,141.73,1
162,150.09,1
151,157.73,1
65,162.72,1
163,164.84,1
154,165.52,1
98,165.28,1
229,164.44,1
157,164.24,1
148,164.37,1
110,163.7,1
43,161.2,1
267,157.83,1
118,155.78,1
223,155.05,1
208,155.73,1
160,157.69,1
36,158.63,1
237,158.01,1
33,156.81,1
126,154.27,1
58,150.11,1
78,144.67,1
241,139.52,1
101,136.44,1
70,133.82,1
113,130.35,1
105,126.73,1
43,122.83,1
40,117.74,1
92,111.78,1
209,107.13,1
35,104.53,1
80,102.07,1
40,98.79,1
35,94.66,1
83,90.01,1
40,85.49,1
125,81.62,1
236,80.29,1
50,81.93,1
421,86.66,1
85,95.38,1
125,104.75,1
97,111.99,1
152,117.69,1
199,123.09,1
96,128.44,1
151,132.75,1
260,137.06,1
148,142.55,1
172,148.01,1
121,152.35,1
315,156.62,1
157,162.16,1
181,167.69,1
118,171.63,1
103,173.28,1
186,173.04,1
157,172.37,1
248,172.34,1
150,173.24,1
128,173.79,1
98,172.65,1
142,169.97,1
277,167.75,1
104,167.12,1
58,165.61,1
33,161.12,1
71,154.06,1
73,145.68,1
138,137.45,1
134,130.63,1
104,125.34,1
197,121.61,1
52,119.29,1
130,117.14,1
127,115.27,1
70,113.78,1
37,111.42,1
96,107.96,1
49,104.06,1
44,99.65,1
34,94.44,1
186,89.82,1
44,87.04,1
51,84.73,1
174,82.82,1
225,83.74,1
133,87.87,1
313,94.7,1
141,104.17,1
114,113.76,1
359,123.29,1
240,135.25,1
170,148.16,1
116,158.84,1
195,166.66,1
288,173.66,1
62,180.11,1
286,184.85,1
192,189.16,1
193,193.31,1
74,195.48,1
93,194.31,1
37,189.5,1
231,182.91,1
309,178.51,1
172,177.64,1
216,178.27,1
111,178.76,1
110,177.77,1
170,175.32,1
240,173.35,1
72,172.09,1
95,169.43,1
126,165.04,1
205,160.81,1
66,157.26,1
58,152.65,1
184,147.16,1
133,142.73,1
52,138.8,1
45,133.58,1
142,127.58,1
108,122.41,1
370,120.4,1
357,124.77,1
133,133.93,1
292,143.99,1
234,154.7,1
275,166.24,1
356,178.89,1
204,192.4,1
215,204.39,1
322,214.65,1
218,224.24,1
129,231.46,1
140,234.44,1
204,234.08,1
163,231.97,1
122,228.12,1
85,221.77,1
208,213.78,1
88,205.53,1
259,197.79,1
198,192,1
246,188.67,1
390,188.78,1
110,191.96,1
77,193.73,1
138,192.04,1
56,187.82,1
60,181.02,1
33,171.67,1
35,160.27,1
90,147.94,1
84,136.17,1
62,125.38,1
34,115.05,1
124,105.5,1
35,97.37,1
39,89.91,1
104,83.07,1
35,77.44,1
89,72.78,1
155,69.85,1
218,70.36,1
150,74.49,1
202,81.06,1
186,89.45,1
171,98.99,1
206,109,1
136,118.93,1
228,128.36,1
233,138.08,1
214,148.38,1
179,158.22,1
244,167.21,1
132,175.12,1
204,181.24,1
212,186.12,1
156,190.16,1
132,192.38,1
171,192.62,1
208,192.09,1
73,190.8,1
64,187.02,1
205,181.34,1
49,175.37,1
113,168.51,1
188,161.56,1
191,156.55,1
105,153.13,1
95,149.58,1
130,145.47,1
146,141.68,1
207,139.3,1
147,138.7,1
67,138.35,1
158,137.15,1
173,136.3,1
68,135.87,1
158,134.92,1
115,133.87,1
37,132.17,1
115,129.05,1
213,126.38,1
101,125.45,1
113,124.96,1
276,125.43,1
46,127.48,1
82,128.55,1
233,128.79,1
58,129.72,1
186,130.55,1
197,132.04,1
33,133.86,1
77,133.66,1
80,131.32,1
135,128.3,1
42,125.01,1
230,122.1,1
447,123.62,1
422,133.34,1
316,149.48,1
387,168.61,1
66,187.09,1
261,201.44,1
310,213.11,1
308,224.73,1
371,236.82,1
39,247.19,1
234,252.59,1
255,254.69,1
244,256.03,1
508,258.9,1
232,264.8,1
87,269.29,1
143,268.42,1
65,262.59,1
94,252.59,1
473,242.67,1
156,236.94,1
264,233.4,1
186,230.19,1
420,228.84,1
311,231.23,1
391,237.19,1
232,244.78,1
322,252.17,1
41,257.06,1
152,256.96,1
116,252.28,1
185,245.13,1
118,236.62,1
147,227.06,1
144,216.92,1
45,206.05,1
206,194.65,1
120,184.32,1
156,175.35,1
305,168.81,1
239,166.51,1
132,166.77,1
131,166.7,1
67,164.97,1
298,162.87,1
332,164.06,1
131,168.51,1
63,171.76,1
274,172.96,1
49,173.62,1
176,172.93,1
348,172.87,1
54,174.74,1
85,174.88,1
322,173.73,1
48,173.52,1
112,172.04,1
526,171.8,1
37,175.79,1
100,178.81,1
57,177.69,1
324,175.43,1
132,174.81,1
407,176.75,1
80,180.83,1
338,185.4,1
439,192.57,1
221,203.44,1
40,212.59,1
206,216.78,1
179,218.05,1
158,217.8,1
40,214.88,1
176,209.03,1
67,201.51,1
61,192.25,1
74,181.09,1
88,169.11,1
140,157.66,1
323,149.42,1
128,145.71,1
562,147.42,1
109,154.99,1
451,165.73,1
258,178.84,1
404,194.16,1
276,210.41,1
270,225.92,1
72,237.6,1
98,242.93,1
204,242.95,1
97,239.96,1
193,234.7,1
48,227.35,1
201,218.35,1
61,208.55,1
106,197.79,1
63,185.89,1
98,173.46,1
187,161.97,1
153,153.04,1
81,145.92,1
317,140.89,1
306,140.79,1
238,145.62,1
227,152.77,1
40,159.19,1
137,162.52,1
46,162.7,1
176,160.84,1
51,157.84,1
182,154.16,1
224,151.54,1
262,151.87,1
35,153.55,1
47,152.92,1
112,149.42,1
212,145.83,1
541,147.09,1
298,156.28,1
266,169.59,1
142,182.13,1
197,191.83,1
71,197.91,1
114,199.79,1
80,197.8,1
463,195.85,1
94,196.93,1
301,199.08,1
376,202.97,1
162,209.21,1
307,215.34,1
611,224.29,1
32,236.5,1
126,244.61,1
610,250.11,1
71,257.68,1
314,263.74,1
107,266.33,1
58,264.41,1
136,257.26,1
39,246.46,1
130,233.02,1
200,219.26,1
610,210.93,1
153,210.51,1
113,211.7,1
235,210.72,1
837,214.66,1
44,226.58,1
165,237.15,1
188,242.07,1
529,246.63,1
440,255.81,1
258,268.03,1
144,277.55,1
131,281.3,1
38,278.62,1
294,271.6,1
330,265.18,1
74,260.04,1
266,253.71,1
129,246.62,1
254,239.52,1
287,233.84,1
209,230.35,1
298,228.35,1
152,227.18,1
46,224.17,1
53,217.02,1
376,208.79,1
115,203.21,1
234,199.18,1
99,195.17,1
98,190.09,1
295,184.83,1
78,181.04,1
102,176.76,1
176,171.49,1
50,165.99,1
46,159,1
278,151.93,1
250,148.53,1
117,148.38,1
337,150.11,1
70,153.56,1
152,156.31,1
179,157.82,1
99,158.79,1
91,158.17,1
132,155.9,1
267,154.15,1
124,154.24,1
256,155.56,1
207,158.36,1
80,161.44,1
199,163.15,1
241,164.98,1
76,167.17,1
301,169.05,1
38,170.8,1
375,172.69,1
177,176.36,1
476,183.21,1
244,193.65,1
453,206.83,1
110,220.38,1
169,230.38,1
38,234.46,1
162,233.21,1
74,228.22,1
177,220.95,1
127,212.75,1
59,203.56,1
119,192.89,1
53,181.34,1
78,169.1,1
132,157.06,1
97,146.35,1
127,137.12,1
64,129,1
110,121.58,1
44,114.65,1
46,107.62,1
246,101.88,1
219,100.35,1
32,101.76,1
98,102.61,1
66,102.32,1
100,101.45,1
49,100.05,1
530,101.64,1
32,108.83,1
50,116.01,1
199,120.39,1
42,123.79,1
59,125.14,1
64,123.91,1
180,121.93,1
41,120.24,1
208,118.87,1
314,120.22,1
43,124.48,1
39,127.26,1
52,126.63,1
118,124.15,1
40,120.9,1
33,116.37,1
75,110.58,1
32,104.32,1
112,98.2,1
40,92.75,1
62,87.65,1
42,82.59,1
94,77.99,1
42,74.17,1
119,71.26,1
40,69.32,1
89,67.94,1
37,66.74,1
70,65.56,1
67,64.51,1
138,64.39,1
199,66.61,1
31,70.74,1
32,73.98,1
165,76.15,1
106,79.13,1
214,83.63,1
78,89.32,1
34,94.03,1
42,96.09,1
140,96.63,1
160,97.82,1
254,101.36,1
32,106.45,1
220,111.23,1
43,115.45,1
47,117.78,1
232,118.72,1
184,121.23,1
84,124.77,1
144,127.43,1
243,130.32,1
121,134.38,1
287,139.39,1
44,144.67,1
124,148.05,1
147,149.38,1
84,149.61,1
204,149.15,1
46,148.32,1
73,145.86,1
293,143.19,1
174,143.28,1
163,145.23,1
137,147.17,1
164,148.75,1
93,149.65,1
42,148.66,1
324,147.15,1
193,148.38,1
38,150.57,1
145,150.71,1
66,149.13,1
130,146.38,1
123,143.17,1
245,141.13,1
108,140.84,1
110,140.68,1
177,140.09,1
85,139.55,1
271,139.62,1
120,141.21,1
52,142.4,1
70,141.06,1
186,138.52,1
248,137.69,1
56,138.58,1
119,138.64,1
63,137.08,1
49,133.82,1
192,129.86,1
68,126.69,1
41,123.16,1
65,118.21,1
30,112.23,1
262,107.17,1
210,106.04,1
174,108.68,1
409,115.03,1
89,124.91,1
175,134.58,1
85,141.83,1
134,146.63,1
33,148.66,1
156,148.27,1
157,147.24,1
225,147.31,1
160,148.81,1
127,150.57,1
31,150.63,1
303,149.78,1
105,150.29,1
115,150.89,1
84,149.85,1
46,146.86,1
355,144.12,1
154,144.74,1
35,146.18,1
37,144.64,1
64,140.17,1
174,134.96,1
35,130.23,1
42,124.73,1
682,122.99,1
46,129.52,1
42,136.9,1
67,139.68,1
208,140.38,1
267,142.44,1
264,147.56,1
263,155.27,1
140,163.65,1
325,171.77,1
153,180.03,1
79,186.24,1
150,188.66,1
314,190,1
55,191.62,1
255,192.14,1
133,191.96,1
144,190.99,1
159,188.75,1
530,188.97,1
209,194.59,1
47,200.63,1
38,201.5,1
121,197.59,1
178,191.91,1
196,186.82,1
120,182.47,1
250,178.8,1
126,176.26,1
285,174.98,1
217,175.74,1
39,176.78,1
76,174.84,1
197,170.83,1
104,166.89,1
142,162.91,1
87,158.43,1
252,154.48,1
105,152.11,1
68,149.67,1
69,145.45,1
50,139.58,1
119,132.92,1
77,126.49,1
155,120.95,1
37,116.25,1
226,112.59,1
205,111.79,1
117,113.66,1
105,115.81,1
161,117.65,1
111,119.6,1
118,121.27,1
83,122.1,1
112,121.97,1
38,120.72,1
54,117.8,1
139,114.06,1
87,110.91,1
45,107.82,1
103,104.24,1
140,101.3,1
73,99.47,1
74,97.77,1
137,96.21,1
170,96.1,1
39,97.09,1
64,97.22,1
201,97.15,1
150,98.94,1
49,101.56,1
88,102.98,1
92,103.3,1
128,103.43,1
54,103.43,1
127,103.02,1
67,102.41,1
85,101.43,1
71,99.88,1
81,97.96,1
66,95.74,1
179,94.13,1
79,93.93,1
45,93.83,1
31,92.33,1
116,90,1
116,88.38,1
92,87.86,1
39,87.35,1
165,86.85,1
300,89.09,1
98,94.9,1
99,101.09,1
110,105.81,1
130,109.62,1
39,112.28,1
52,112.77,1
234,112.55,1
77,113.56,1
52,114.22,1
114,113.42,1
160,112.69,1
62,112.5,1
142,112.17,1
85,111.77,1
124,111.37,1
39,110.48,1
100,108.65,1
68,106.23,1
207,104.53,1
243,105.72,1
41,109.15,1
125,111.88,1
36,112.98,1
70,112.31,1
215,111.33,1
234,112.93,1
699,121.72,1
249,139.75,1
100,159.48,1
86,173.68,1
218,182.83,1
74,188.69,1
34,190.28,1
337,189.19,1
161,189.27,1
146,189.73,1
58,188.06,1
77,183.42,1
35,175.94,1
76,166.33,1
51,155.54,1
48,144.1,1
294,134.29,1
40,127.94,1
73,122.58,1
88,116.74,1
92,111.26,1
107,106.56,1
59,102.48,1
105,98.72,1
334,97.55,1
357,102.65,1
170,113.13,1
202,124.74,1
40,134.53,1
119,140.87,1
333,146.09,1
35,151.98,1
71,155.38,1
49,154.76,1
116,151.58,1
46,146.89,1
59,140.7,1
63,133.26,1
112,125.68,1
89,118.87,1
176,113.61,1
56,109.95,1
144,107.1,1
64,104.77,1
103,102.63,1
142,101.01,1
135,100.74,1
426,104.08,1
140,112.4,1
72,121.41,1
46,127.01,1
41,128.81,1
56,127.48,1
196,125.16,1
150,124.18,1
67,123.97,1
32,122.35,1
141,119.34,1
50,116.12,1
64,112.38,1
86,108.02,1
131,104.17,1
218,102.46,1
54,102.87,1
281,104.78,1
306,110.3,1
132,119.28,1
238,128.81,1
118,137.78,1
242,145.96,1
132,153.4,1
207,159.88,1
59,164.54,1
253,167.43,1
66,169.32,1
282,170.68,1
45,171.65,1
309,172.34,1
156,173.92,1
232,176.4,1
160,178.9,1
255,181.54,1
220,184.89,1
49,187.48,1
44,186.29,1
259,182.56,1
144,179.52,1
267,177.99,1
90,177.27,1
44,174.96,1
64,169.47,1
260,163.28,1
173,159.41,1
56,156.66,1
84,152.47,1
102,146.98,1
173,141.76,1
145,137.99,1
204,136.06,1
365,137.63,1
154,143.17,1
58,148.69,1
35,150.54,1
275,150.34,1
243,152.02,1
36,154.85,1
206,156.2,1
112,156.7,1
202,157.12,1
83,157.2,1
134,156.24,1
54,153.71,1
144,149.92,1
92,145.69,1
190,141.94,1
44,138.66,1
40,134.24,1
53,127.94,1
233,122.07,1
61,118.33,1
205,116.19,1
180,116.08,1
284,119.11,1
154,124.89,1
241,131.99,1
156,139.55,1
109,146.16,1
132,150.54,1
217,153.79,1
124,156.87,1
157,159.17,1
146,160.5,1
49,160.33,1
97,157.77,1
135,153.76,1
212,150.41,1
72,148.1,1
127,145.45,1
33,141.62,1
37,135.97,1
78,128.75,1
74,121.24,1
131,114.47,1
187,109.85,1
121,107.84,1
67,106.84,1
142,105.83,1
145,105.65,1
84,106.27,1
32,106.1,1
42,104.06,1
206,101.75,1
34,100.65,1
149,99.98,1
127,99.95,1
165,101.29,1
150,103.96,1
178,107.84,1
122,112.4,1
172,117.05,1
38,120.88,1
158,123.16,1
31,124.03,1
135,123.54,1
131,122.67,1
95,122.01,1
168,121.52,1
183,122.19,1
210,124.77,1
127,128.62,1
242,133.11,1
86,137.86,1
154,141.61,1
213,144.8,1
134,148.33,1
95,150.87,1
121,151.53,1
73,150.43,1
50,147.28,1
32,141.75,1
66,134.41,1
71,126.35,1
116,118.74,1
115,112.48,1
35,107.15,1
99,101.92,1
37,96.82,1
105,92.04,1
88,88.13,1
36,84.87,1
311,83.44,1
67,85.54,1
168,89.34,1
82,93.27,1
104,96.78,1
109,99.55,1
36,101.34,1
55,101.32,1
160,100.49,1
128,100.68,1
172,102.33,1
89,104.82,1
191,107.71,1
192,111.8,1
169,117.32,1
233,123.92,1
222,131.88,1
207,140.84,1
191,149.8,1
330,159.24,1
336,170.89,1
194,183.92,1
52,194.18,1
96,198.86,1
81,198.6,1
37,194.35,1
93,186.82,1
39,177.13,1
114,166.31,1
110,155.72,1
57,145.77,1
125,136.28,1
57,127.58,1
78,119.39,1
83,111.66,1
59,104.61,1
129,98.53,1
141,94.4,1
123,92.54,1
74,91.85,1
44,90.9,1
108,89.42,1
148,88.7,1
32,88.81,1
53,88.15,1
127,86.94,1
158,86.96,1
151,88.98,1
228,93.22,1
123,99.36,1
122,105.64,1
60,110.47,1
114,113.45,1
195,115.96,1
68,118.75,1
116,120.65,1
180,122.07,1
238,124.99,1
140,129.62,1
67,133.69,1
100,135.49,1
110,135.51,1
121,134.71,1
236,134.5,1
93,135.55,1
132,136.45,1
97,136.39,1
72,135.14,1
127,132.79,1
93,130.09,1
40,126.67,1
248,123.36,1
61,121.69,1
98,120.26,1
158,118.63,1
112,117.81,1
112,117.37,1
34,116.23,1
75,113.66,1
130,110.56,1
56,107.78,1
33,104.39,1
148,100.61,1
61,97.63,1
44,94.74,1
136,91.77,1
53,89.52,1
39,87.18,1
118,84.59,1
86,82.8,1
90,81.83,1
107,81.47,1
51,81.43,1
47,80.83,1
313,81.47,1
39,85.1,1
114,89.2,1
77,92.22,1
197,95.3,1
186,99.89,1
265,106.92,1
138,115.75,1
76,123.72,1
36,128.43,1
119,130.01,1
127,130.24,1
36,129.51,1
38,126.66,1
119,122.26,1
169,118.54,1
150,116.8,1
192,117.04,1
368,120.76,1
83,127.87,1
78,134.11,1
75,137.04,1
186,138.18,1
34,138.46,1
183,137.73,1
39,136.26,1
127,133.87,1
77,130.7,1
155,127.58,1
58,124.67,1
40,120.93,1
35,115.56,1
138,109.73,1
250,106.27,1
104,106.21,1
314,108.98,1
33,113.77,1
142,117.96,1
570,124.52,1
63,136.38,1
150,147.86,1
138,155.86,1
238,162.28,1
39,167.21,1
105,168.94,1
82,167.47,1
106,163.94,1
377,161.38,1
41,161.5,1
256,162.15,1
112,162.78,1
504,165.95,1
67,172.64,1
175,178.72,1
70,181.5,1
119,181.25,1
119,178.63,1
239,175.67,1
128,173.6,1
169,171.77,1
225,170.41,1
177,170.31,1
84,170.07,1
120,168.14,1
32,164.09,1
133,158.26,1
132,152.16,1
91,146.54,1
132,141.11,1
426,138.73,1
32,140.65,1
80,142.18,1
72,140.87,1
82,137.78,1
44,133.22,1
38,127.11,1
34,119.57,1
148,112.01,1
31,105.55,1
138,100.02,1
50,95.46,1
119,91.78,1
46,88.71,1
64,85.72,1
72,82.65,1
184,80.82,1
98,81.17,1
55,82.34,1
210,83.95,1
169,87.67,1
44,92.47,1
79,95.86,1
32,97.23,1
156,97.54,1
40,97.72,1
101,97.43,1
205,97.67,1
37,99.13,1
118,100.24,1
220,101.84,1
55,104.73,1
34,106.49,1
137,106.48,1
83,106.19,1
227,106.83,1
93,108.95,1
69,110.94,1
36,111.03,1
134,109.72,1
159,108.92,1
130,109.5,1
56,110.24,1
110,110.08,1
217,110.39,1
140,112.59,1
36,114.94,1
65,115.23,1
31,113.32,1
61,109.69,1
31,104.85,1
81,99.42,1
92,94.36,1
158,90.89,1
47,88.98,1
32,86.95,1
143,84.64,1
34,82.99,1
108,81.62,1
60,80.45,1
122,79.79,1
123,80.15,1
226,82.66,1
105,87.4,1
71,92.3,1
226,96.87,1
33,101.72,1
58,104.96,1
338,107.97,1
58,113.19,1
180,118.64,1
336,125.05,1
68,133.36,1
144,140.36,1
221,145.82,1
82,150.67,1
155,153.85,1
44,154.82,1
423,155.94,1
164,160.3,1
211,166.23,1
50,170.52,1
131,171.84,1
33,170.06,1
115,165.71,1
280,161.43,1
131,159.46,1
73,157.78,1
150,154.83,1
63,151.1,1
41,145.91,1
136,139.5,1
73,133.21,1
129,127.44,1
35,121.87,1
351,118.15,1
134,118.56,1
38,120.35,1
142,120.67,1
66,120.14,1
81,118.72,1
39,115.94,1
76,111.97,1
97,107.64,1
176,104.48,1
115,103.26,1
182,103.75,1
102,105.48,1
182,107.98,1
109,111.05,1
33,113.29,1
48,113.14,1
126,111.41,1
140,110.05,1
206,110.41,1
181,113.06,1
124,117.02,1
107,120.59,1
122,123.13,1
171,125.31,1
85,127.35,1
153,128.79,1
127,129.9,1
155,131.09,1
68,131.84,1
61,130.99,1
182,129.11,1
123,127.93,1
63,126.86,1
33,124.22,1
50,119.64,1
148,114.53,1
30,109.97,1
44,104.97,1
179,100.17,1
79,97.16,1
76,95.07,1
78,92.9,1
221,91.91,1
77,93.02,1
514,98.06,1
168,109.07,1
288,123.15,1
385,139.04,1
190,156.78,1
225,173.24,1
158,186.62,1
228,197,1
295,205.89,1
329,215.3,1
251,225.24,1
302,234.71,1
232,243.12,1
409,251.18,1
290,260.04,1
77,267,1
82,267.88,1
115,262.75,1
172,254.22,1
183,244.69,1
224,235.66,1
152,227.48,1
179,219.61,1
343,213.4,1
316,211.33,1
261,212.93,1
37,214.34,1
93,211.92,1
180,206.45,1
121,200.24,1
198,194.04,1
48,187.6,1
54,179.41,1
45,168.99,1
41,157.07,1
124,144.91,1
47,133.68,1
45,122.9,1
146,113.01,1
34,104.81,1
37,97.2,1
60,89.61,1
90,82.92,1
67,77.62,1
156,74.15,1
271,74.38,1
62,78.29,1
32,82.2,1
80,84.18,1
83,85.19,1
40,85.51,1
213,86.03,1
205,89.1,1
210,95.29,1
34,102.27,1
154,107.78,1
66,111.79,1
148,114.73,1
88,116.9,1
99,118.19,1
247,119.66,1
75,122.32,1
59,124.08,1
87,123.66,1
142,122.36,1
240,122.35,1
122,124.41,1
194,127.46,1
47,130.16,1
236,132.25,1
95,134.53,1
246,137.35,1
189,141.36,1
203,146.53,1
154,151.8,1
156,156.3,1
102,159.26,1
104,160.1,1
59,158.54,1
206,155.68,1
51,152.68,1
31,148.19,1
58,141.34,1
144,133.88,1
111,127.56,1
47,121.96,1
92,116.14,1
171,111.2,1
268,109.53,1
36,110.73,1
194,112.38,1
223,115.25,1
184,120.4,1
280,127.47,1
271,136.98,1
232,148.32,1
333,160.83,1
300,174.88,1
441,191.07,1
322,209.4,1
289,227.72,1
178,243.03,1
212,253.77,1
211,260.31,1
338,264.73,1
244,268.69,1
251,271.72,1
270,273.45,1
236,274.22,1
197,273.53,1
208,270.93,1
193,266.69,1
338,262.37,1
151,258.84,1
118,253.9,1
53,245.45,1
139,233.99,1
36,220.63,1
121,205.97,1
90,191.1,1
86,176.71,1
104,162.99,1
136,150.72,1
70,140.11,1
94,130.47,1
97,121.78,1
104,114.38,1
102,108.33,1
82,103.38,1
104,99.25,1
120,96.21,1
33,93.83,1
182,91.96,1
159,92.07,1
116,94.17,1
34,96.16,1
40,96.37,1
32,94.58,1
226,92.83,1
90,93.15,1
175,95.08,1
34,97.31,1
296,100.23,1
55,104.72,1
77,108.66,1
114,110.76,1
172,112.64,1
34,114.41,1
88,114.7,1
185,114.41,1
271,116.38,1
50,120.42,1
80,123.25,1
52,123.54,1
88,121.94,1
154,119.86,1
39,117.91,1
177,115.92,1
58,114.3,1
89,112.45,1
100,110.12,1
122,108.1,1
340,108.6,1
65,112.51,1
102,116.48,1
365,120.87,1
101,127.86,1
186,135.15,1
100,140.96,1
205,145.61,1
76,149.18,1
177,151.39,1
109,152.54,1
223,153.47,1
317,156.29,1
60,160.81,1
48,162.96,1
120,161.56,1
104,158.43,1
100,154.37,1
264,150.87,1
107,149.28,1
62,147.59,1
33,143.67,1
56,137.49,1
154,130.75,1
35,124.61,1
34,117.98,1
78,110.57,1
98,103.67,1
83,97.94,1
247,94.55,1
127,94.61,1
75,96.26,1
170,98.02,1
71,100.13,1
242,102.98,1
166,107.67,1
71,112.98,1
147,117.05,1
108,120.19,1
67,122.16,1
158,122.94,1
57,123.12,1
91,122.19,1
49,119.85,1
68,116.26,1
40,111.57,1
94,106.34,1
34,101.02,1
107,95.87,1
191,92.39,1
139,91.85,1
261,94.39,1
88,99.35,1
261,105.58,1
66,112.39,1
55,117.57,1
101,119.93,1
231,121.8,1
127,124.87,1
196,128.69,1
265,133.79,1
40,139.57,1
249,144.26,1
290,149.86,1
151,157.22,1
41,162.86,1
364,166.7,1
144,171.62,1
37,175.39,1
116,175.29,1
116,172.64,1
276,170.09,1
413,171.38,1
168,177.13,1
180,183.31,1
162,187.66,1
311,191.5,1
223,196.38,1
127,200.89,1
101,202.49,1
72,200.4,1
39,194.59,1
44,185.42,1
228,175.29,1
239,167.89,1
53,162.97,1
105,157.58,1
86,151.19,1
35,143.93,1
82,135.66,1
200,128.19,1
412,125.6,1
273,130.11,1
328,139.78,1
233,152.06,1
141,164.08,1
174,173.51,1
52,179.45,1
210,182.1,1
95,182.82,1
297,183.08,1
35,183.22,1
284,182.66,1
377,184.26,1
229,189.78,1
298,197.03,1
74,203.45,1
383,208.47,1
477,216.22,1
441,229.57,1
272,245.52,1
178,259.14,1
199,267.82,1
243,272.39,1
574,277.25,1
207,284.94,1
161,290.87,1
116,291.16,1
284,287.42,1
78,281.44,1
249,273.32,1
442,266.53,1
240,263.84,1
68,261.26,1
336,256.58,1
124,251.7,1
253,246.59,1
53,240.24,1
498,234.55,1
184,232.62,1
178,232.07,1
144,229.66,1
174,225.57,1
559,223.66,1
74,226.03,1
120,227.21,1
97,224.05,1
173,218.33,1
406,213.77,1
291,213.71,1
66,215.29,1
242,214.89,1
158,213.36,1
42,210.13,1
66,203.34,1
34,193.24,1
216,182.09,1
321,174.08,1
364,172.26,1
304,176.25,1
245,183.44,1
292,191.8,1
325,201.31,1
279,211.92,1
241,222.25,1
98,229.87,1
127,232.8,1
175,231.73,1
204,228.93,1
281,226.37,1
290,225.65,1
193,226.33,1
383,228.1,1
135,230.92,1
142,232.03,1
74,229.34,1
145,223.37,1
310,217.03,1
142,212.51,1
244,208.97,1
138,205.73,1
122,201.79,1
108,196.2,1
139,189.44,1
46,181.65,1
69,172.24,1
118,161.93,1
382,154.4,1
95,151.58,1
41,149.48,1
138,145.59,1
158,141.75,1
44,138.27,1
132,134.19,1
33,129.5,1
240,125.28,1
209,123.85,1
149,125.3,1
243,128.42,1
111,132.69,1
249,137.43,1
172,142.92,1
188,148.81,1
217,154.68,1
204,160.83,1
127,166.39,1
126,169.98,1
76,170.87,1
169,169.63,1
38,166.84,1
237,163.21,1
137,160.41,1
294,159.61,1
57,160.17,1
160,160.01,1
214,159.49,1
244,160.67,1
383,165.16,1
38,171.74,1
176,176.32,1
186,178.77,1
71,179.85,1
178,178.94,1
149,177.11,1
62,174.33,1
36,169.06,1
130,161.7,1
34,153.51,1
336,146.63,1
168,143.73,1
100,143.12,1
158,142.28,1
153,141.64,1
256,142.4,1
45,144.13,1
230,145.44,1
128,146.85,1
75,147.72,1
77,146.45,1
128,143.63,1
178,140.97,1
72,138.88,1
56,135.84,1
90,131.34,1
161,126.86,1
107,123.54,1
146,121.23,1
354,121.65,1
183,126.45,1
77,132.47,1
108,136.36,1
124,138.28,1
300,140.59,1
90,144.39,1
184,147.99,1
210,151.35,1
138,155.02,1
207,158.41,1
381,163.44,1
223,171.64,1
98,179.83,1
32,183.89,1
232,184.2,1
82,183.14,1
60,180.09,1
66,174.09,1
34,165.7,1
86,155.71,1
69,145.28,1
187,135.94,1
163,129.34,1
105,125.12,1
161,122.19,1
62,119.95,1
124,117.67,1
59,115.11,1
112,112.29,1
46,109.17,1
176,106.33,1
127,104.99,1
114,104.96,1
107,105.29,1
117,105.73,1
171,106.79,1
304,110.34,1
128,116.85,1
260,124.66,1
133,132.91,1
236,141.07,1
109,148.5,1
128,154.06,1
44,156.61,1
197,156.83,1
37,155.75,1
223,153.88,1
250,153.42,1
228,155.8,1
249,160.31,1
158,165.72,1
140,170.19,1
107,172.49,1
34,171.78,1
156,168.35,1
47,163.46,1
32,156.71,1
314,149.93,1
169,146.62,1
39,144.96,1
479,144.87,1
148,149.41,1
330,157.01,1
81,164.91,1
187,171.09,1
88,174.64,1
175,176.04,1
142,176.1,1
151,175.37,1
132,173.8,1
51,170.74,1
49,165.15,1
162,158.05,1
82,151.21,1
393,146.93,1
124,146.94,1
32,147.65,1
123,145.93,1
107,142.99,1
85,139.54,1
177,136.07,1
414,135.96,1
48,140.02,1
184,144.2,1
85,146.77,1
91,147.57,1
51,145.98,1
212,143.3,1
336,143.19,1
32,145.89,1
113,147.37,1
219,147.58,1
39,147.74,1
197,147.07,1
259,147.41,1
65,149.21,1
39,149.21,1
194,147.1,1
261,146.29,1
79,147.39,1
238,148.77,1
224,151.32,1
130,154.99,1
165,158.02,1
102,159.77,1
134,159.99,1
103,158.8,1
158,156.78,1
31,153.8,1
126,149.35,1
135,144.5,1
79,139.98,1
95,135.12,1
72,129.81,1
195,125.06,1
33,121.4,1
91,117.53,1
78,113.13,1
152,109.35,1
333,108.73,1
105,112.22,1
89,116.36,1
87,118.74,1
53,119.27,1
312,119.89,1
68,122.53,1
110,125.1,1
182,126.8,1
235,129.74,1
258,135.15,1
235,142.9,1
169,151.44,1
63,158.2,1
105,161.44,1
344,163.68,1
401,169.76,1
321,180.81,1
171,193.21,1
258,203.85,1
88,211.64,1
244,216.21,1
143,218.5,1
239,219.4,1
140,219.13,1
243,217.99,1
161,216.44,1
126,213.84,1
78,208.9,1
286,202.95,1
136,198.21,1
160,193.99,1
46,188.56,1
194,181.91,1
448,178.1,1
223,180.1,1
35,183.31,1
106,183.05,1
40,179.22,1
212,173.71,1
46,168.01,1
32,160.94,1
191,152.77,1
124,145.94,1
70,140.14,1
82,133.98,1
194,128.41,1
67,124.35,1
105,120.74,1
57,116.77,1
161,113.04,1
61,110.09,1
221,108.36,1
130,108.68,1
152,110.53,1
85,112.56,1
146,114.26,1
92,115.65,1
209,117.32,1
234,120.84,1
64,125.62,1
120,129.09,1
266,132.17,1
535,139.89,1
224,153.91,1
140,168.71,1
192,180.16,1
113,188.2,1
279,193.88,1
80,198,1
170,199.65,1
123,198.84,1
127,196.16,1
137,191.93,1
184,187.22,1
149,182.86,1
78,178.15,1
99,172.05,1
53,164.5,1
183,156.54,1
113,149.72,1
106,143.84,1
37,137.63,1
80,130.53,1
31,122.74,1
102,114.79,1
106,107.78,1
55,101.93,1
36,96.22,1
71,90.34,1
161,85.68,1
59,83.02,1
103,81.39,1
152,80.9,1
162,82.51,1
58,85.41,1
97,87.89,1
210,90.68,1
92,94.79,1
161,99.36,1
195,104.57,1
186,111.11,1
197,118.69,1
296,127.72,1
131,137.93,1
188,147.29,1
226,155.59,1
174,163.47,1
81,169.48,1
212,173,1
118,175.13,1
232,176.58,1
99,177.48,1
107,176.76,1
147,174.21,1
216,171.62,1
94,169.54,1
136,166.83,1
95,163.09,1
45,157.96,1
227,152.26,1
136,148.13,1
46,144.6,1
106,139.92,1
41,134.24,1
90,127.82,1
91,121.3,1
122,115.59,1
66,110.75,1
129,106.57,1
213,104.29,1
40,104,1
54,103.22,1
76,101.1,1
94,98.64,1
119,96.66,1
47,95.1,1
40,92.88,1
52,89.62,1
91,86.13,1
238,84.51,1
54,85.59,1
73,87.03,1
293,89.3,1
313,96.01,1
164,106.82,1
54,117.24,1
75,124.18,1
51,127.52,1
89,128.07,1
182,127.67,1
141,128.04,1
338,130.69,1
138,136.21,1
75,141.59,1
189,144.96,1
284,148.81,1
32,153.32,1
195,156.18,1
41,157.06,1
182,156.34,1
130,155.05,1
273,154.84,1
279,157.4,1
336,163.73,1
58,171.42,1
165,176.72,1
140,179.3,1
196,180.64,1
160,181.42,1
54,180.75,1
78,177.15,1
76,170.98,1
195,164.18,1
271,159.66,1
392,160.19,1
38,164.27,1
35,166.13,1
63,163.52,1
349,160.36,1
454,162.6,1
135,170.35,1
314,179.16,1
142,187.39,1
210,194.14,1
182,199.02,1
192,202.49,1
121,204.14,1
103,203.12,1
331,201.09,1
259,201.32,1
256,203.93,1
260,207.66,1
284,212.37,1
344,218.58,1
34,224.39,1
72,225.44,1
302,222.8,1
355,221.92,1
356,225.14,1
82,229.62,1
77,230.43,1
34,225.7,1
294,218.34,1
31,210.95,1
207,203.03,1
127,195.05,1
118,187.32,1
88,179.02,1
88,169.99,1
35,160,1
47,148.87,1
248,138.61,1
215,132.44,1
69,129.51,1
58,126.42,1
56,121.9,1
99,116.67,1
216,112.71,1
278,112.6,1
91,115.88,1
184,119.84,1
149,123.9,1
160,128.18,1
334,133.81,1
312,143,1
161,154.44,1
129,164.33,1
303,172.39,1
450,182.55,1
355,197.03,1
244,213.06,1
127,226.22,1
67,233.48,1
402,236.81,1
319,241.32,1
526,249.62,1
205,260.67,1
104,269.06,1
353,272.95,1
72,274.2,1
313,272.83,1
405,271.87,1
130,272.48,1
109,270.38,1
375,265.86,1
279,263.04,1
490,263.91,1
576,270.88,1
51,281.16,1
90,286.11,1
195,284.02,1
281,279.39,1
372,275.95,1
78,273.33,1
280,269.01,1
294,264.54,1
361,262.53,1
323,263.36,1
116,264.56,1
97,262.18,1
71,254.93,1
310,245.59,1
46,236.47,1
56,225.57,1
108,212.09,1
100,197.95,1
282,185.54,1
76,176.07,1
221,168.46,1
85,162.08,1
109,156.02,1
35,149.08,1
433,143.93,1
201,144.27,1
235,148.53,1
48,152.78,1
133,154.84,1
62,154.41,1
382,154.27,1
238,157.78,1
140,163.43,1
252,168.68,1
74,173.03,1
286,176.29,1
258,180.4,1
117,185.13,1
321,189.32,1
72,193.11,1
127,194.54,1
168,193.33,1
219,191.66,1
225,190.92,1
161,190.9,1
56,189.58,1
512,188.79,1
653,196.12,1
88,210.79,1
66,222.38,1
34,226.07,1
184,224.1,1
142,219.74,1
194,214.65,1
112,209.02,1
279,203.6,1
49,198.69,1
217,193.32,1
124,187.88,1
271,183.61,1
281,182.09,1
145,182.96,1
117,183.26,1
193,182.18,1
121,180.51,1
176,178.33,1
115,175.65,1
136,172.31,1
397,170.53,1
251,173.24,1
125,178,1
188,181.44,1
184,183.73,1
65,184.55,1
320,184.32,1
86,184.59,1
66,183.32,1
216,179.91,1
318,178.1,1
274,180.09,1
112,183.69,1
182,185.99,1
203,187.21,1
217,188.59,1
151,189.92,1
160,190.28,1
112,189.1,1
101,186.01,1
78,180.78,1
44,173.38,1
104,164.29,1
116,155.02,1
42,145.98,1
36,136.28,1
156,126.65,1
334,120.74,1
147,120.2,1
34,121.26,1
98,120.68,1
161,119.48,1
31,118.36,1
50,115.87,1
68,111.83,1
152,107.86,1
69,104.91,1
241,103.58,1
240,105.62,1
104,110.43,1
254,116.21,1
127,122.85,1
257,130.13,1
110,137.55,1
236,144.52,1
142,151.02,1
180,156.75,1
158,161.39,1
106,164.56,1
112,165.55,1
179,165.06,1
140,164.27,1
316,164.63,1
415,169.21,1
123,177.52,1
116,184.4,1
79,187.16,1
71,186,1
195,182.44,1
187,179.06,1
329,177.96,1
121,179.2,1
40,179.28,1
76,175.75,1
77,169.55,1
214,162.92,1
89,157.4,1
46,151.64,1
32,144.04,1
36,134.75,1
56,124.6,1
188,115.55,1
37,108.71,1
189,103.64,1
69,100.33,1
163,98.53,1
115,98.11,1
203,99.43,1
108,102.33,1
56,105.06,1
175,106.95,1
74,108.81,1
135,110.41,1
169,112.21,1
199,115.39,1
245,120.66,1
88,127.08,1
268,133.43,1
214,140.73,1
264,149.53,1
176,158.84,1
277,168.02,1
159,176.78,1
272,184.75,1
92,191.28,1
145,194.92,1
248,196.47,1
54,196.92,1
69,194.33,1
228,189.44,1
149,185.03,1
209,181.63,1
154,178.99,1
271,177.57,1
242,178.36,1
33,179.56,1
73,177.75,1
121,173.01,1
82,167.02,1
145,160.51,1
85,154.05,1
132,147.76,1
97,141.78,1
42,135.62,1
69,128.54,1
152,121.66,1
106,116.36,1
156,112.76,1
158,111.04,1
51,110.37,1
76,108.99,1
140,107.2,1
386,108.36,1
167,114.51,1
186,122.83,1
154,130.81,1
134,137.73,1
171,143.36,1
243,148.82,1
174,154.9,1
362,162.24,1
65,170.39,1
199,176.68,1
147,180.69,1
152,183.11,1
47,183.04,1
150,180.25,1
126,176.11,1
147,171.7,1
111,167.07,1
106,161.97,1
88,156.15,1
64,149.45,1
70,141.82,1
105,133.91,1
132,126.87,1
131,121.45,1
44,116.93,1
35,111.75,1
228,106.96,1
180,105.29,1
60,105.87,1
64,105.82,1
51,104.29,1
169,102.45,1
243,102.88,1
51,105.59,1
224,108.85,1
200,113.47,1
405,121.65,1
96,132.93,1
168,143.42,1
166,151.6,1
161,158.28,1
40,162.52,1
204,164.08,1
236,165.49,1
32,166.94,1
215,166.8,1
108,165.9,1
132,164.4,1
152,162.17,1
171,160.13,1
306,159.87,1
123,161.84,1
89,163.29,1
90,162.27,1
245,160.39,1
130,159.51,1
168,159.12,1
306,159.94,1
298,164.11,1
314,171.84,1
166,181.02,1
49,187.77,1
184,190.44,1
47,190.05,1
326,188.48,1
96,187.62,1
105,185.93,1
46,181.44,1
43,174.07,1
198,165.47,1
579,161.81,1
189,166.29,1
34,172.37,1
179,174.95,1
127,175.44,1
206,175.3,1
157,175.16,1
94,174.34,1
274,173.07,1
127,172.73,1
219,172.93,1
155,173.31,1
223,174.07,1
111,174.79,1
48,173.66,1
383,171.95,1
94,172.44,1
256,173.94,1
140,175.49,1
363,178.27,1
233,183.53,1
232,190.19,1
144,195.91,1
154,199.38,1
222,201.02,1
514,204.78,1
96,211.91,1
123,217.19,1
121,217.93,1
187,215.88,1
210,213.04,1
254,210.94,1
54,208.76,1
55,203.7,1
85,195.25,1
139,185.42,1
335,177.57,1
192,173.97,1
154,172.65,1
176,171.54,1
474,173.09,1
106,178.64,1
45,182.99,1
61,182.43,1
171,178.83,1
98,174.35,1
262,170.38,1
177,168.31,1
284,168.59,1
228,171.22,1
231,175.55,1
206,180.43,1
33,183.76,1
133,183.62,1
348,182.81,1
347,185.81,1
287,192.85,1
255,201.5,1
187,209.55,1
123,214.98,1
187,217.16,1
90,216.53,1
178,213.44,1
46,208.14,1
144,200.71,1
169,192.61,1
203,185.74,1
118,180.1,1
196,175.11,1
117,170.72,1
201,166.95,1
149,164.08,1
233,162.51,1
116,161.97,1
292,162.44,1
38,163.52,1
130,163.06,1
80,160.49,1
48,156.06,1
82,149.7,1
64,142.23,1
45,133.99,1
34,124.87,1
91,115.52,1
54,106.85,1
37,98.68,1
395,93.49,1
85,93.93,1
112,96.72,1
59,98.68,1
34,99.12,1
175,98.69,1
147,99.47,1
134,101.73,1
324,106.16,1
136,113.53,1
104,121.14,1
39,126.09,1
41,127.56,1
217,127.28,1
60,127.28,1
238,127.81,1
42,128.76,1
77,128.55,1
329,128.48,1
231,132.1,1
127,138.02,1
389,145.17,1
171,154.64,1
136,163.88,1
269,171.38,1
130,178.06,1
312,184.19,1
477,192.89,1
533,207.85,1
306,227.53,1
48,244.82,1
170,254.67,1
411,260.4,1
588,269.14,1
62,280.47,1
162,287.09,1
218,287.7,1
106,284.54,1
160,277.67,1
37,267.18,1
213,254.15,1
124,240.73,1
43,226.77,1
91,211.21,1
66,194.87,1
138,179.02,1
174,165.32,1
112,154.36,1
325,146.88,1
71,143.18,1
226,141.34,1
314,142.15,1
93,145.85,1
550,152.45,1
300,164.68,1
92,178.72,1
379,190.62,1
204,202.06,1
389,213.77,1
53,224.15,1
422,232.22,1
383,241.24,1
264,252.07,1
125,260.56,1
143,263.88,1
69,261.74,1
179,255.29,1
296,247.94,1
265,242.7,1
202,239.17,1
305,236.63,1
112,234.51,1
110,230.46,1
246,224.57,1
217,219.44,1
38,214.23,1
106,206.53,1
96,196.78,1
67,185.91,1
71,174.02,1
180,162.46,1
130,152.92,1
67,144.81,1
45,136.43,1
35,127.17,1
68,117.44,1
85,108.3,1
174,101.16,1
35,96.24,1
333,94.06,1
85,95.74,1
355,100.89,1
134,109.1,1
277,119.12,1
99,129.29,1
229,138.55,1
88,146.34,1
270,153.01,1
117,159.17,1
86,163.46,1
74,164.38,1
308,164.14,1
165,165.57,1
240,168.41,1
100,171.16,1
431,174.76,1
148,180.84,1
129,186.55,1
173,189.53,1
187,191.01,1
192,191.94,1
175,192.47,1
234,192.92,1
109,193.11,1
40,190.95,1
204,186.29,1
137,181.43,1
80,176.37,1
123,170.19,1
183,164.08,1
76,158.69,1
61,152.64,1
101,145.49,1
62,137.96,1
164,130.9,1
46,124.81,1
236,120.11,1
137,117.94,1
76,117.22,1
107,116.08,1
232,115.68,1
138,117.38,1
340,121.75,1
40,128.08,1
313,134.7,1
84,141.46,1
70,146.5,1
361,150.32,1
304,157.25,1
228,167.15,1
431,178.93,1
182,192.43,1
497,206.96,1
109,221.74,1
355,234.49,1
355,246.12,1
61,256.13,1
303,261.76,1
239,264.91,1
214,266.78,1
68,265.51,1
41,259.08,1
446,250.61,1
37,243.89,1
50,235.44,1
217,224.23,1
145,213.52,1
144,203.71,1
276,195.37,1
61,188.83,1
354,183.82,1
279,182.53,1
42,183.38,1
204,182.67,1
155,181.11,1
155,179.46,1
110,177.05,1
371,175.52,1
214,177.32,1
142,180.58,1
36,181.52,1
42,178.44,1
67,171.81,1
470,166.44,1
146,166.31,1
202,168.64,1
31,169.64,1
167,168.41,1
167,166.32,1
174,164.8,1
275,164.72,1
209,166.87,1
468,172.54,1
232,182.42,1
370,194.61,1
284,207.78,1
237,220.61,1
226,231.2,1
111,238.27,1
331,242.23,1
181,245.12,1
269,247.18,1
267,248.72,1
506,252.46,1
140,258.65,1
180,262.82,1
64,262.02,1
212,257.13,1
102,249.85,1
217,241.32,1
122,232.32,1
127,222.7,1
33,211.44,1
59,198.05,1
94,183.41,1
112,169.21,1
74,156.08,1
159,144.41,1
124,135.02,1
66,127.33,1
86,120.1,1
364,115.58,1
146,116.17,1
43,118.53,1
82,119.03,1
75,117.81,1
485,118.88,1
367,127.29,1
309,141.95,1
125,157.53,1
296,171.23,1
46,182.3,1
98,188.77,1
244,191.52,1
120,193.12,1
134,193.08,1
224,191.75,1
170,190.61,1
230,190,1
156,189.75,1
198,189.4,1
69,188.03,1
95,184.37,1
80,178.35,1
271,172.24,1
264,169.19,1
190,169.4,1
84,169.97,1
214,169.53,1
111,168.74,1
162,167.52,1
166,166.03,1
255,165.58,1
35,165.63,1
154,164.19,1
64,161.04,1
100,156.52,1
78,150.76,1
76,144.17,1
126,137.36,1
90,131.1,1
36,124.85,1
86,118.04,1
402,113.97,1
173,115.79,1
134,120.59,1
82,124.57,1
112,126.89,1
42,127.37,1
248,127.2,1
237,129.24,1
162,133.79,1
122,138.45,1
132,141.88,1
95,143.78,1
105,144.03,1
79,142.65,1
253,141.16,1
136,141.3,1
227,142.92,1
149,145.51,1
136,148.13,1
63,149.25,1
246,149.37,1
242,151.1,1
179,154.88,1
66,158.14,1
268,160.19,1
127,162.46,1
185,164.66,1
248,167.03,1
227,170.79,1
60,174.3,1
149,175.35,1
194,174.93,1
169,174.66,1
199,174.73,1
229,175.56,1
65,176.36,1
44,174.5,1
127,169.69,1
130,163.98,1
42,157.79,1
109,150.57,1
136,143.39,1
92,137.1,1
106,131.32,1
31,125.37,1
130,119.19,1
136,114.07,1
193,111.31,1
143,110.99,1
159,112.33,1
46,113.81,1
106,114.15,1
121,113.78,1
93,113.38,1
48,112.27,1
127,110.35,1
54,108.2,1
245,106.94,1
219,108.71,1
203,113.71,1
430,122.42,1
362,136.63,1
486,156.32,1
200,178.7,1
252,199.19,1
49,214.45,1
201,223.59,1
307,229.45,1
233,234.96,1
142,238.96,1
92,239.18,1
496,238.24,1
705,244.31,1
349,259.34,1
129,274.82,1
82,283.29,1
35,283.18,1
140,276.28,1
737,270.59,1
199,272.21,1
187,275.35,1
377,276.51,1
123,277.06,1
96,274.3,1
472,269.69,1
114,266.79,1
217,263.36,1
260,258.75,1
99,253.62,1
91,245.92,1
129,235.41,1
241,224.54,1
307,216.41,1
59,210.61,1
37,203.09,1
166,193.19,1
189,183.89,1
82,175.92,1
235,168.91,1
271,164.78,1
138,163.71,1
343,164.81,1
269,169.16,1
400,177.38,1
90,187.3,1
104,194.32,1
304,198.25,1
362,203.52,1
217,211.05,1
32,216.66,1
40,216.48,1
48,210.62,1
213,202.14,1
266,195.12,1
71,190.06,1
65,183.87,1
275,177.05,1
88,171.81,1
142,167.05,1
80,161.67,1
103,155.61,1
74,148.86,1
215,142.66,1
88,138.12,1
202,134.99,1
169,133.59,1
39,132.88,1
34,130.3,1
78,125.61,1
157,120.78,1
89,117.09,1
252,115.23,1
230,116.76,1
136,121.02,1
53,124.85,1
152,126.9,1
31,127.49,1
167,126.9,1
257,127.37,1
122,130.12,1
151,133.29,1
162,136.13,1
35,138.02,1
243,138.82,1
94,139.92,1
171,141.11,1
202,142.6,1
194,145.36,1
105,148.39,1
114,150.08,1
242,151.16,1
246,153.92,1
168,158.35,1
170,162.68,1
146,166.02,1
42,167.24,1
53,165.04,1
156,160.48,1
110,155.65,1
145,151.14,1
93,146.8,1
106,142.27,1
78,137.31,1
222,133,1
42,129.98,1
163,127.26,1
62,124.55,1
118,121.73,1
174,119.45,1
69,118.19,1
76,116.53,1
46,113.65,1
163,110.45,1
39,107.76,1
107,105.04,1
70,102.17,1
240,100.63,1
127,101.67,1
179,104.63,1
135,108.53,1
135,112.71,1
191,117.08,1
41,121.13,1
102,123.34,1
232,124.88,1
183,128.08,1
290,133.6,1
94,140.41,1
143,146.09,1
162,150.07,1
218,153.78,1
76,157.09,1
137,158.63,1
56,157.95,1
298,156.75,1
257,158.11,1
204,162.29,1
309,168.12,1
127,174.81,1
127,179.83,1
375,183.95,1
123,189.25,1
151,193.41,1
88,194.46,1
146,192.78,1
69,188.9,1
207,183.78,1
31,178.09,1
79,170.79,1
51,161.61,1
103,151.69,1
34,141.55,1
110,131.52,1
82,122.33,1
34,113.86,1
238,106.86,1
47,102.58,1
171,100.08,1
31,98.33,1
205,97.37,1
47,97.43,1
233,98.64,1
195,102.1,1
137,107.6,1
41,112.44,1
475,118.1,1
35,126.93,1
242,135.92,1
302,145.03,1
266,156.3,1
32,166.83,1
382,175.22,1
135,183.49,1
243,191.09,1
215,197.46,1
91,202.11,1
68,202.87,1
264,200.83,1
238,199.53,1
72,198.65,1
179,196.09,1
102,192.08,1
207,187.58,1
77,182.87,1
97,177.07,1
60,169.59,1
127,161.18,1
66,152.61,1
99,144.04,1
340,137.73,1
162,136.1,1
323,138.45,1
165,143.65,1
71,148.83,1
80,151.09,1
34,150.06,1
36,145.89,1
216,140.57,1
104,136.61,1
77,133.22,1
100,129.22,1
138,125.34,1
154,122.62,1
215,121.93,1
288,124.52,1
38,129.19,1
142,132.66,1
35,133.88,1
159,133.47,1
266,133.86,1
213,137.14,1
140,141.93,1
299,147.41,1
96,153.58,1
305,159.75,1
111,165.89,1
217,171.23,1
154,175.41,1
262,179.28,1
495,185.95,1
79,195.79,1
103,203.07,1
288,206.66,1
68,208.75,1
159,208.29,1
92,205.06,1
170,200.11,1
135,194.44,1
96,188.15,1
121,180.89,1
259,174.33,1
116,169.8,1
84,165.51,1
61,159.66,1
108,152.55,1
77,145.06,1
67,137.32,1
109,129.56,1
108,122.62,1
187,117.51,1
160,115.01,1
127,114.52,1
116,114.74,1
173,115.5,1
42,116.42,1
338,118.17,1
481,125.39,1
76,138.01,1
185,149.79,1
63,158.04,1
134,162.79,1
294,166.2,1
173,170.67,1
71,174.3,1
222,175.76,1
204,177,1
126,178.34,1
285,179.58,1
107,181.22,1
312,183.17,1
253,186.69,1
282,192.25,1
156,198.14,1
311,203.55,1
221,209.17,1
220,214.56,1
50,217.48,1
81,215.88,1
49,209.74,1
212,201.43,1
82,193.05,1
79,184.1,1
39,173.56,1
149,162.38,1
89,152.04,1
133,142.97,1
203,135.95,1
50,130.96,1
40,125.69,1
108,119.52,1
68,113.56,1
230,109.18,1
102,107.4,1
127,107.13,1
55,106.77,1
32,105.22,1
169,102.95,1
178,102.33,1
44,103.16,1
172,104,1
39,104.72,1
331,106.59,1
177,111.69,1
291,119.87,1
57,128.85,1
99,135.6,1
312,140.94,1
128,147.34,1
196,153.63,1
452,161.35,1
274,173.14,1
36,184.91,1
200,192.31,1
57,195.7,1
143,195.62,1
300,194.43,1
37,193.55,1
191,191.18,1
124,187.56,1
117,183.23,1
43,177.24,1
171,169.94,1
194,163.57,1
97,158.72,1
164,154.36,1
46,149.85,1
164,144.95,1
127,140.58,1
81,136.73,1
50,132.1,1
98,126.55,1
116,121.15,1
42,116.12,1
166,111.49,1
60,107.87,1
32,104.19,1
117,99.95,1
203,97.29,1
97,97.13,1
186,98.59,1
106,101.17,1
87,103.8,1
100,105.5,1
66,106.25,1
64,105.76,1
125,104.55,1
118,103.73,1
62,103.17,1
59,101.84,1
138,100.1,1
137,99.35,1
97,99.69,1
71,99.97,1
94,99.65,1
37,98.56,1
211,97.61,1
132,98.53,1
93,100.63,1
71,102.12,1
126,102.87,1
60,103.21,1
65,102.64,1
100,101.23,1
134,100.1,1
132,100.05,1
127,101.03,1
87,102.34,1
183,103.94,1
38,105.77,1
167,107.19,1
114,108.74,1
56,110.05,1
55,109.75,1
71,107.88,1
310,107.07,1
96,109.4,1
72,112.27,1
116,113.7,1
41,113.9,1
53,112.4,1
35,109.06,1
179,105.43,1
129,103.47,1
120,103.15,1
240,104.5,1
52,107.43,1
38,109.27,1
36,108.45,1
167,106.55,1
159,105.94,1
37,106.28,1
47,105.35,1
197,103.88,1
118,103.93,1
36,104.4,1
121,103.89,1
34,102.66,1
123,100.92,1
102,99.42,1
211,99.42,1
161,101.77,1
133,105.67,1
52,109.09,1
64,110.6,1
140,110.76,1
186,111.6,1
86,113.47,1
123,115.11,1
176,116.75,1
58,118.54,1
91,119.16,1
48,118.09,1
148,116.16,1
63,114.22,1
135,112.35,1
55,110.43,1
33,107.63,1
47,103.37,1
34,98.08,1
37,92.1,1
228,87.28,1
386,87.93,1
44,94.04,1
47,99.87,1
71,102.75,1
56,103.61,1
73,102.97,1
31,101.03,1
38,97.67,1
137,93.92,1
32,90.81,1
166,88.47,1
50,87.18,1
237,87.45,1
191,90.62,1
58,95.59,1
109,99.66,1
275,103.99,1
345,112.06,1
188,123.95,1
169,136.22,1
154,146.66,1
162,155.04,1
314,162.82,1
178,171.32,1
90,178.39,1
92,181.65,1
129,181.51,1
221,180.14,1
107,178.75,1
138,176.53,1
178,173.66,1
138,170.97,1
171,168.43,1
119,165.9,1
109,162.78,1
202,159.49,1
337,158.71,1
174,161.47,1
134,164.99,1
156,167.16,1
63,167.52,1
41,164.97,1
55,159.3,1
123,152.03,1
58,144.46,1
187,137.46,1
122,132.16,1
188,128.86,1
83,126.88,1
155,125.38,1
221,125.15,1
107,126.64,1
107,128.06,1
210,129.29,1
58,130.79,1
49,130.72,1
70,128.26,1
99,124.55,1
99,120.67,1
98,116.99,1
209,114.48,1
203,114.7,1
46,116.51,1
44,116.85,1
48,114.79,1
115,111.56,1
32,108,1
122,104.22,1
57,100.65,1
39,96.91,1
136,93.1,1
96,90.49,1
191,89.77,1
34,90.46,1
82,90.83,1
127,90.79,1
74,91.14,1
115,91.62,1
78,92.11,1
78,92.32,1
34,91.66,1
176,90.79,1
79,90.95,1
178,92.29,1
184,95.33,1
81,99.66,1
40,102.85,1
46,103.63,1
94,102.69,1
220,102.32,1
97,103.85,1
91,105.75,1
87,106.74,1
113,107.09,1
102,107.25,1
164,107.79,1
54,108.64,1
44,108.32,1
189,107.25,1
43,106.73,1
211,106.81,1
132,108.25,1
184,111.2,1
407,117.18,1
135,127.16,1
32,136.38,1
266,142.75,1
60,148.03,1
110,151.27,1
199,152.72,1
155,154.25,1
56,154.98,1
195,154.27,1
34,152.61,1
244,150.5,1
52,148.67,1
46,145.64,1
118,140.74,1
230,136.58,1
178,135.12,1
79,135.01,1
221,135.07,1
253,137.02,1
292,142.32,1
252,150.57,1
282,160.73,1
138,171,1
122,178.8,1
210,183.73,1
40,186.25,1
65,185.01,1
183,180.91,1
133,176.49,1
160,172.34,1
106,168.11,1
74,163.06,1
84,156.66,1
269,150.84,1
459,150.31,1
386,157.77,1
764,174.52,1
217,198.95,1
316,223.4,1
160,242.97,1
505,259.26,1
297,275.15,1
178,288.69,1
212,296.66,1
63,298.48,1
205,294.59,1
303,288.36,1
131,281.9,1
463,276.17,1
169,272.78,1
144,269.02,1
254,263.17,1
107,256.34,1
127,247.63,1
81,236.53,1
134,223.83,1
154,210.97,1
206,199.58,1
45,189.38,1
49,178.27,1
113,166.09,1
157,154.93,1
550,149.31,1
134,151.51,1
35,155.19,1
287,156.95,1
302,160.59,1
82,166.05,1
175,170.02,1
399,174.27,1
317,182.35,1
198,192.56,1
163,201.2,1
73,206.1,1
52,206.06,1
88,201.49,1
76,193.93,1
64,184.34,1
113,173.62,1
92,162.91,1
159,153.16,1
125,145.1,1
49,137.96,1
42,130.2,1
111,122.03,1
137,115.09,1
49,109.59,1
118,104.71,1
116,100.84,1
277,99.72,1
99,101.88,1
34,104.35,1
216,105.95,1
278,109.77,1
171,116.78,1
42,123.71,1
258,129.13,1
42,133.95,1
70,136.6,1
49,136.05,1
42,132.93,1
77,127.92,1
48,121.94,1
91,115.57,1
197,110.43,1
36,107.16,1
61,103.86,1
179,100.71,1
226,100.29,1
98,102.63,1
67,105.06,1
70,105.94,1
55,105.31,1
36,103.16,1
44,99.54,1
107,95.43,1
110,92.18,1
59,89.85,1
51,87.42,1
50,84.44,1
159,81.94,1
67,80.91,1
120,80.85,1
183,82.16,1
160,85.73,1
171,91.14,1
35,96.66,1
46,100.06,1
59,100.91,1
62,100.11,1
36,98.02,1
107,95.21,1
82,92.66,1
36,90.21,1
100,87.48,1
48,84.86,1
62,82.2,1
149,80.11,1
111,79.74,1
181,81.35,1
79,84.43,1
77,87.41,1
70,89.3,1
76,90.22,1
48,90.18,1
34,88.89,1
85,86.65,1
114,84.71,1
34,83.3,1
55,81.45,1
41,78.89,1
47,75.87,1
75,72.81,1
114,70.65,1
106,70.02,1
77,70.54,1
142,71.91,1
71,74.13,1
160,77.02,1
80,80.54,1
53,83.64,1
36,85.09,1
33,84.71,1
158,83.78,1
180,84.64,1
61,87.27,1
144,90.06,1
125,93.1,1
139,96.73,1
57,100.09,1
165,102.79,1
170,106.04,1
85,109.86,1
114,112.89,1
112,114.98,1
203,117.23,1
286,121.68,1
149,128.61,1
80,135.11,1
50,138.59,1
103,139.04,1
96,137.72,1
187,136.16,1
32,134.62,1
130,132.17,1
134,129.47,1
91,127.18,1
42,124.21,1
33,119.6,1
33,113.36,1
48,106.11,1
72,98.76,1
37,91.82,1
112,85.64,1
90,81.01,1
57,77.68,1
34,74.55,1
90,71.49,1
49,68.97,1
37,66.64,1
94,64.46,1
68,63.09,1
136,62.97,1
414,66.95,1
185,77.16,1
127,89.82,1
226,101.96,1
52,113.02,1
84,121.14,1
134,126.26,1
148,130.12,1
233,134.23,1
142,139.15,1
158,143.85,1
186,147.99,1
380,153.74,1
352,163.68,1
42,175.09,1
222,183.43,1
57,188.25,1
355,191.4,1
192,195.39,1
112,198.99,1
152,199.87,1
92,198.17,1
261,195.27,1
31,191.95,1
308,188.31,1
72,185.26,1
127,181.62,1
56,176.04,1
36,168.3,1
127,159.01,1
66,149.65,1
32,140.02,1
127,130.2,1
116,121.76,1
33,114.56,1
134,107.92,1
314,104.35,1
41,104.82,1
34,105.27,1
84,103.76,1
43,101.22,1
44,97.73,1
94,93.73,1
273,91.74,1
151,93.67,1
155,98.01,1
213,103.62,1
83,109.92,1
193,115.8,1
200,121.95,1
65,128.02,1
55,131.61,1
60,131.96,1
68,129.9,1
111,126.6,1
84,123.01,1
122,119.54,1
76,116.29,1
52,112.67,1
52,108.15,1
48,102.84,1
68,97.21,1
149,92.47,1
54,89.26,1
63,86.52,1
147,84.27,1
199,84.35,1
92,86.84,1
67,89.58,1
59,91.07,1
31,91,1
57,89.43,1
100,87.32,1
222,86.77,1
142,89.11,1
82,92.76,1
87,95.73,1
51,97.37,1
61,97.49,1
65,96.34,1
35,94.18,1
66,91.1,1
155,88.42,1
122,87.54,1
151,88.5,1
59,90.27,1
73,91.47,1
231,92.96,1
257,97.51,1
212,105.57,1
225,115.64,1
196,126.53,1
249,137.75,1
124,148.47,1
254,157.91,1
142,166.26,1
208,173.28,1
102,178.35,1
106,180.62,1
162,180.35,1
169,179.15,1
108,177.35,1
34,173.61,1
176,167.98,1
42,161.71,1
124,154.8,1
104,147.7,1
156,141.46,1
67,136.03,1
79,130.48,1
37,124.13,1
40,116.83,1
98,109.22,1
34,102.06,1
56,95.09,1
82,88.55,1
37,82.77,1
54,77.38,1
45,72.31,1
120,68.24,1
86,65.93,1
35,64.69,1
66,63.45,1
74,62.39,1
81,61.96,1
99,62.34,1
138,63.98,1
31,66.46,1
74,68.41,1
105,69.98,1
117,72.16,1
206,75.9,1
60,81.07,1
191,86.58,1
101,92.37,1
205,98.65,1
144,105.54,1
31,111.61,1
45,114.65,1
68,114.78,1
60,113.11,1
35,109.97,1
36,105.33,1
135,100.35,1
124,96.78,1
72,94.62,1
62,92.57,1
91,90.34,1
51,88.1,1
83,85.77,1
37,83.27,1
152,81.17,1
119,80.68,1
150,82.07,1
47,84.25,1
93,85.91,1
164,87.61,1
30,89.72,1
66,90.76,1
330,92.61,1
130,97.97,1
101,104.47,1
45,109.1,1
88,111.35,1
33,111.5,1
66,109.79,1
81,106.91,1
163,104.42,1
189,103.98,1
43,105.01,1
150,105.84,1
146,107,1
100,108.82,1
96,110.25,1
103,110.97,1
156,111.63,1
148,113.08,1
192,115.74,1
106,119.2,1
69,121.81,1
57,122.27,1
38,120.45,1
182,117.72,1
74,115.67,1
142,114.19,1
430,115.76,1
101,122.15,1
123,129.18,1
121,134.14,1
45,136.89,1
35,136.55,1
32,133.05,1
182,128.34,1
96,124.57,1
64,121.21,1
32,116.8,1
85,111.38,1
61,105.76,1
45,100.09,1
112,94.66,1
63,90.14,1
92,86.45,1
33,83.1,1
59,79.61,1
55,76.04,1
38,72.53,1
94,69.33,1
106,67.33,1
229,67.96,1
31,71.07,1
39,73.82,1
86,75.09,1
149,76.54,1
39,78.59,1
148,80.65,1
185,83.83,1
139,88.86,1
161,94.86,1
127,101.13,1
77,106.62,1
124,110.63,1
75,113.33,1
62,114.44,1
33,113.46,1
53,110.49,1
207,107.44,1
143,106.58,1
102,107.29,1
148,108.37,1
126,109.93,1
102,111.62,1
46,112.34,1
94,111.57,1
70,109.84,1
33,107.11,1
229,104.52,1
66,103.68,1
75,103.21,1
127,102.29,1
56,101.39,1
103,100.19,1
49,98.54,1
82,96.39,1
114,94.27,1
150,93.33,1
112,93.86,1
37,94.55,1
31,93.76,1
51,91.33,1
108,88.48,1
32,85.86,1
127,83.5,1
108,82.19,1
135,82.4,1
139,84.09,1
101,86.82,1
138,89.97,1
50,92.91,1
205,95.74,1
91,99.25,1
48,102.24,1
211,104.43,1
118,107.48,1
128,110.98,1
341,115.85,1
68,122.93,1
48,128.6,1
61,130.55,1
51,129.6,1
251,128.03,1
69,127.73,1
115,127.45,1
139,126.65,1
69,125.67,1
53,123.53,1
41,119.65,1
77,114.52,1
100,109.29,1
37,104.3,1
101,99.34,1
87,94.99,1
33,91.08,1
38,86.7,1
56,81.89,1
43,77.13,1
92,72.9,1
59,69.63,1
57,67.05,1
174,65.72,1
33,66.13,1
111,67.14,1
212,69.53,1
68,74,1
83,78.5,1
239,83.22,1
136,89.77,1
82,96.66,1
61,101.71,1
72,104.5,1
39,105.21,1
37,103.85,1
320,102.96,1
114,105.37,1
119,109.21,1
137,112.56,1
88,115.36,1
101,117.1,1
163,118.31,1
143,120.01,1
74,121.66,1
54,121.75,1
70,119.91,1
36,116.48,1
34,111.51,1
60,105.43,1
34,98.9,1
78,92.38,1
41,86.29,1
64,80.66,1
33,75.4,1
48,70.38,1
43,65.67,1
72,61.62,1
314,60.59,1
45,63.91,1
35,67.92,1
33,69.97,1
129,71.13,1
160,73.36,1
47,76.71,1
75,79.44,1
188,82.07,1
82,85.73,1
79,89.24,1
93,91.72,1
42,93.12,1
242,94.57,1
163,98.19,1
77,103,1
34,106.16,1
130,107.36,1
73,107.76,1
154,108.06,1
121,108.85,1
92,109.88,1
108,110.45,1
72,110.38,1
146,109.97,1
114,109.97,1
34,109.71,1
142,108.58,1
42,107.11,1
70,104.91,1
103,102.15,1
45,99.33,1
36,95.82,1
49,91.37,1
114,87.03,1
41,83.48,1
53,80.09,1
43,76.45,1
67,72.86,1
73,69.79,1
62,67.42,1
38,65.33,1
88,63.45,1
55,62.14,1
43,61.09,1
107,60.31,1
67,60.39,1
73,61.04,1
79,61.93,1
106,63.33,1
225,66.52,1
120,72.3,1
268,80.31,1
94,89.91,1
32,98.26,1
177,104.16,1
102,109.23,1
219,114.42,1
166,120.4,1
79,126.16,1
123,130.07,1
114,132.4,1
244,134.7,1
169,138.36,1
193,142.95,1
253,148.36,1
123,154.34,1
34,158.2,1
107,158.4,1
66,155.94,1
316,153.51,1
88,153.07,1
35,152.03,1
194,149.15,1
66,146.09,1
74,142.26,1
70,137.03,1
57,130.78,1
66,123.81,1
53,116.43,1
97,109.21,1
45,102.54,1
170,97.02,1
31,93.04,1
69,89.44,1
86,85.86,1
123,83.29,1
88,82.05,1
110,81.76,1
31,81.63,1
172,81.68,1
91,82.84,1
129,84.96,1
70,87.22,1
129,89.34,1
62,91.23,1
40,92.07,1
83,91.56,1
50,90.26,1
113,88.74,1
73,87.54,1
113,86.8,1
41,86.18,1
72,85.08,1
294,85.37,1
146,89.35,1
63,94.75,1
124,99,1
85,102.24,1
114,104.7,1
191,107.27,1
178,111.21,1
107,115.91,1
234,120.81,1
189,126.83,1
50,132.66,1
108,136.03,1
130,137.39,1
47,137.34,1
127,135.68,1
73,133.04,1
67,129.48,1
35,124.52,1
85,118.5,1
180,113.19,1
219,110.88,1
215,112.28,1
61,115.46,1
49,117.26,1
273,118.33,1
42,120.48,1
55,121.55,1
162,120.96,1
396,122.87,1
309,130.61,1
263,142.63,1
469,157.76,1
338,176.67,1
190,196.18,1
40,210.81,1
123,218.31,1
63,219.74,1
151,216.96,1
269,212.94,1
498,212.61,1
61,216.24,1
114,217.94,1
56,214.94,1
134,208.59,1
327,202.25,1
423,200.71,1
558,207.09,1
118,218.67,1
200,228.47,1
128,233.73,1
209,235.53,1
340,236.45,1
92,237.43,1
200,236.33,1
82,232.47,1
128,225.98,1
390,219.6,1
44,215.34,1
51,209.39,1
98,200.02,1
37,188.7,1
345,178.14,1
42,170.56,1
79,163.37,1
257,156.29,1
214,152.39,1
41,150.36,1
266,148.49,1
32,147.16,1
134,145.13,1
97,142.09,1
66,138.36,1
44,133.23,1
288,128.58,1
97,126.69,1
126,126.08,1
119,125.31,1
99,124.41,1
203,123.91,1
48,124,1
174,123.88,1
56,123.43,1
206,123.08,1
230,124.48,1
151,128.14,1
101,131.91,1
167,134.72,1
64,136.53,1
211,137.59,1
135,138.97,1
43,139.76,1
41,137.96,1
156,134.38,1
62,130.65,1
138,126.97,1
234,124.68,1
47,124.19,1
31,122.69,1
197,120.05,1
42,117.93,1
41,115.1,1
58,110.68,1
46,105.36,1
95,99.87,1
163,95.68,1
130,93.85,1
34,93.12,1
102,91.97,1
138,91.16,1
315,93.2,1
200,99.58,1
199,108.63,1
35,117.13,1
378,125.06,1
57,133.93,1
201,141.96,1
73,147.79,1
40,150.57,1
145,150.21,1
228,149.58,1
115,150.07,1
198,150.89,1
190,152.3,1
205,154.81,1
265,158.7,1
215,164.24,1
338,171.52,1
88,179.45,1
301,186.29,1
120,192.02,1
115,195.47,1
195,196.18,1
69,195,1
229,192.33,1
83,189,1
67,184.07,1
270,178.3,1
159,174.32,1
144,171.58,1
44,167.9,1
65,162.05,1
95,154.52,1
104,146.68,1
113,139.32,1
40,132.19,1
207,125.71,1
36,120.67,1
127,116.21,1
38,111.7,1
67,106.83,1
92,101.79,1
250,98.71,1
154,99.2,1
92,101.65,1
97,103.74,1
216,106.04,1
96,109.43,1
48,112.16,1
169,113.52,1
173,115.42,1
186,118.8,1
189,123.48,1
48,128.01,1
89,130.33,1
158,130.97,1
36,130.78,1
161,129.57,1
82,128.01,1
133,126.38,1
155,125.12,1
123,124.69,1
117,124.52,1
125,124.26,1
60,123.49,1
95,121.66,1
87,119.05,1
69,115.93,1
88,112.34,1
31,108.18,1
36,103,1
103,97.38,1
104,92.75,1
59,89.21,1
53,85.85,1
34,82.11,1
152,78.82,1
39,76.81,1
135,75.75,1
180,76.47,1
66,79.09,1
39,81.37,1
175,83.05,1
132,85.88,1
102,89.64,1
254,94.39,1
145,101.07,1
276,109.56,1
311,120.65,1
95,133.25,1
224,144.41,1
202,154.27,1
218,163.65,1
181,172.13,1
50,178.11,1
33,179.43,1
54,175.99,1
37,169.1,1
160,160.7,1
135,153.07,1
80,146.43,1
833,145.76,1
107,155.54,1
50,166.88,1
78,172.42,1
109,173.6,1
176,172.69,1
47,170.51,1
129,166.53,1
111,161.47,1
272,157.43,1
188,156.09,1
135,156.36,1
195,156.78,1
33,156.54,1
299,155.82,1
345,158.13,1
54,163.24,1
339,168.26,1
216,174.32,1
176,180.97,1
135,185.87,1
166,188.53,1
383,191.33,1
39,195.14,1
283,197.74,1
58,198.68,1
106,197.04,1
170,192.95,1
105,188.05,1
48,181.68,1
246,174.55,1
230,169.7,1
178,167.7,1
35,165.76,1
212,162.63,1
154,159.95,1
212,158.66,1
136,158.32,1
125,157.87,1
143,156.69,1
183,155.52,1
41,154.05,1
48,150.45,1
82,144.59,1
132,138.23,1
86,132.4,1
158,127.41,1
158,124.02,1
183,122.74,1
40,122.35,1
162,121.54,1
395,123.15,1
163,129.43,1
260,137.96,1
135,146.63,1
176,154.21,1
65,159.44,1
56,161.19,1
94,159.48,1
206,156.65,1
67,154.06,1
232,151.73,1
128,150.38,1
151,149.65,1
151,148.96,1
87,147.97,1
133,146.13,1
42,143.2,1
55,138.51,1
106,132.53,1
61,126.34,1
115,120.31,1
110,115.06,1
115,110.97,1
64,107.54,1
184,104.89,1
134,104.08,1
255,105.81,1
89,109.65,1
135,113.63,1
124,116.89,1
184,120.19,1
59,123.27,1
164,125.4,1
70,126.66,1
49,126.37,1
31,123.65,1
127,119.49,1
75,115.36,1
54,111.16,1
52,106.25,1
160,101.64,1
123,98.85,1
38,97.11,1
31,94.51,1
99,91.07,1
39,87.66,1
33,83.92,1
33,79.46,1
118,75.25,1
98,72.58,1
82,71.41,1
92,71.07,1
78,71.3,1
107,72.04,1
39,72.96,1
120,73.76,1
236,76.16,1
32,80.58,1
115,84.71,1
94,87.99,1
103,90.92,1
134,93.73,1
64,96.36,1
194,98.94,1
122,102.35,1
188,106.71,1
76,111.22,1
108,114.69,1
39,116.3,1
120,116.23,1
30,114.89,1
123,112.6,1
102,110.27,1
172,108.97,1
87,108.76,1
169,109.27,1
98,110.35,1
116,111.49,1
104,112.27,1
43,112.2,1
34,110.31,1
117,107.13,1
113,104.33,1
72,102.17,1
239,101.24,1
143,102.86,1
38,105.34,1
31,105.84,1
158,104.88,1
86,104.26,1
111,103.98,1
31,103.15,1
44,100.92,1
32,97.16,1
64,92.54,1
170,88.7,1
44,86.52,1
50,84.55,1
37,81.78,1
68,78.57,1
58,75.44,1
87,72.81,1
139,71.46,1
105,71.92,1
94,73.54,1
172,76.16,1
64,79.76,1
32,82.6,1
106,83.99,1
74,84.9,1
295,87.31,1
91,92.43,1
103,98.04,1
98,102.34,1
47,105.1,1
137,106.45,1
166,107.99,1
74,110.05,1
40,110.93,1
130,110.3,1
54,109.1,1
52,107.01,1
181,104.69,1
51,103.3,1
209,102.88,1
32,103.29,1
110,103.36,1
127,103.13,1
109,103.45,1
47,103.51,1
49,102.24,1
75,99.73,1
49,96.6,1
44,92.84,1
67,88.62,1
76,84.58,1
61,81.03,1
123,78.3,1
76,76.79,1
44,75.73,1
33,74.07,1
45,71.65,1
37,68.78,1
33,65.59,1
104,62.72,1
214,62.21,1
123,65.12,1
79,69.6,1
110,73.93,1
74,77.86,1
164,81.76,1
60,85.82,1
132,89.5,1
57,92.5,1
38,94.08,1
74,93.91,1
78,92.87,1
66,91.47,1
59,89.61,1
48,87.17,1
105,84.59,1
107,82.84,1
101,82.22,1
112,82.5,1
36,82.96,1
94,82.88,1
35,82.22,1
32,80.64,1
104,78.47,1
64,76.73,1
102,75.63,1
65,75.04,1
87,74.74,1
69,74.59,1
90,74.6,1
32,74.48,1
66,73.75,1
44,72.48,1
32,70.67,1
35,68.16,1
39,65.18,1
64,62.23,1
80,59.97,1
112,59.02,1
156,60.13,1
148,63.66,1
130,69.01,1
114,75.08,1
87,80.89,1
132,86.09,1
129,91.16,1
53,95.66,1
100,98.7,1
127,100.9,1
79,102.81,1
52,103.67,1
105,103.29,1
127,102.8,1
118,102.97,1
138,103.82,1
168,105.66,1
76,108.1,1
105,109.9,1
115,110.96,1
65,111.41,1
79,110.76,1
33,108.75,1
161,106.17,1
75,104.24,1
32,102.17,1
56,98.86,1
35,94.58,1
127,90.3,1
34,86.72,1
32,83.02,1
84,78.99,1
92,75.72,1
31,73.2,1
42,70.5,1
88,67.8,1
91,66.05,1
36,65.05,1
50,63.91,1
40,62.39,1
74,60.87,1
104,60.1,1
68,60.41,1
140,61.76,1
93,64.38,1
145,68.1,1
39,72.15,1
35,74.99,1
43,75.95,1
67,75.73,1
91,75.29,1
125,75.54,1
208,77.73,1
80,81.92,1
42,85.79,1
31,87.53,1
179,88.32,1
172,90.61,1
48,94.06,1
137,96.91,1
111,99.46,1
215,102.83,1
55,106.9,1
114,110.09,1
31,111.49,1
58,110.84,1
46,108.31,1
55,104.53,1
32,99.77,1
39,94.19,1
113,88.69,1
80,84.42,1
45,81.01,1
45,77.52,1
141,74.58,1
32,72.84,1
47,71.19,1
85,69.33,1
32,67.69,1
46,65.83,1
44,63.63,1
154,62.23,1
84,62.68,1
106,64.47,1
127,67.18,1
37,70.28,1
147,73.19,1
268,77.9,1
68,85.05,1
47,91.39,1
46,94.95,1
106,96.57,1
127,97.8,1
127,99.51,1
408,104,1
505,115.78,1
280,134.82,1
180,155.04,1
273,172.83,1
175,188.09,1
64,199.18,1
36,203.9,1
570,206.61,1
174,212.94,1
91,219.04,1
203,221.13,1
124,220.56,1
33,216.91,1
235,210.52,1
101,203.71,1
72,196.04,1
38,186.12,1
200,175.33,1
73,165.57,1
56,156.01,1
89,145.88,1
59,135.81,1
303,127.86,1
160,124.39,1
127,123.8,1
42,123.04,1
158,121.45,1
51,119.62,1
37,116.73,1
551,116.22,1
231,123.21,1
404,136.07,1
195,151.48,1
184,166.24,1
54,177.1,1
157,183.27,1
265,187.15,1
351,192.45,1
105,198.96,1
68,202.55,1
257,202.76,1
34,201.32,1
79,196.96,1
78,189.42,1
142,180.57,1
108,171.79,1
46,162.79,1
88,152.96,1
154,143.55,1
106,135.8,1
61,128.95,1
114,122.32,1
214,117.39,1
248,116.23,1
42,117.69,1
154,118.92,1
126,119.86,1
134,121.07,1
86,121.96,1
58,121.63,1
166,120.41,1
68,119.29,1
552,121.54,1
465,132.63,1
125,149.85,1
173,165.32,1
251,177.59,1
97,187.43,1
158,193.73,1
198,197.21,1
186,199.46,1
180,200.78,1
41,200.02,1
437,198.62,1
144,199.71,1
242,201.9,1
254,204.18,1
182,206.85,1
156,208.45,1
105,207.76,1
71,204.02,1
139,197.68,1
52,189.68,1
234,181.3,1
529,177.56,1
320,182.02,1
168,190.37,1
100,196.69,1
44,198.47,1
46,195.26,1
159,188.87,1
180,182.29,1
137,176.69,1
184,171.86,1
135,167.79,1
39,163.25,1
74,156.81,1
142,149.47,1
152,143.16,1
73,137.91,1
114,132.79,1
36,127.3,1
185,122,1
147,118.48,1
235,117.75,1
70,118.95,1
46,119.42,1
42,117.55,1
103,114.2,1
76,110.57,1
169,107.65,1
37,105.6,1
212,104.3,1
101,104.49,1
136,105.7,1
101,107.04,1
74,107.93,1
32,107.37,1
94,105.34,1
40,102.49,1
32,98.66,1
66,93.92,1
68,89.14,1
83,84.92,1
71,81.42,1
44,78.29,1
143,75.82,1
217,75.91,1
45,78.57,1
34,80.82,1
112,81.73,1
62,82.37,1
103,82.93,1
55,83.29,1
119,83.55,1
107,84.28,1
47,85.19,1
33,85.01,1
105,83.88,1
127,83.29,1
87,83.77,1
115,84.79,1
55,85.83,1
112,86.57,1
106,87.45,1
154,89.16,1
66,91.46,1
48,92.96,1
106,93.26,1
53,93,1
45,91.86,1
360,92.1,1
38,95.81,1
151,100.29,1
106,104.07,1
108,107.39,1
230,110.92,1
198,116.23,1
34,121.86,1
188,125.88,1
85,128.88,1
201,131.52,1
237,135.13,1
73,139.57,1
152,142.77,1
147,144.82,1
31,145.55,1
119,144.04,1
33,140.67,1
125,136.04,1
42,130.73,1
89,124.86,1
35,118.41,1
50,111.33,1
32,103.69,1
94,96.18,1
219,90.9,1
80,88.9,1
32,87.83,1
76,85.94,1
78,83.84,1
59,81.88,1
116,80.25,1
225,80.6,1
61,83.36,1
89,86.29,1
34,87.94,1
150,88.84,1
35,89.63,1
55,89.55,1
40,88.09,1
115,86.14,1
42,84.39,1
79,82.58,1
102,80.97,1
44,79.76,1
69,78.36,1
48,76.61,1
190,75.67,1
40,76.31,1
145,77.68,1
69,79.44,1
270,82.7,1
104,88.28,1
105,94.41,1
140,99.69,1
80,104.26,1
53,107.22,1
34,107.78,1
273,107.91,1
98,110.01,1
103,112.69,1
199,115.15,1
68,117.9,1
59,119.37,1
44,118.48,1
159,116.42,1
115,114.95,1
92,114,1
84,112.68,1
171,111.52,1
45,110.84,1
171,110.22,1
56,109.77,1
41,108.49,1
94,105.87,1
153,103.54,1
58,102.12,1
98,100.7,1
178,99.86,1
33,99.93,1
117,99.66,1
31,98.65,1
175,97.54,1
34,96.9,1
110,96.14,1
109,95.38,1
35,94.65,1
168,93.84,1
84,93.87,1
109,94.46,1
40,94.61,1
121,94.18,1
156,94.35,1
96,95.71,1
34,96.74,1
56,96.17,1
41,94.13,1
133,91.71,1
199,91,1
254,93.87,1
219,100.56,1
215,109.75,1
110,119.36,1
164,127.67,1
188,134.93,1
37,140.77,1
125,143.79,1
80,144.4,1
36,142.78,1
92,138.89,1
37,133.49,1
130,127.45,1
113,122.03,1
105,117.68,1
91,113.91,1
55,110.11,1
112,106.17,1
173,103.4,1
126,102.66,1
48,102.61,1
96,101.82,1
40,100.18,1
65,97.64,1
112,94.82,1
168,93.31,1
207,94.45,1
177,98.41,1
188,104.32,1
194,111.5,1
93,118.78,1
186,125.06,1
263,131.7,1
149,139.47,1
88,146.13,1
380,152.18,1
121,159.72,1
111,166.23,1
38,168.88,1
41,167.27,1
83,162.26,1
93,155.6,1
128,148.7,1
95,142.21,1
76,135.85,1
209,130.29,1
51,126.25,1
145,122.77,1
350,121.75,1
234,125.79,1
231,133.29,1
52,140.76,1
62,145.11,1
102,145.97,1
33,144.31,1
39,140.04,1
190,134.67,1
207,131.3,1
118,130.34,1
46,129.34,1
87,126.79,1
34,122.79,1
33,117.27,1
140,111.21,1
91,106.26,1
164,102.99,1
54,100.99,1
67,98.94,1
89,96.42,1
136,94.46,1
164,94.16,1
276,96.89,1
191,103.18,1
124,110.98,1
45,117.25,1
147,121.15,1
389,126.09,1
374,136.33,1
74,149.53,1
108,159.84,1
290,167.21,1
90,173.71,1
246,178.83,1
235,183.56,1
97,187.8,1
119,189.39,1
174,188.58,1
287,187.97,1
131,188.53,1
41,187.62,1
103,183.4,1
116,177.17,1
97,170.18,1
107,162.71,1
529,158.56,1
124,160.71,1
61,163.93,1
41,163.37,1
46,159.15,1
106,152.71,1
183,146.43,1
137,141.84,1
190,138.99,1
418,139.89,1
47,144.76,1
127,148.96,1
196,151.35,1
32,152.73,1
83,151.6,1
428,150.91,1
51,153.51,1
33,155.07,1
178,153.61,1
31,150.93,1
112,146.84,1
40,141.34,1
118,135.08,1
33,128.43,1
165,122.03,1
46,116.51,1
437,114.15,1
166,117.48,1
146,123.63,1
66,128.55,1
216,132.13,1
82,135.28,1
223,138.18,1
144,141.36,1
66,143.87,1
104,144.2,1
91,142.74,1
55,139.76,1
92,135.33,1
127,130.52,1
59,125.9,1
114,121.21,1
227,117.87,1
42,116.45,1
78,114.74,1
36,111.61,1
128,107.85,1
66,104.4,1
82,101.15,1
72,97.84,1
46,94.35,1
251,92,1
79,92.31,1
32,93.12,1
86,92.58,1
56,91.26,1
68,89.45,1
209,88.43,1
74,89.32,1
239,91.95,1
333,98.15,1
153,108.27,1
148,118.85,1
137,127.82,1
84,134.6,1
136,138.97,1
132,141.74,1
207,144.19,1
39,146.11,1
97,145.93,1
144,144.12,1
144,142.35,1
142,141.04,1
90,139.66,1
111,137.6,1
74,134.68,1
186,131.71,1
161,130.09,1
175,130.18,1
148,131.36,1
52,132.25,1
147,131.87,1
65,130.63,1
95,128.47,1
114,125.64,1
265,124.19,1
160,125.59,1
129,128.37,1
46,130.08,1
95,129.73,1
52,127.57,1
50,123.81,1
33,118.44,1
58,111.9,1
58,104.96,1
115,98.62,1
165,94.26,1
45,91.85,1
61,89.61,1
53,86.77,1
76,83.77,1
106,81.28,1
65,79.62,1
54,78.12,1
44,76.2,1
180,74.88,1
68,75.28,1
88,76.42,1
92,77.54,1
278,80.34,1
125,86.13,1
65,92.56,1
200,98.15,1
142,104.15,1
98,110.06,1
31,113.98,1
98,115.35,1
70,115.07,1
108,113.92,1
201,113.31,1
112,114.21,1
47,115.01,1
128,114.6,1
176,114.45,1
138,115.64,1
105,117.31,1
133,118.68,1
46,119.25,1
57,118.11,1
36,115,1
123,110.93,1
89,107.24,1
149,104.6,1
168,103.7,1
199,105.2,1
55,107.97,1
63,109.59,1
103,109.56,1
398,111.39,1
65,117.01,1
58,122.25,1
32,123.98,1
161,123.57,1
76,122.73,1
95,121.43,1
124,119.65,1
108,118.07,1
168,117.15,1
66,116.79,1
56,115.61,1
104,113.25,1
123,110.91,1
203,110.02,1
72,110.64,1
369,113.34,1
78,118.92,1
316,126.16,1
124,134.35,1
64,141.32,1
37,144.38,1
217,144.91,1
314,146.99,1
189,152.18,1
166,158.18,1
322,164.45,1
203,172.13,1
175,179.72,1
441,187.74,1
206,198,1
515,210.49,1
242,225.19,1
338,239.93,1
300,253.26,1
122,263.8,1
161,269,1
350,270.66,1
72,270.71,1
127,266.98,1
330,260.81,1
184,255.51,1
42,249.18,1
40,238.75,1
111,224.92,1
426,212.67,1
134,205.33,1
37,199,1
105,190.24,1
171,180.78,1
373,174.36,1
237,173.19,1
91,174.29,1
260,174.99,1
254,176.86,1
53,179.21,1
111,179,1
46,175.63,1
47,169.38,1
79,160.89,1
362,153.79,1
108,150.78,1
172,149.69,1
43,148.01,1
173,145.42,1
127,142.92,1
149,141.05,1
46,138.86,1
42,134.99,1
39,129.02,1
158,122.54,1
72,117.09,1
88,112.31,1
34,107.3,1
88,101.98,1
39,96.63,1
95,91.54,1
854,93.47,1
48,106.91,1
51,121.82,1
38,130.75,1
52,134.75,1
96,135.36,1
77,134.04,1
136,131.81,1
52,129.09,1
40,125.09,1
148,120.25,1
88,116.11,1
119,112.77,1
40,109.54,1
136,106.24,1
33,103.08,1
99,99.76,1
64,96.39,1
144,93.71,1
175,92.89,1
276,95.52,1
66,100.87,1
187,106.5,1
134,111.99,1
219,118.02,1
82,124.08,1
129,128.83,1
140,132.16,1
276,135.98,1
160,141.38,1
35,146.03,1
80,147.35,1
47,145.53,1
46,141.19,1
88,135.14,1
42,128.29,1
60,120.78,1
64,112.97,1
93,105.63,1
62,99.14,1
118,93.7,1
50,89.33,1
222,86.68,1
177,87.3,1
160,90.9,1
49,95.14,1
44,97.73,1
228,99.49,1
102,102.49,1
362,107.91,1
37,115.53,1
149,122.34,1
86,126.96,1
114,129.89,1
140,131.58,1
126,132.82,1
109,133.52,1
249,134.53,1
40,136.19,1
64,136.22,1
32,133.43,1
335,130.74,1
47,130.51,1
76,130.21,1
80,128,1
74,124.68,1
74,120.56,1
91,116.04,1
41,111.23,1
293,107.74,1
75,107.3,1
128,108.1,1
195,109.48,1
47,111.56,1
50,112.28,1
92,111.13,1
38,108.85,1
235,106.84,1
73,106.57,1
92,106.74,1
34,105.77,1
63,103.4,1
196,101.12,1
78,100.43,1
77,100.13,1
56,98.99,1
50,96.84,1
48,93.73,1
79,90.13,1
75,86.74,1
47,83.58,1
37,80.14,1
117,76.84,1
163,75.35,1
47,75.77,1
146,76.89,1
112,78.91,1
45,81.26,1
112,82.96,1
87,84.45,1
56,85.62,1
43,85.7,1
113,85.05,1
101,84.79,1
42,84.74,1
118,84.41,1
96,84.46,1
132,85.34,1
133,87.24,1
151,90.32,1
45,93.63,1
67,95.61,1
98,96.27,1
71,96.35,1
103,96.07,1
357,97.9,1
68,103.28,1
96,108.82,1
118,112.56,1
218,116.22,1
127,120.77,1
256,126.23,1
41,131.81,1
125,135.54,1
132,137.41,1
243,139.5,1
66,142.12,1
34,142.82,1
60,140.28,1
147,136.23,1
135,132.69,1
156,130.33,1
424,131.37,1
104,136.9,1
60,142.29,1
122,144.57,1
42,144.42,1
115,142.21,1
102,138.95,1
97,135.33,1
92,131.33,1
48,126.68,1
58,121.02,1
32,114.37,1
105,107.43,1
114,101.54,1
132,97.54,1
210,96.09,1
99,97.17,1
157,99.41,1
60,101.74,1
186,103.96,1
204,107.45,1
126,112.46,1
57,116.79,1
201,119.87,1
204,123.71,1
77,128.18,1
47,130.71,1
60,130.27,1
57,127.5,1
62,123.17,1
56,117.79,1
36,111.57,1
67,104.8,1
34,97.88,1
50,90.94,1
89,84.5,1
33,78.97,1
58,73.93,1
38,69.2,1
89,65.16,1
43,62.07,1
291,61.48,1
243,66.1,1
127,74.8,1
196,84.64,1
31,93.86,1
149,101.13,1
95,106.84,1
320,113.07,1
112,121.03,1
73,128.18,1
342,134.33,1
54,141.23,1
482,149.47,1
242,161.14,1
127,173.68,1
443,185.22,1
56,196.68,1
379,206.6,1
50,214.47,1
154,218.64,1
51,218.02,1
113,213.48,1
198,206.94,1
99,200.16,1
281,194,1
113,189.28,1
45,184.03,1
181,177.15,1
78,170.1,1
75,162.55,1
67,153.9,1
63,144.53,1
46,134.64,1
57,124.43,1
70,114.49,1
227,106.64,1
225,103.28,1
36,103.16,1
105,102.97,1
98,102.29,1
36,101.18,1
32,98.68,1
73,94.98,1
69,91.08,1
88,87.58,1
55,84.51,1
246,83.02,1
59,84.11,1
55,85.61,1
248,87.36,1
87,91.04,1
173,95.71,1
58,100.16,1
85,103.33,1
160,105.54,1
36,107.37,1
110,108.06,1
163,108.47,1
228,110.66,1
127,114.82,1
32,118.42,1
30,119.11,1
206,118.19,1
168,118.6,1
47,119.85,1
178,120.48,1
31,120.57,1
91,119.4,1
97,117.16,1
88,114.67,1
59,111.74,1
111,108.46,1
182,106.19,1
89,105.59,1
133,105.71,1
74,105.85,1
48,105.19,1
91,103.39,1
33,100.8,1
109,97.7,1
36,94.5,1
55,90.91,1
74,87.01,1
151,84.08,1
239,84.14,1
112,87.46,1
183,92.39,1
31,97.28,1
37,100.14,1
279,102.19,1
58,105.74,1
91,108.95,1
71,110.38,1
135,110.88,1
143,111.58,1
173,113.32,1
152,116.17,1
383,121.55,1
55,129.61,1
41,135.88,1
37,137.64,1
101,136.27,1
165,134.08,1
62,132.06,1
90,129.31,1
107,125.84,1
65,122.11,1
135,118.32,1
42,114.65,1
52,110.33,1
63,105.15,1
139,100.35,1
99,97.02,1
214,95.8,1
31,96.29,1
146,96.96,1
129,97.99,1
96,99.66,1
118,101.25,1
86,102.57,1
116,103.54,1
67,104.04,1
155,104.33,1
57,104.69,1
46,104.12,1
47,101.89,1
105,98.88,1
100,96.26,1
58,94.09,1
46,91.51,1
100,88.6,1
80,86.15,1
123,84.6,1
130,84.37,1
44,84.92,1
108,85.23,1
150,86.03,1
68,87.72,1
138,89.59,1
204,92.56,1
184,97.74,1
42,103.5,1
85,107.39,1
106,109.45,1
99,110.68,1
44,110.85,1
140,110.03,1
146,109.65,1
92,110.05,1
36,109.76,1
38,107.6,1
176,104.8,1
116,103.37,1
109,103.12,1
92,103.04,1
78,102.65,1
66,101.55,1
57,99.59,1
86,97.03,1
51,94.19,1
61,91,1
50,87.41,1
35,83.43,1
35,78.95,1
35,74.1,1
128,69.89,1
63,67.3,1
160,66.49,1
129,67.88,1
112,71.03,1
30,74.24,1
34,75.95,1
41,75.91,1
69,74.91,1
45,73.54,1
101,72.22,1
85,71.56,1
128,71.97,1
33,72.99,1
212,74.69,1
114,78.2,1
57,82.37,1
66,85.26,1
134,87.31,1
103,89.59,1
155,92.43,1
179,96.4,1
105,101.32,1
174,106.35,1
50,110.81,1
67,113.37,1
49,113.54,1
76,111.93,1
164,110.03,1
38,108.6,1
63,106.43,1
51,103.08,1
46,98.88,1
32,93.9,1
86,88.64,1
68,83.97,1
229,81.34,1
138,82.13,1
46,84.54,1
191,87.04,1
96,90.38,1
133,94.18,1
174,98.37,1
36,102.57,1
127,105.46,1
106,107.45,1
57,108.69,1
206,109.57,1
67,111.03,1
88,112.01,1
115,112.03,1
394,114.18,1
96,120.26,1
280,128.01,1
224,136.92,1
115,146.09,1
407,155.34,1
327,167.55,1
365,182.98,1
862,204.41,1
127,232.12,1
155,256.01,1
293,271.78,1
366,283.96,1
206,294.02,1
488,302.4,1
61,309.07,1
315,311.59,1
99,309.81,1
240,304.51,1
304,297.75,1
130,290.87,1
113,281.66,1
110,269.27,1
57,254.26,1
218,238.14,1
112,223.04,1
333,210.59,1
423,204.01,1
147,203.15,1
110,202.62,1
129,199.66,1
231,195.79,1
343,194.08,1
238,195.85,1
80,198.13,1
48,197.04,1
434,194.77,1
245,196.16,1
222,200.14,1
158,203.55,1
152,205.14,1
145,204.62,1
118,202.12,1
245,198.73,1
132,195.7,1
64,191.69,1
32,184.78,1
68,175.07,1
240,165.31,1
50,157.36,1
362,151.88,1
150,150.31,1
78,150.26,1
41,148.14,1
165,144.35,1
84,140.47,1
92,136.39,1
55,131.47,1
81,125.76,1
113,120,1
157,115.48,1
290,114.15,1
46,115.78,1
343,119.15,1
75,124.42,1
58,128.86,1
48,129.98,1
316,130.42,1
97,132.84,1
215,136.26,1
82,139.39,1
132,141.39,1
557,145.66,1
154,155.58,1
70,165.68,1
168,171.73,1
38,174.36,1
39,172.99,1
117,168.22,1
104,162.18,1
66,155.47,1
46,147.6,1
78,138.74,1
32,129.37,1
132,120.25,1
73,112.39,1
104,105.86,1
122,100.71,1
110,97.25,1
123,95.22,1
172,94.9,1
155,96.63,1
72,99.31,1
146,101.74,1
38,103.55,1
117,104.32,1
108,104.6,1
36,104.41,1
110,103.24,1
100,101.88,1
100,100.86,1
178,100.7,1
109,101.89,1
127,103.73,1
69,105.28,1
89,105.9,1
91,105.68,1
54,104.72,1
195,103.78,1
64,103.82,1
36,103.39,1
128,101.85,1
58,100.21,1
77,98.31,1
32,95.65,1
113,92.57,1
39,89.64,1
113,86.95,1
47,84.62,1
165,83.11,1
113,83.26,1
127,84.87,1
43,86.67,1
43,87.3,1
68,86.54,1
38,84.92,1
267,84.26,1
98,86.47,1
80,89.75,1
137,92.54,1
196,96.13,1
67,100.58,1
47,103.77,1
33,104.4,1
49,102.8,1
344,102.11,1
66,104.78,1
131,108.34,1
78,110.83,1
164,112.79,1
112,114.84,1
72,116.4,1
47,116.27,1
162,115.05,1
55,113.85,1
62,111.95,1
174,109.72,1
166,109.14,1
40,109.59,1
90,109.1,1
74,107.57,1
152,106.08,1
122,105.56,1
187,106.47,1
168,109.1,1
129,112.87,1
254,117.6,1
105,123.41,1
154,128.85,1
218,133.93,1
172,139.64,1
75,144.64,1
60,146.85,1
222,147.16,1
99,147.51,1
251,148.43,1
267,151.37,1
55,155.52,1
364,159.65,1
213,165.71,1
67,171.92,1
150,175.1,1
246,176.82,1
85,178.29,1
59,177.47,1
182,174.21,1
196,171.09,1
137,168.93,1
115,166.55,1
169,163.68,1
85,160.54,1
252,157.74,1
75,155.87,1
178,154.09,1
57,151.7,1
327,149.97,1
53,149.99,1
52,149.06,1
137,145.91,1
293,143.79,1
93,144.14,1
286,145.94,1
45,148.34,1
121,149.38,1
71,148.23,1
274,146.9,1
254,148.2,1
32,150.99,1
79,151.44,1
246,150.41,1
186,150.89,1
182,152.86,1
396,157.07,1
38,163.4,1
47,167.13,1
50,166.04,1
135,162.09,1
37,156.72,1
223,151.04,1
40,146.06,1
41,140.31,1
101,133.18,1
152,126.62,1
327,123.46,1
39,123.89,1
108,124.36,1
36,123.04,1
166,120.84,1
110,119.12,1
132,118.15,1
77,117.23,1
76,115.66,1
128,113.61,1
40,111.37,1
57,108.21,1
343,106.31,1
580,112.19,1
129,126.31,1
51,140.17,1
100,148.88,1
44,153.06,1
163,154.12,1
39,153.24,1
109,150.43,1
54,145.93,1
236,141.44,1
162,139.02,1
49,137.6,1
246,136.17,1
34,135.32,1
190,134.37,1
47,133.02,1
76,130.59,1
72,126.71,1
34,121.68,1
162,116.36,1
126,112.46,1
71,109.77,1
160,107.63,1
123,106.68,1
32,106.04,1
121,104.62,1
181,103.83,1
118,104.74,1
71,106,1
80,106.28,1
148,106.11,1
167,106.96,1
163,109.37,1
58,112.12,1
54,113.28,1
111,112.73,1
399,114.14,1
150,120.1,1
233,128.31,1
73,136,1
186,142.03,1
63,146.13,1
108,147.91,1
64,147.25,1
33,144.16,1
46,138.54,1
112,131.67,1
188,125.88,1
169,122.73,1
239,122.55,1
241,125.65,1
186,131.3,1
116,137.27,1
77,141.37,1
136,143.2,1
170,144.16,1
120,145.04,1
92,145.09,1
36,143.16,1
298,140.79,1
72,140.13,1
127,139.7,1
70,138.04,1
62,134.97,1
397,133.04,1
298,136.64,1
42,143.35,1
58,147.35,1
86,147.61,1
120,145.84,1
54,142.85,1
159,139.06,1
88,135.4,1
316,133.5,1
78,134.2,1
110,135.09,1
40,134.13,1
159,131.87,1
142,129.92,1
104,128.65,1
96,127.13,1
158,125.53,1
96,124.36,1
46,122.64,1
35,119.16,1
123,114.57,1
111,110.54,1
228,108.55,1
108,108.98,1
175,110.79,1
81,112.96,1
211,115.38,1
111,118.47,1
171,121.88,1
64,124.72,1
52,125.68,1
44,124.05,1
81,120.56,1
171,117.04,1
124,115.01,1
77,113.74,1
44,111.7,1
86,108.56,1
38,104.7,1
112,100.58,1
51,96.72,1
52,92.8,1
50,88.46,1
119,84.48,1
33,81.32,1
87,78.47,1
34,75.71,1
190,73.95,1
130,74.63,1
181,77.86,1
43,82.13,1
157,86.17,1
189,90.87,1
61,96.35,1
64,100.44,1
38,102.13,1
135,102.33,1
242,103.63,1
44,106.64,1
57,108.61,1
78,108.51,1
98,107.42,1
41,105.67,1
42,102.69,1
150,99.32,1
42,96.65,1
395,96.59,1
153,101.39,1
86,108.17,1
136,113.57,1
36,117.19,1
156,119.1,1
32,119.77,1
29,118.4,1
92,114.99,1
64,110.9,1
72,106.56,1
89,102.19,1
118,98.54,1
130,96.25,1
75,95.06,1
34,93.61,1
72,91.21,1
96,88.65,1
127,86.99,1
35,86.03,1
224,85.92,1
44,87.33,1
148,89.31,1
80,91.32,1
31,92.65,1
99,92.6,1
44,91.78,1
101,90.51,1
66,89.14,1
64,87.6,1
103,86.01,1
31,84.44,1
117,82.79,1
104,81.84,1
69,81.67,1
42,81.19,1
120,80.4,1
334,82.2,1
48,87.68,1
184,94,1
54,99.58,1
31,103.22,1
207,105.26,1
31,107.26,1
103,108.33,1
144,108.71,1
106,109.51,1
145,110.63,1
147,112.31,1
203,115.14,1
145,119.24,1
34,122.76,1
46,123.57,1
38,121.48,1
100,117.74,1
112,113.92,1
60,110.42,1
146,107.24,1
43,104.54,1
203,102.62,1
43,101.82,1
68,100.81,1
70,98.78,1
198,97.33,1
185,98.35,1
92,101.28,1
67,103.77,1
130,105.18,1
128,106.54,1
116,108.19,1
136,109.96,1
212,112.62,1
172,116.93,1
37,121.23,1
115,123.5,1
267,125.55,1
40,128.63,1
56,130.07,1
86,128.87,1
48,126.01,1
200,122.84,1
112,120.98,1
39,119.39,1
235,117.75,1
90,117.54,1
100,117.74,1
50,116.84,1
229,115.84,1
231,117.31,1
38,120.54,1
132,122.66,1
66,123.27,1
100,122.7,1
57,120.9,1
36,117.61,1
126,113.36,1
300,111.21,1
94,112.61,1
184,115.48,1
33,117.93,1
53,118.44,1
45,116.46,1
46,112.71,1
197,108.9,1
362,108.99,1
156,114.25,1
509,124.17,1
146,138.41,1
203,152.92,1
36,163.77,1
84,169.65,1
383,173.38,1
212,179.23,1
104,185.26,1
220,189.03,1
152,191.41,1
41,191.6,1
125,188.44,1
111,183.17,1
191,177.57,1
52,171.96,1
43,164.84,1
42,155.51,1
34,144.67,1
154,133.84,1
58,124.5,1
35,115.81,1
35,106.76,1
64,97.76,1
61,89.55,1
34,82.17,1
65,75.46,1
33,69.49,1
57,64.21,1
111,60.2,1
55,57.91,1
42,56.41,1
106,55.43,1
54,55.38,1
85,55.98,1
136,57.54,1
136,60.87,1
48,65.13,1
183,69.63,1
31,74.41,1
150,78.85,1
189,83.89,1
48,89.68,1
99,94.29,1
240,98.69,1
97,104.33,1
53,109.19,1
174,112.41,1
105,115.32,1
68,117.46,1
66,117.76,1
89,116.51,1
226,115.59,1
52,115.94,1
103,115.96,1
95,115.08,1
202,114.68,1
148,115.91,1
133,118.2,1
105,120.32,1
142,121.96,1
200,124.04,1
53,126.43,1
70,127.19,1
220,127,1
126,127.9,1
71,128.84,1
48,127.94,1
100,125.26,1
104,122.01,1
80,118.73,1
98,115.31,1
63,111.71,1
60,107.64,1
50,102.94,1
188,98.84,1
67,96.52,1
127,95.26,1
155,95.07,1
154,96.64,1
29,98.7,1
160,100.08,1
46,101.08,1
102,101.44,1
36,100.74,1
81,99.01,1
61,96.57,1
79,93.87,1
110,91.44,1
173,90.45,1
274,92.68,1
137,98.35,1
40,104.25,1
297,109.54,1
40,115.48,1
118,120.27,1
44,122.6,1
96,122.85,1
81,121.62,1
224,120.65,1
62,120.79,1
32,120.05,1
188,118.13,1
74,116.74,1
50,115.03,1
41,111.74,1
63,107.18,1
67,102.12,1
186,98.06,1
109,96.22,1
111,95.89,1
136,96.31,1
69,97.18,1
91,97.65,1
102,97.7,1
196,98.54,1
85,100.7,1
216,103.8,1
76,107.6,1
69,110.55,1
90,111.68,1
71,111.5,1
260,111.75,1
35,113.38,1
44,113.98,1
36,112.03,1
49,108.25,1
59,103.41,1
399,100.97,1
86,103.48,1
92,107.41,1
191,110.66,1
138,114.52,1
173,118.93,1
78,122.99,1
204,126.42,1
155,130.13,1
139,134.04,1
122,137.18,1
443,141.81,1
217,150.7,1
179,161.15,1
252,170.59,1
108,178.67,1
304,185.29,1
292,192.49,1
126,199.97,1
74,204.18,1
184,204.46,1
148,202.83,1
36,199.19,1
147,192.92,1
46,184.91,1
93,175.51,1
37,164.81,1
186,154.18,1
53,144.83,1
266,137.53,1
234,134.16,1
142,134.35,1
60,134.82,1
101,133.76,1
297,133.14,1
127,135.01,1
275,138.77,1
270,144.81,1
63,151.84,1
217,157.23,1
71,160.84,1
254,163.34,1
131,165.71,1
159,167.61,1
129,168.3,1
131,167.82,1
99,165.97,1
183,163.33,1
34,160.07,1
38,154.73,1
118,147.47,1
50,139.78,1
323,133.78,1
109,131.41,1
143,130.89,1
77,130.08,1
136,128.75,1
102,127.22,1
58,125.15,1
33,121.53,1
98,116.63,1
42,111.31,1
205,106.79,1
81,104.2,1
50,102.23,1
46,99.25,1
127,95.94,1
38,93.05,1
88,90.19,1
211,88.53,1
52,88.97,1
44,89.32,1
40,88.15,1
59,85.88,1
91,83.39,1
43,81.08,1
166,79.48,1
42,79.06,1
438,81.75,1
183,90.11,1
67,100.63,1
95,108.73,1
130,114.52,1
92,118.83,1
174,122.22,1
124,125.41,1
200,128.83,1
355,134.37,1
84,142.3,1
147,149.16,1
214,154.35,1
46,158.32,1
117,159.65,1
449,161.39,1
60,166.2,1
126,170.11,1
247,172.1,1
273,175.28,1
35,178.73,1
303,180.8,1
146,182.9,1
99,184.2,1
126,183.01,1
107,179.88,1
418,177.82,1
107,179.02,1
590,184.04,1
44,192.7,1
57,199.01,1
44,199.01,1
63,194.21,1
295,188.02,1
408,185.8,1
76,187.73,1
231,189.52,1
33,189.36,1
56,185.97,1
85,179.21,1
161,171.38,1
331,165.84,1
203,164.57,1
55,164.69,1
105,162.81,1
84,158.92,1
54,153.46,1
56,146.32,1
252,139.52,1
230,136.24,1
184,136.58,1
165,138.6,1
44,140.18,1
177,140.3,1
161,140.38,1
122,140.92,1
450,143.71,1
393,152.68,1
196,166.2,1
126,178.5,1
38,186.03,1
92,188.12,1
244,187.36,1
113,186.33,1
69,183.86,1
81,178.68,1
83,171.49,1
332,165.14,1
32,161.26,1
32,156.54,1
134,149.73,1
31,142.36,1
167,135.06,1
150,129.3,1
89,125.23,1
111,121.62,1
96,118.23,1
84,114.94,1
218,112.62,1
156,112.69,1
125,114.39,1
217,117.04,1
336,122.56,1
380,133.08,1
109,146.56,1
93,157.67,1
106,164.27,1
81,167.08,1
52,166.39,1
116,162.9,1
262,159.38,1
65,157.25,1
81,154.35,1
47,149.35,1
142,143.27,1
67,137.22,1
137,131.5,1
45,126.01,1
89,120.3,1
46,114.22,1
352,110.21,1
67,110.22,1
124,111.6,1
214,113.32,1
82,116.11,1
31,117.79,1
101,117.23,1
234,116.79,1
238,119.22,1
82,123.63,1
62,126.74,1
125,127.69,1
58,127.26,1
134,125.84,1
102,124.15,1
68,122.12,1
175,119.96,1
38,118.13,1
338,117.68,1
227,121.15,1
36,126.59,1
135,130.15,1
255,133.19,1
232,138.32,1
359,146.49,1
157,156.93,1
108,166.14,1
88,171.5,1
86,173.01,1
172,172.04,1
32,169.47,1
169,165.3,1
37,160.05,1
168,154.18,1
37,148.04,1
101,141.34,1
160,134.88,1
226,130.83,1
610,133.44,1
59,143.34,1
105,152.99,1
93,158.32,1
34,159.86,1
180,158.62,1
112,156.63,1
93,154.06,1
65,150.05,1
112,144.84,1
261,140.63,1
151,139.23,1
46,138.6,1
82,136.25,1
81,132.41,1
229,129.02,1
89,127.35,1
76,125.86,1
43,122.95,1
297,120.47,1
127,120.86,1
154,122.97,1
40,124.43,1
100,124.22,1
137,123.08,1
100,122.07,1
69,120.62,1
68,118.09,1
284,116.29,1
390,119.46,1
164,127.99,1
67,136.71,1
42,141.68,1
437,145.64,1
118,152.32,1
58,158.39,1
151,160.97,1
332,163.33,1
260,168.57,1
87,174.7,1
245,179.21,1
82,182.17,1
63,182.35,1
39,178.55,1
94,171.78,1
61,163.38,1
307,155.92,1
38,150.96,1
48,145.77,1
293,140.55,1
331,139.84,1
40,142.85,1
340,146.6,1
222,152.35,1
31,158.39,1
370,163.16,1
319,170.34,1
82,179.13,1
59,184.42,1
351,186.93,1
230,190.81,1
506,198.26,1
55,208.03,1
74,214.32,1
260,215.92,1
236,216.86,1
65,217,1
599,217.9,1
36,222.05,1
127,224.49,1
499,225.45,1
113,228.91,1
490,233.99,1
160,240.45,1
154,245.39,1
661,250.35,1
69,258.55,1
510,267.05,1
334,276.4,1
251,286.15,1
129,292.13,1
86,292.04,1
448,288.55,1
525,288.77,1
172,293.12,1
187,295.47,1
180,293.57,1
127,288.05,1
143,279.16,1
94,267.44,1
310,255.02,1
922,250.55,1
177,257.97,1
70,266.19,1
43,266.73,1
166,261.11,1
157,252.66,1
274,244.13,1
257,237.51,1
296,233.56,1
140,230.99,1
384,229.33,1
153,229.23,1
91,228.06,1
50,222.86,1
96,214.01,1
49,202.66,1
227,190.86,1
714,185.56,1
169,190.3,1
50,196.66,1
50,197.7,1
331,195.98,1
307,196.59,1
386,201.47,1
1023,215.74,1
294,241.72,1
286,269.06,1
67,288.71,1
82,298.35,1
942,305.53,1
236,318.99,1
440,333.92,1
329,346.19,1
89,353.94,1
226,354.27,1
426,350.88,1
385,348.78,1
100,346.37,1
73,338.61,1
85,324.4,1
373,308.03,1
68,292.85,1
140,277.03,1
119,259.78,1
47,241.66,1
127,222.75,1
37,203.86,1
228,186.33,1
44,171.28,1
172,158.21,1
252,148.32,1
197,143.05,1
34,139.91,1
175,136.55,1
332,135.36,1
522,141.14,1
147,153.31,1
135,165.33,1
327,175.17,1
36,183.67,1
135,188.51,1
114,189.47,1
365,189.96,1
354,193.88,1
270,201.47,1
472,211.82,1
148,223.87,1
311,234.54,1
570,245.95,1
196,260.01,1
204,271.75,1
54,277.22,1
90,275.58,1
159,268.56,1
67,258.35,1
123,245.57,1
315,232.95,1
84,222.56,1
184,212.84,1
40,202.51,1
84,190.89,1
119,178.49,1
226,167.71,1
62,159.18,1
217,152.11,1
36,146.11,1
53,139.56,1
317,133.77,1
60,131.08,1
127,129.36,1
63,126.9,1
43,123.31,1
278,120.04,1
346,121.34,1
127,127.31,1
680,138.14,1
66,154.5,1
245,170.53,1
164,183.04,1
178,192.72,1
224,199.88,1
67,204.48,1
108,205.11,1
185,202.71,1
46,198.57,1
85,191.9,1
40,182.66,1
212,172.75,1
140,164.49,1
47,157.23,1
166,149.85,1
92,143.18,1
128,137.33,1
159,132.53,1
274,130.41,1
56,130.75,1
47,130.28,1
75,127.52,1
77,123.49,1
97,119.06,1
200,115.65,1
612,118.28,1
95,128.81,1
33,139.44,1
81,144.97,1
249,148.08,1
202,151.98,1
478,159.19,1
236,170.89,1
255,184.03,1
139,195.24,1
179,203.22,1
128,207.78,1
523,212.29,1
240,220.33,1
86,228.13,1
346,232.82,1
288,237.49,1
191,242.37,1
34,243.94,1
170,240.69,1
51,233.82,1
293,225.58,1
39,217.46,1
92,207.95,1
47,196.14,1
164,183.62,1
42,171.49,1
369,161.69,1
65,155.84,1
224,152.2,1
45,149.01,1
143,145.45,1
531,145.04,1
101,150.6,1
219,157.69,1
36,162.63,1
35,163.77,1
158,161.43,1
304,159.72,1
133,160.54,1
44,160.93,1
224,159.61,1
38,157.72,1
149,154.8,1
120,151.25,1
146,147.98,1
120,145,1
33,141.42,1
126,136.63,1
97,131.64,1
55,126.61,1
114,121.27,1
121,116.54,1
54,112.48,1
239,109.54,1
67,108.62,1
341,110.18,1
142,115.02,1
92,120.8,1
66,124.47,1
92,125.77,1
86,125.39,1
36,123.48,1
94,120.04,1
62,115.86,1
119,111.64,1
136,108.33,1
143,106.63,1
70,105.87,1
86,104.85,1
46,103,1
143,100.85,1
53,99.07,1
57,96.98,1
51,94,1
35,90.25,1
101,86.27,1
306,84.83,1
138,87.91,1
89,92.85,1
44,96.51,1
87,98.31,1
199,99.88,1
243,103.74,1
67,109.41,1
97,114.02,1
141,117.1,1
85,119.4,1
117,120.76,1
161,121.77,1
230,124.02,1
214,128.49,1
96,133.85,1
141,138.03,1
33,140.06,1
149,139.95,1
46,138.38,1
152,135.88,1
64,132.92,1
289,130.97,1
43,130.79,1
218,131.23,1
388,134.34,1
212,142.15,1
32,150.34,1
149,155.15,1
111,157.35,1
280,159.2,1
187,162.4,1
86,165.57,1
182,167,1
35,166.6,1
57,163.39,1
38,157.15,1
159,149.67,1
198,143.6,1
162,140.14,1
145,138.37,1
122,137.19,1
207,136.67,1
224,138.01,1
328,142.55,1
122,149.52,1
45,154.99,1
64,156.37,1
72,154.32,1
164,150.76,1
76,147.01,1
204,143.61,1
266,142.44,1
201,144.52,1
116,147.78,1
144,150.16,1
83,151.04,1
90,150.06,1
55,147.02,1
330,144.22,1
212,144.95,1
157,148.2,1
166,151.49,1
106,153.9,1
98,154.61,1
261,154.7,1
234,156.67,1
90,159.73,1
45,160.59,1
285,159.82,1
244,161.01,1
160,164.28,1
62,166.52,1
221,166.92,1
205,167.56,1
63,168.24,1
218,167.75,1
160,167.28,1
72,166.44,1
356,165.76,1
322,168.84,1
227,175.67,1
34,181.74,1
70,183.41,1
32,180.41,1
172,174.72,1
222,169.57,1
56,165.59,1
360,162.82,1
232,163.6,1
249,167.6,1
342,173.92,1
376,183.71,1
48,194.47,1
39,200.49,1
54,200,1
44,194.7,1
49,185.89,1
34,174.56,1
562,165.77,1
444,166.72,1
298,176.21,1
334,188.89,1
67,200.81,1
52,207.59,1
56,207.84,1
132,203.66,1
799,202.95,1
356,212.79,1
72,226.22,1
571,237.8,1
97,249.55,1
146,257.8,1
482,262.78,1
280,269.32,1
79,274.65,1
185,274.84,1
210,271.4,1
337,267.61,1
158,264.49,1
230,260.7,1
275,256.59,1
38,251.77,1
217,244.53,1
52,235.33,1
76,223.9,1
383,212.68,1
560,208.63,1
146,212.15,1
45,215.22,1
91,213.23,1
87,207.33,1
240,200.19,1
329,195.53,1
297,195.32,1
70,196.88,1
49,195.61,1
101,190.46,1
40,182.72,1
132,173.43,1
111,164.09,1
102,155.34,1
47,146.57,1
260,138.82,1
31,133.28,1
169,128.71,1
257,126.13,1
144,126.8,1
308,130.13,1
131,135.67,1
49,140.51,1
152,142.73,1
170,144.03,1
102,145.16,1
115,145.29,1
67,143.9,1
90,140.92,1
215,137.82,1
34,135.48,1
128,132.64,1
166,129.87,1
150,128.49,1
410,130.4,1
210,137.18,1
75,145.24,1
90,150.32,1
106,152.24,1
161,152.51,1
228,153.09,1
149,154.78,1
41,155.64,1
494,157.13,1
112,162.44,1
97,167.82,1
150,170.17,1
158,170.93,1
106,170.61,1
74,168.42,1
794,169.8,1
114,179.74,1
94,190.54,1
152,196.25,1
64,197.96,1
79,195.76,1
161,190.84,1
170,185.53,1
347,182.35,1
46,181.4,1
203,180,1
260,178.87,1
133,179.15,1
100,178.63,1
250,177.17,1
274,177.4,1
308,180.79,1
46,185.09,1
174,187.03,1
66,186.15,1
141,183.06,1
127,178.62,1
138,173.76,1
45,168.05,1
49,160.5,1
175,152.11,1
144,145.18,1
31,139.2,1
66,132.34,1
31,124.39,1
79,115.97,1
195,108.9,1
38,104.1,1
55,99.71,1
100,95.14,1
311,93.18,1
54,94.97,1
198,98.25,1
114,102.14,1
41,105.58,1
154,107.6,1
162,109.8,1
67,112.33,1
33,113.29,1
103,112.25,1
380,112.85,1
125,117.66,1
43,122.97,1
58,125.21,1
115,125.08,1
37,123.55,1
183,121.39,1
251,121.12,1
143,123.69,1
150,127.21,1
245,131.36,1
282,137.74,1
40,145.02,1
138,149.92,1
39,151.66,1
35,150.09,1
76,145.51,1
58,139.28,1
114,132.49,1
402,128.6,1
50,129.33,1
107,130.64,1
112,130.45,1
187,130.27,1
304,132.31,1
95,136.79,1
247,141.79,1
34,146.04,1
214,148.84,1
102,150.71,1
55,151.09,1
77,148.8,1
43,144.27,1
66,137.99,1
44,130.49,1
140,122.94,1
218,117.6,1
279,116.66,1
383,121.57,1
61,130.32,1
36,137.15,1
357,141.88,1
321,149.56,1
228,160.5,1
75,170.55,1
332,178.44,1
90,185.38,1
33,189.08,1
78,187.64,1
51,182.4,1
35,174.24,1
69,163.89,1
64,152.6,1
185,142.15,1
60,133.57,1
32,125.44,1
264,118.32,1
325,116.25,1
146,119.5,1
151,124.32,1
222,129.4,1
488,137.9,1
38,149.93,1
269,160.99,1
187,170.38,1
116,178.16,1
43,182.05,1
179,182.2,1
80,180.29,1
54,176.18,1
116,169.79,1
34,162.01,1
163,153.62,1
90,145.9,1
335,140.78,1
127,139.52,1
144,139.98,1
103,139.99,1
32,138.55,1
199,135.93,1
187,134.53,1
67,134.29,1
260,134.47,1
79,135.64,1
93,136.29,1
246,136.5,1
448,140.63,1
187,150.02,1
253,161.03,1
31,170.06,1
56,174.42,1
85,173.94,1
90,170.47,1
61,164.94,1
102,157.91,1
106,150.44,1
97,143.2,1
36,135.76,1
274,129.28,1
99,125.69,1
38,123.02,1
102,119.24,1
466,118.25,1
272,124.26,1
91,133.73,1
127,141.31,1
211,147.02,1
185,152.55,1
116,157.47,1
38,159.81,1
278,160.2,1
123,161.13,1
178,162.29,1
236,163.72,1
156,166.03,1
150,168.07,1
179,169.31,1
90,169.62,1
37,167.55,1
68,162.43,1
297,157.06,1
48,153.63,1
406,152.52,1
192,155.28,1
64,159.28,1
90,160.48,1
192,159.73,1
349,160.66,1
46,163.76,1
105,165.24,1
127,164.11,1
81,161.49,1
40,156.92,1
155,150.91,1
395,147.46,1
37,148.02,1
83,148.12,1
102,145.86,1
218,143.5,1
323,144.05,1
124,147.82,1
152,151.76,1
575,157.99,1
230,170.06,1
33,182.41,1
282,190.58,1
143,196.62,1
70,200.02,1
189,199.92,1
508,201.11,1
102,206.11,1
178,210.46,1
244,212.63,1
140,213.92,1
178,213.66,1
147,211.75,1
44,207.59,1
42,199.94,1
86,189.34,1
46,177.23,1
72,164.27,1
49,151.01,1
74,137.97,1
46,125.53,1
85,114,1
124,104.28,1
133,97.28,1
206,93.62,1
247,94.23,1
222,99.14,1
119,106.23,1
49,112.32,1
241,117.03,1
85,121.82,1
215,126.59,1
152,131.53,1
158,136.52,1
72,140.27,1
566,145.62,1
134,155.84,1
436,168.9,1
124,182.53,1
833,199.33,1
36,220.46,1
206,238.43,1
178,249.46,1
106,255.17,1
853,261.33,1
132,273.3,1
149,283.83,1
245,288.12,1
43,287.58,1
237,282.42,1
50,273.93,1
41,261.62,1
293,247.17,1
114,234.16,1
36,221.16,1
110,206.47,1
79,191.28,1
188,177.2,1
140,165.55,1
203,156.75,1
61,149.88,1
563,147.01,1
180,151.13,1
202,158.48,1
144,164.85,1
204,169.99,1
90,173.59,1
322,176.43,1
257,180.9,1
97,186.01,1
127,188.55,1
122,188.2,1
36,185.13,1
106,179.2,1
72,171.47,1
110,162.93,1
235,155.42,1
267,151.53,1
94,150.66,1
80,149.45,1
104,146.59,1
130,143.04,1
260,140.76,1
180,141.2,1
240,143.92,1
65,147.21,1
430,151.44,1
168,158.65,1
88,165.92,1
38,169.18,1
159,168.77,1
77,166.51,1
920,169.4,1
125,182.72,1
172,197.83,1
58,207.18,1
395,213.11,1
59,218.07,1
616,223.94,1
43,231.97,1
164,237.57,1
263,239.28,1
382,241.52,1
50,244.13,1
193,243.67,1
217,240.7,1
518,239.92,1
170,243.1,1
271,246.79,1
136,248.46,1
217,247.84,1
230,245.82,1
34,242.05,1
61,234.24,1
259,224.04,1
145,214.87,1
51,205.78,1
36,194.45,1
133,181.58,1
119,169.3,1
178,158.9,1
38,149.98,1
74,140.97,1
225,132.87,1
72,127.22,1
192,123.34,1
418,123.49,1
596,132.81,1
232,150.59,1
38,168.16,1
102,179.39,1
46,184.47,1
159,185.19,1
125,183.68,1
73,180.48,1
153,175.62,1
44,169.65,1
51,161.95,1
46,152.37,1
46,141.67,1
69,130.59,1
97,120.19,1
146,111.69,1
69,105.3,1
251,101.36,1
113,100.63,1
111,101.58,1
72,102.31,1
84,102.29,1
209,102.61,1
65,104.11,1
216,106.39,1
399,111.99,1
124,121.85,1
94,131.42,1
70,137.54,1
609,144.58,1
196,157.32,1
97,170.82,1
137,179.83,1
235,185.78,1
148,190.41,1
372,195.08,1
375,202.59,1
109,211.74,1
112,217.56,1
146,218.82,1
74,216.54,1
454,213.84,1
420,216.22,1
444,225.14,1
59,235.72,1
42,241.01,1
30,238.6,1
84,230.5,1
49,218.85,1
147,205.55,1
118,192.48,1
62,179.88,1
118,167.36,1
35,155.09,1
61,142.72,1
102,130.77,1
40,119.89,1
90,109.92,1
40,100.86,1
90,92.79,1
49,85.82,1
38,79.55,1
110,74.1,1
35,69.92,1
137,67.04,1
34,65.45,1
147,64.98,1
32,65.44,1
212,67.09,1
262,72,1
147,80.58,1
68,89.58,1
135,96.92,1
34,102.38,1
266,107.02,1
119,112.65,1
230,119.25,1
63,125.61,1
125,130.28,1
193,133.72,1
237,138.07,1
127,143.35,1
340,149.46,1
183,157.31,1
92,164.66,1
207,169.57,1
231,173.78,1
119,177.75,1
111,179.71,1
128,179.18,1
109,176.82,1
201,173.71,1
217,171.62,1
198,171.22,1
220,172.11,1
271,174.58,1
274,179.22,1
116,184.52,1
73,187.26,1
61,185.9,1
347,183.22,1
71,181.95,1
260,181.16,1
478,183.36,1
157,190.22,1
140,196.83,1
91,199.76,1
35,198.41,1
205,193.89,1
247,189.77,1
53,186.58,1
82,181.62,1
293,176.08,1
456,175.26,1
42,179.08,1
220,182.35,1
141,183.97,1
152,184.54,1
37,182.89,1
110,178.42,1
55,171.74,1
228,164.72,1
146,159.36,1
40,154.64,1
49,148.25,1
482,143.6,1
60,144.12,1
150,145.95,1
78,146.16,1
173,145.46,1
130,144.7,1
34,143.21,1
70,139.6,1
66,134.26,1
332,130.17,1
34,129.02,1
61,127.7,1
64,124.33,1
166,120.61,1
196,118.67,1
182,119.34,1
142,121.67,1
81,123.94,1
371,127.12,1
201,133.73,1
386,143.82,1
43,155.1,1
54,162.92,1
82,165.48,1
104,164.67,1
40,161.38,1
182,156.61,1
215,152.92,1
59,150.59,1
174,148.04,1
179,146.05,1
184,145.61,1
59,145.46,1
68,143.64,1
101,139.98,1
57,135.3,1
76,129.7,1
259,125.02,1
122,123.22,1
116,122.87,1
181,122.95,1
499,126.97,1
157,136.78,1
264,148.56,1
104,159.13,1
172,167.23,1
73,172.21,1
125,173.98,1
76,172.91,1
344,171.52,1
130,172.14,1
136,173.04,1
128,172.4,1
131,170.56,1
120,167.77,1
154,164.45,1
43,160.4,1
117,155,1
67,148.64,1
50,141.42,1
92,133.41,1
325,127.52,1
247,126.94,1
127,130.04,1
298,134.68,1
234,141.61,1
100,149.32,1
76,154.47,1
95,156.21,1
70,155.19,1
90,152.01,1
44,147.03,1
86,140.6,1
139,134.02,1
108,128.49,1
109,123.86,1
75,119.57,1
97,115.31,1
93,111.26,1
136,107.96,1
97,105.69,1
111,104.11,1
58,102.58,1
65,100.46,1
34,97.38,1
146,94.13,1
47,91.63,1
423,92.12,1
75,97.39,1
39,103.21,1
247,107.54,1
116,112.61,1
75,117.32,1
194,120.83,1
54,123.78,1
77,125.08,1
44,124.06,1
302,123.05,1
162,124.87,1
170,128.66,1
84,132.12,1
90,133.95,1
45,133.49,1
69,130.81,1
90,126.74,1
96,122.32,1
134,118.36,1
109,115.34,1
79,112.8,1
104,110.2,1
51,107.39,1
130,104.49,1
365,104.4,1
108,108.82,1
66,113.9,1
187,117.54,1
97,120.86,1
82,123.22,1
42,123.47,1
54,121.44,1
36,117.46,1
128,112.67,1
91,108.47,1
32,104.53,1
148,100.59,1
135,98.08,1
51,96.79,1
184,96.09,1
60,96.32,1
41,96.18,1
79,94.73,1
155,93.43,1
103,93.39,1
79,93.91,1
258,95.47,1
67,98.93,1
82,102.2,1
257,105.33,1
84,109.81,1
288,115.46,1
57,121.84,1
62,126.51,1
157,128.7,1
168,130.6,1
34,132.09,1
382,133.95,1
34,137.77,1
66,140.39,1
210,140.88,1
138,141.75,1
41,142.09,1
48,139.91,1
81,135.48,1
259,131.51,1
33,129.36,1
62,126.66,1
168,123.12,1
160,120.95,1
84,120.02,1
82,118.74,1
44,116.27,1
94,112.76,1
71,108.88,1
152,105.54,1
170,104,1
119,104.42,1
59,105.14,1
177,105.63,1
44,106.28,1
148,106.69,1
75,106.9,1
41,106.33,1
69,104.29,1
34,101.07,1
308,98.95,1
102,100.22,1
60,102.58,1
90,103.58,1
142,104.08,1
144,105.29,1
127,107.32,1
204,110.27,1
106,114.13,1
56,117.21,1
64,118.01,1
136,117.39,1
66,116.37,1
158,115.27,1
114,114.71,1
176,115.13,1
96,116.28,1
57,116.82,1
31,115.41,1
58,112.01,1
91,107.72,1
300,105.34,1
78,106.36,1
235,109.29,1
142,113.57,1
142,118.52,1
499,125.96,1
132,137.86,1
35,148.92,1
317,156.74,1
134,164.12,1
114,170.09,1
87,172.76,1
44,171.87,1
55,167.48,1
84,160.62,1
59,152.46,1
54,143.37,1
73,133.74,1
120,124.66,1
198,117.84,1
37,113.31,1
80,109.04,1
33,104.1,1
83,98.82,1
210,94.92,1
71,93.52,1
47,92.66,1
115,91.27,1
302,91.96,1
97,96.11,1
66,100.73,1
134,103.92,1
82,106.36,1
62,107.68,1
255,108.94,1
130,112.07,1
120,115.96,1
128,119.21,1
139,121.99,1
192,125,1
478,131.38,1
172,142.71,1
90,154.11,1
273,162.86,1
257,171.48,1
124,179.88,1
226,186.37,1
126,190.96,1
251,194.17,1
230,197.28,1
202,200.66,1
66,202.39,1
56,200.31,1
100,194.49,1
99,186.62,1
66,177.51,1
