38.00,43.10,1
36.00,43.05,1
52.00,42.92,1
35.00,42.85,1
48.00,42.79,1
37.00,42.71,1
54.00,42.70,1
37.00,42.78,1
125.00,43.53,1
221.00,46.89,1
58.00,53.07,1
123.00,59.83,1
48.00,65.90,1
62.00,70.65,1
181.00,74.84,1
116.00,80.04,1
651.00,90.13,1
120.00,107.55,1
36.00,124.89,1
49.00,135.91,1
45.00,141.24,1
46.00,142.15,1
48.00,139.64,1
60.00,134.78,1
49.00,128.42,1
46.00,120.99,1
37.00,112.80,1
46.00,104.22,1
45.00,95.67,1
69.00,87.71,1
47.00,80.65,1
35.00,74.26,1
38.00,68.23,1
107.00,63.20,1
35.00,59.65,1
128.00,57.51,1
50.00,56.80,1
38.00,56.58,1
71.00,56.17,1
66.00,56.03,1
56.00,56.21,1
36.00,56.26,1
38.00,55.81,1
149.00,55.78,1
41.00,57.02,1
276.00,60.29,1
75.00,66.29,1
39.00,72.50,1
103.00,76.92,1
138.00,80.90,1
90.00,85.13,1
127.00,89.21,1
117.00,93.17,1
96.00,96.88,1
36.00,99.35,1
53.00,99.74,1
40.00,98.25,1
36.00,95.27,1
38.00,91.07,1
34.00,86.06,1
286.00,82.65,1
81.00,83.00,1
69.00,84.80,1
57.00,85.63,1
36.00,85.23,1
70.00,83.74,1
62.00,81.81,1
107.00,80.12,1
38.00,78.79,1
41.00,77.02,1
39.00,74.43,1
38.00,71.30,1
35.00,67.80,1
44.00,64.15,1
34.00,60.55,1
50.00,57.16,1
35.00,54.08,1
263.00,53.14,1
34.00,55.60,1
41.00,58.70,1
59.00,60.57,1
66.00,61.85,1
50.00,62.77,1
36.00,63.06,1
34.00,62.48,1
55.00,61.28,1
135.00,60.65,1
50.00,61.28,1
133.00,62.77,1
46.00,64.82,1
214.00,67.86,1
39.00,72.19,1
79.00,76.16,1
30.00,78.52,1
48.00,79.27,1
53.00,78.69,1
34.00,77.20,1
37.00,74.80,1
35.00,71.68,1
49.00,68.22,1
66.00,64.99,1
48.00,62.27,1
629.00,64.70,1
54.00,75.61,1
45.00,87.90,1
62.00,96.06,1
43.00,100.84,1
110.00,103.25,1
38.00,104.15,1
48.00,103.33,1
36.00,100.70,1
40.00,96.68,1
51.00,91.80,1
46.00,86.60,1
99.00,81.78,1
40.00,77.77,1
243.00,75.64,1
74.00,76.52,1
55.00,78.36,1
35.00,78.95,1
49.00,78.22,1
59.00,76.66,1
36.00,74.60,1
59.00,72.13,1
71.00,69.73,1
42.00,67.61,1
42.00,65.38,1
69.00,63.14,1
46.00,61.22,1
42.00,59.42,1
43.00,57.50,1
102.00,56.05,1
46.00,55.53,1
38.00,55.21,1
58.00,54.63,1
49.00,54.06,1
46.00,53.51,1
38.00,52.80,1
40.00,51.85,1
338.00,53.20,1
35.00,58.73,1
92.00,65.13,1
34.00,69.93,1
142.00,73.76,1
34.00,77.14,1
48.00,79.28,1
80.00,80.01,1
46.00,80.02,1
35.00,79.09,1
39.00,77.04,1
50.00,74.28,1
131.00,71.97,1
71.00,71.00,1
119.00,71.16,1
34.00,71.76,1
118.00,72.37,1
61.00,73.18,1
44.00,73.72,1
37.00,73.23,1
55.00,71.86,1
59.00,70.15,1
52.00,68.39,1
78.00,66.78,1
60.00,65.57,1
35.00,64.40,1
87.00,63.18,1
36.00,62.19,1
78.00,61.34,1
45.00,60.63,1
38.00,59.77,1
55.00,58.61,1
35.00,57.30,1
37.00,55.74,1
57.00,54.09,1
46.00,52.67,1
85.00,51.79,1
45.00,51.57,1
43.00,51.49,1
238.00,52.79,1
30.00,56.60,1
69.00,60.67,1
52.00,63.57,1
38.00,65.40,1
357.00,68.63,1
38.00,75.38,1
62.00,82.11,1
95.00,86.65,1
55.00,89.77,1
35.00,91.16,1
38.00,90.52,1
36.00,88.25,1
37.00,84.81,1
36.00,80.60,1
111.00,76.56,1
50.00,73.50,1
81.00,71.16,1
50.00,69.19,1
52.00,67.34,1
146.00,66.18,1
34.00,66.24,1
35.00,66.15,1
100.00,65.58,1
35.00,65.21,1
184.00,65.69,1
79.00,67.86,1
74.00,70.70,1
58.00,72.87,1
44.00,74.05,1
45.00,74.07,1
40.00,73.08,1
44.00,71.30,1
58.00,69.14,1
63.00,67.05,1
46.00,65.15,1
86.00,63.54,1
51.00,62.45,1
82.00,61.78,1
44.00,61.37,1
43.00,60.80,1
65.00,59.96,1
52.00,59.20,1
36.00,58.36,1
38.00,57.13,1
46.00,55.62,1
48.00,54.10,1
36.00,52.63,1
48.00,51.16,1
60.00,49.94,1
50.00,49.17,1
39.00,48.59,1
66.00,48.16,1
57.00,48.12,1
34.00,48.27,1
57.00,48.29,1
52.00,48.36,1
48.00,48.54,1
53.00,48.74,1
45.00,48.92,1
67.00,49.18,1
34.00,49.51,1
43.00,49.59,1
61.00,49.51,1
42.00,49.52,1
37.00,49.40,1
36.00,48.92,1
72.00,48.44,1
60.00,48.46,1
37.00,48.76,1
58.00,48.97,1
36.00,49.07,1
42.00,48.95,1
58.00,48.71,1
40.00,48.55,1
109.00,48.87,1
39.00,49.96,1
73.00,51.28,1
65.00,52.66,1
66.00,54.19,1
106.00,56.07,1
51.00,58.36,1
39.00,60.22,1
65.00,61.23,1
36.00,61.67,1
176.00,62.55,1
38.00,64.69,1
59.00,66.75,1
90.00,68.15,1
51.00,69.35,1
73.00,70.16,1
42.00,70.44,1
38.00,69.93,1
47.00,68.59,1
36.00,66.68,1
97.00,64.82,1
40.00,63.49,1
103.00,62.69,1
52.00,62.48,1
42.00,62.32,1
90.00,62.00,1
54.00,61.98,1
66.00,62.10,1
97.00,62.49,1
100.00,63.69,1
83.00,65.65,1
100.00,68.00,1
318.00,72.51,1
44.00,80.01,1
89.00,87.17,1
56.00,92.02,1
263.00,96.51,1
184.00,103.09,1
173.00,111.34,1
107.00,119.20,1
91.00,125.17,1
103.00,128.80,1
120.00,130.74,1
109.00,131.63,1
118.00,131.72,1
100.00,131.10,1
434.00,132.51,1
127.00,138.25,1
101.00,144.56,1
841.00,154.22,1
168.00,172.61,1
187.00,192.19,1
166.00,206.58,1
654.00,220.39,1
126.00,236.88,1
258.00,251.20,1
307.00,261.63,1
403.00,271.46,1
662.00,284.64,1
255.00,301.58,1
206.00,315.87,1
894.00,329.19,1
385.00,348.07,1
991.00,372.83,1
84.00,399.64,1
176.00,417.87,1
974.00,429.56,1
40.00,442.18,1
726.00,451.85,1
367.00,459.63,1
153.00,463.64,1
839.00,463.85,1
165.00,465.17,1
454.00,464.19,1
954.00,464.84,1
276.00,471.79,1
196.00,475.55,1
123.00,469.24,1
235.00,454.44,1
235.00,434.98,1
218.00,413.37,1
803.00,395.47,1
109.00,384.75,1
600.00,377.31,1
639.00,375.28,1
1023.00,385.31,1
341.00,405.23,1
704.00,426.92,1
122.00,444.75,1
1023.00,459.88,1
376.00,477.25,1
905.00,496.82,1
596.00,518.28,1
455.00,538.56,1
799.00,555.22,1
456.00,570.27,1
487.00,580.97,1
447.00,585.39,1
336.00,583.57,1
202.00,573.68,1
122.00,554.38,1
482.00,529.01,1
967.00,509.22,1
47.00,497.75,1
507.00,485.53,1
1023.00,477.43,1
404.00,480.01,1
434.00,484.82,1
522.00,487.28,1
288.00,487.64,1
432.00,484.39,1
1023.00,483.89,1
107.00,488.97,1
564.00,491.56,1
156.00,488.71,1
47.00,477.94,1
120.00,457.10,1
1023.00,436.98,1
272.00,427.41,1
1023.00,427.45,1
343.00,435.44,1
342.00,444.06,1
97.00,445.19,1
662.00,441.18,1
287.00,437.66,1
413.00,434.14,1
395.00,429.58,1
576.00,426.62,1
406.00,426.44,1
395.00,426.94,1
84.00,423.80,1
84.00,412.75,1
732.00,398.80,1
140.00,388.95,1
373.00,380.05,1
213.00,369.78,1
143.00,357.55,1
1023.00,349.00,1
548.00,353.80,1
371.00,366.31,1
85.00,375.05,1
908.00,381.27,1
127.00,390.14,1
281.00,395.91,1
79.00,393.49,1
45.00,382.52,1
246.00,364.96,1
473.00,347.89,1
612.00,338.34,1
372.00,337.02,1
137.00,337.21,1
370.00,334.55,1
245.00,330.74,1
175.00,325.47,1
42.00,315.96,1
474.00,304.29,1
675.00,299.14,1
204.00,302.08,1
411.00,306.71,1
66.00,309.12,1
127.00,306.22,1
66.00,297.03,1
556.00,286.94,1
44.00,279.91,1
555.00,275.22,1
342.00,274.94,1
259.00,278.03,1
668.00,283.81,1
58.00,292.50,1
63.00,296.44,1
875.00,298.38,1
336.00,307.93,1
162.00,319.12,1
172.00,323.92,1
104.00,321.82,1
167.00,314.09,1
146.00,302.64,1
270.00,289.91,1
479.00,280.29,1
130.00,274.93,1
46.00,268.25,1
180.00,257.62,1
262.00,246.55,1
152.00,237.06,1
620.00,231.83,1
210.00,233.43,1
275.00,237.81,1
88.00,240.27,1
132.00,238.97,1
153.00,234.26,1
67.00,227.04,1
197.00,218.07,1
229.00,209.75,1
52.00,202.33,1
109.00,193.66,1
184.00,184.42,1
208.00,176.97,1
268.00,172.65,1
78.00,170.44,1
37.00,166.93,1
155.00,161.25,1
123.00,155.48,1
546.00,153.81,1
197.00,159.19,1
181.00,167.28,1
201.00,174.18,1
79.00,179.12,1
336.00,182.70,1
134.00,186.70,1
508.00,192.81,1
205.00,202.30,1
395.00,213.65,1
264.00,225.60,1
101.00,235.69,1
525.00,243.76,1
119.00,252.32,1
176.00,258.22,1
741.00,264.19,1
466.00,277.57,1
204.00,294.08,1
292.00,306.54,1
52.00,312.79,1
211.00,312.26,1
680.00,311.05,1
92.00,313.61,1
205.00,314.02,1
105.00,308.91,1
155.00,299.48,1
239.00,287.84,1
348.00,277.58,1
498.00,272.47,1
248.00,272.74,1
393.00,275.38,1
226.00,278.71,1
404.00,282.34,1
90.00,285.06,1
73.00,283.13,1
62.00,274.69,1
229.00,262.70,1
102.00,250.02,1
104.00,236.53,1
280.00,223.33,1
47.00,211.78,1
47.00,199.48,1
375.00,187.79,1
134.00,180.38,1
138.00,175.25,1
455.00,172.71,1
312.00,176.28,1
261.00,184.29,1
474.00,195.12,1
429.00,210.46,1
350.00,229.12,1
254.00,247.17,1
234.00,261.74,1
215.00,271.90,1
59.00,276.56,1
159.00,275.05,1
924.00,275.56,1
235.00,285.55,1
66.00,295.78,1
96.00,297.62,1
281.00,293.52,1
596.00,291.06,1
344.00,294.61,1
216.00,300.00,1
702.00,306.42,1
156.00,315.82,1
742.00,327.02,1
364.00,341.34,1
621.00,358.21,1
61.00,372.97,1
96.00,378.75,1
141.00,373.84,1
162.00,362.19,1
70.00,345.64,1
362.00,327.15,1
94.00,309.60,1
241.00,292.56,1
176.00,276.15,1
239.00,261.43,1
111.00,247.93,1
372.00,236.36,1
196.00,228.45,1
46.00,221.58,1
161.00,212.72,1
42.00,202.33,1
88.00,190.50,1
445.00,180.70,1
332.00,178.12,1
144.00,180.65,1
244.00,183.76,1
179.00,186.75,1
201.00,189.48,1
362.00,193.11,1
60.00,197.63,1
59.00,199.01,1
376.00,198.01,1
59.00,197.91,1
54.00,195.83,1
100.00,190.01,1
63.00,181.88,1
286.00,173.93,1
178.00,168.86,1
112.00,165.68,1
165.00,162.47,1
466.00,162.16,1
224.00,167.51,1
356.00,176.52,1
398.00,188.55,1
200.00,202.64,1
301.00,215.73,1
71.00,225.76,1
161.00,230.91,1
245.00,232.41,1
305.00,233.77,1
112.00,235.07,1
301.00,235.14,1
128.00,234.37,1
274.00,232.91,1
60.00,230.18,1
266.00,225.93,1
66.00,220.66,1
51.00,213.07,1
294.00,204.09,1
94.00,196.57,1
192.00,189.93,1
102.00,183.39,1
216.00,177.42,1
50.00,171.84,1
208.00,166.25,1
216.00,162.16,1
398.00,162.28,1
402.00,168.66,1
111.00,178.87,1
172.00,187.29,1
325.00,193.95,1
127.00,200.44,1
163.00,204.86,1
297.00,207.66,1
127.00,210.22,1
53.00,210.17,1
389.00,208.32,1
246.00,208.92,1
367.00,212.85,1
100.00,217.74,1
411.00,222.33,1
42.00,226.44,1
354.00,229.09,1
358.00,232.69,1
74.00,237.19,1
154.00,238.20,1
107.00,235.14,1
58.00,228.50,1
46.00,218.11,1
89.00,204.94,1
212.00,191.76,1
175.00,181.09,1
559.00,176.23,1
248.00,179.49,1
210.00,186.56,1
393.00,194.54,1
140.00,203.58,1
458.00,213.09,1
266.00,224.21,1
351.00,236.36,1
162.00,247.12,1
148.00,253.92,1
213.00,256.22,1
510.00,258.46,1
53.00,262.26,1
290.00,263.96,1
211.00,263.48,1
248.00,262.34,1
264.00,260.83,1
120.00,258.47,1
114.00,253.23,1
45.00,244.11,1
110.00,231.71,1
141.00,217.98,1
111.00,204.51,1
86.00,191.22,1
321.00,179.79,1
144.00,172.38,1
792.00,172.62,1
78.00,181.96,1
200.00,192.56,1
158.00,199.50,1
42.00,202.81,1
132.00,201.71,1
59.00,197.17,1
62.00,189.79,1
319.00,182.06,1
138.00,177.13,1
210.00,174.18,1
1015.00,179.14,1
479.00,199.67,1
162.00,226.25,1
236.00,247.57,1
65.00,261.34,1
53.00,266.58,1
55.00,263.59,1
186.00,255.48,1
199.00,246.02,1
384.00,238.70,1
346.00,236.07,1
35.00,235.44,1
100.00,231.40,1
162.00,223.94,1
216.00,216.16,1
54.00,208.43,1
85.00,199.06,1
264.00,189.39,1
280.00,183.20,1
209.00,181.02,1
85.00,179.85,1
199.00,177.77,1
107.00,175.19,1
81.00,171.51,1
192.00,166.84,1
259.00,163.76,1
385.00,165.05,1
337.00,171.97,1
669.00,185.83,1
309.00,206.56,1
232.00,228.11,1
211.00,245.08,1
285.00,257.62,1
124.00,266.08,1
138.00,269.24,1
44.00,266.41,1
48.00,257.76,1
256.00,245.88,1
91.00,234.09,1
112.00,221.96,1
378.00,211.12,1
195.00,204.68,1
315.00,201.96,1
68.00,200.62,1
243.00,198.71,1
92.00,196.02,1
149.00,192.27,1
112.00,187.17,1
77.00,180.84,1
128.00,173.31,1
141.00,165.76,1
94.00,158.72,1
633.00,156.07,1
129.00,161.21,1
115.00,168.13,1
125.00,171.83,1
236.00,173.92,1
356.00,177.68,1
115.00,183.47,1
59.00,187.12,1
63.00,186.08,1
359.00,183.63,1
40.00,182.48,1
416.00,182.65,1
197.00,185.57,1
234.00,190.30,1
218.00,194.91,1
173.00,198.93,1
212.00,201.82,1
156.00,203.57,1
200.00,204.15,1
159.00,203.75,1
118.00,201.97,1
247.00,199.25,1
167.00,197.04,1
110.00,194.55,1
313.00,192.02,1
51.00,190.25,1
177.00,187.49,1
91.00,183.31,1
270.00,179.27,1
181.00,176.98,1
88.00,175.34,1
63.00,171.76,1
301.00,167.61,1
219.00,166.21,1
82.00,166.43,1
247.00,166.30,1
184.00,166.98,1
159.00,168.38,1
121.00,169.02,1
63.00,167.74,1
66.00,163.81,1
452.00,160.75,1
89.00,161.85,1
78.00,163.18,1
53.00,161.28,1
214.00,157.78,1
137.00,155.01,1
49.00,152.22,1
66.00,147.54,1
229.00,142.49,1
382.00,141.40,1
228.00,146.01,1
167.00,152.99,1
81.00,158.54,1
67.00,160.82,1
204.00,160.71,1
88.00,159.96,1
117.00,158.21,1
59.00,154.79,1
367.00,152.05,1
54.00,151.94,1
146.00,151.96,1
199.00,151.46,1
152.00,151.82,1
61.00,151.73,1
97.00,149.70,1
133.00,146.41,1
342.00,144.89,1
91.00,146.47,1
307.00,149.72,1
53.00,153.50,1
122.00,155.74,1
53.00,155.18,1
131.00,152.55,1
168.00,149.50,1
117.00,147.06,1
64.00,144.18,1
91.00,140.02,1
192.00,135.84,1
86.00,132.81,1
68.00,129.69,1
112.00,125.80,1
48.00,121.50,1
93.00,116.70,1
385.00,114.31,1
404.00,119.24,1
57.00,129.37,1
32.00,137.34,1
142.00,141.04,1
911.00,149.37,1
220.00,168.93,1
42.00,189.70,1
227.00,203.60,1
233.00,213.44,1
185.00,221.10,1
178.00,226.07,1
58.00,227.29,1
312.00,225.71,1
80.00,223.35,1
43.00,218.43,1
542.00,213.31,1
323.00,214.36,1
212.00,219.67,1
172.00,224.04,1
157.00,225.84,1
431.00,227.33,1
254.00,231.50,1
98.00,235.58,1
296.00,237.05,1
121.00,237.03,1
49.00,234.01,1
231.00,227.69,1
87.00,220.29,1
235.00,212.65,1
100.00,205.25,1
71.00,197.01,1
312.00,188.80,1
86.00,182.78,1
122.00,177.17,1
180.00,171.24,1
136.00,166.18,1
385.00,163.78,1
124.00,165.10,1
56.00,166.33,1
156.00,164.98,1
480.00,165.50,1
69.00,170.21,1
44.00,173.62,1
56.00,172.22,1
314.00,169.33,1
111.00,168.12,1
114.00,167.02,1
43.00,163.78,1
296.00,160.00,1
277.00,159.38,1
76.00,161.35,1
93.00,161.82,1
59.00,159.46,1
66.00,154.64,1
404.00,150.78,1
73.00,150.67,1
38.00,150.46,1
76.00,147.20,1
163.00,142.77,1
167.00,139.38,1
67.00,136.86,1
83.00,133.60,1
86.00,129.34,1
166.00,125.30,1
317.00,124.15,1
182.00,127.27,1
48.00,131.45,1
82.00,133.23,1
65.00,132.47,1
76.00,129.90,1
139.00,126.57,1
130.00,123.85,1
88.00,121.72,1
239.00,120.59,1
47.00,120.81,1
242.00,121.74,1
56.00,123.28,1
81.00,123.98,1
36.00,122.53,1
41.00,118.97,1
127.00,114.36,1
49.00,109.91,1
99.00,105.57,1
187.00,102.38,1
168.00,101.89,1
106.00,103.35,1
78.00,104.82,1
153.00,105.91,1
52.00,106.84,1
64.00,106.66,1
299.00,106.97,1
416.00,112.60,1
177.00,123.92,1
81.00,135.48,1
105.00,143.47,1
112.00,148.13,1
108.00,150.37,1
45.00,150.17,1
283.00,149.02,1
130.00,149.37,1
207.00,150.91,1
95.00,152.38,1
171.00,153.15,1
44.00,152.63,1
164.00,150.69,1
159.00,148.61,1
128.00,147.18,1
46.00,145.03,1
59.00,140.93,1
51.00,134.95,1
172.00,128.68,1
168.00,124.30,1
213.00,122.81,1
38.00,122.86,1
151.00,122.48,1
123.00,121.96,1
268.00,123.05,1
78.00,125.88,1
64.00,127.91,1
120.00,127.93,1
37.00,126.54,1
110.00,123.81,1
78.00,120.43,1
56.00,116.54,1
40.00,111.61,1
48.00,105.70,1
48.00,99.24,1
157.00,93.54,1
107.00,90.00,1
165.00,88.76,1
108.00,89.42,1
127.00,91.16,1
71.00,93.06,1
158.00,94.95,1
68.00,97.01,1
200.00,99.46,1
40.00,102.24,1
53.00,103.71,1
75.00,103.21,1
180.00,102.59,1
83.00,103.02,1
214.00,104.56,1
47.00,106.89,1
82.00,108.34,1
67.00,108.17,1
35.00,106.51,1
104.00,103.74,1
71.00,100.79,1
202.00,98.92,1
38.00,98.46,1
105.00,98.02,1
146.00,97.70,1
125.00,98.54,1
41.00,99.54,1
185.00,100.25,1
119.00,101.85,1
174.00,104.64,1
97.00,107.97,1
265.00,112.17,1
44.00,117.19,1
40.00,120.37,1
103.00,120.68,1
37.00,119.27,1
55.00,116.17,1
103.00,112.04,1
51.00,107.77,1
44.00,103.02,1
51.00,97.56,1
81.00,92.05,1
37.00,86.90,1
55.00,81.84,1
65.00,77.04,1
72.00,72.97,1
127.00,70.24,1
72.00,69.16,1
180.00,69.78,1
40.00,71.85,1
147.00,74.43,1
92.00,77.45,1
155.00,81.21,1
41.00,85.06,1
75.00,87.75,1
34.00,88.76,1
192.00,89.35,1
92.00,91.08,1
114.00,93.42,1
78.00,95.40,1
126.00,97.02,1
36.00,98.07,1
154.00,98.54,1
48.00,98.88,1
51.00,98.35,1
89.00,96.68,1
36.00,94.39,1
36.00,91.17,1
142.00,87.77,1
82.00,85.60,1
94.00,84.44,1
58.00,83.47,1
64.00,82.25,1
231.00,82.05,1
42.00,83.89,1
65.00,85.66,1
43.00,85.95,1
102.00,85.42,1
76.00,84.86,1
110.00,84.64,1
64.00,84.65,1
96.00,84.62,1
39.00,84.24,1
138.00,83.74,1
58.00,83.67,1
123.00,83.97,1
64.00,84.47,1
226.00,86.00,1
48.00,88.99,1
46.00,91.36,1
51.00,91.71,1
71.00,90.77,1
95.00,89.43,1
56.00,88.07,1
44.00,86.21,1
66.00,83.69,1
61.00,80.97,1
48.00,78.17,1
130.00,75.83,1
36.00,74.38,1
67.00,73.05,1
202.00,72.69,1
78.00,74.54,1
86.00,77.14,1
84.00,79.33,1
131.00,81.55,1
76.00,84.03,1
136.00,86.61,1
128.00,89.64,1
52.00,92.65,1
74.00,94.38,1
66.00,94.78,1
113.00,94.59,1
68.00,94.29,1
41.00,93.34,1
55.00,91.22,1
111.00,88.76,1
60.00,86.74,1
100.00,85.07,1
35.00,83.43,1
119.00,81.81,1
41.00,80.47,1
67.00,79.01,1
37.00,77.03,1
52.00,74.57,1
69.00,71.97,1
81.00,69.86,1
38.00,68.17,1
123.00,66.94,1
58.00,66.63,1
40.00,66.50,1
73.00,65.94,1
37.00,65.18,1
194.00,65.27,1
93.00,67.46,1
102.00,70.87,1
93.00,74.34,1
96.00,77.70,1
43.00,80.40,1
80.00,81.95,1
45.00,82.46,1
54.00,81.97,1
43.00,80.51,1
43.00,78.26,1
54.00,75.47,1
36.00,72.41,1
36.00,69.02,1
81.00,65.73,1
44.00,63.05,1
86.00,61.04,1
80.00,59.95,1
56.00,59.63,1
56.00,59.47,1
41.00,59.11,1
42.00,58.37,1
54.00,57.35,1
48.00,56.32,1
35.00,55.20,1
55.00,53.95,1
39.00,52.74,1
47.00,51.56,1
55.00,50.51,1
104.00,50.21,1
35.00,50.79,1
64.00,51.52,1
39.00,52.04,1
46.00,52.27,1
43.00,52.15,1
64.00,51.95,1
72.00,52.10,1
46.00,52.59,1
48.00,52.98,1
60.00,53.19,1
36.00,53.27,1
38.00,52.98,1
38.00,52.24,1
38.00,51.20,1
54.00,50.11,1
46.00,49.21,1
41.00,48.44,1
48.00,47.72,1
41.00,47.06,1
37.00,46.38,1
46.00,45.66,1
35.00,44.96,1
98.00,44.71,1
47.00,45.35,1
71.00,46.52,1
55.00,47.89,1
40.00,49.18,1
34.00,49.93,1
125.00,50.77,1
38.00,52.42,1
56.00,54.06,1
58.00,55.24,1
70.00,56.31,1
34.00,57.18,1
65.00,57.62,1
39.00,57.74,1
40.00,57.42,1
34.00,56.55,1
66.00,55.46,1
38.00,54.49,1
36.00,53.42,1
38.00,52.06,1
51.00,50.65,1
39.00,49.39,1
36.00,48.15,1
47.00,46.93,1
35.00,45.81,1
81.00,45.09,1
44.00,45.04,1
52.00,45.34,1
36.00,45.59,1
39.00,45.62,1
39.00,45.40,1
45.00,45.06,1
44.00,44.75,1
52.00,44.56,1
35.00,44.46,1
59.00,44.41,1
41.00,44.51,1
36.00,44.58,1
48.00,44.48,1
66.00,44.58,1
44.00,45.04,1
60.00,45.66,1
36.00,46.28,1
65.00,46.85,1
36.00,47.40,1
59.00,47.87,1
99.00,48.75,1
36.00,50.22,1
46.00,51.47,1
49.00,52.18,1
43.00,52.53,1
38.00,52.50,1
45.00,52.09,1
90.00,51.86,1
60.00,52.32,1
47.00,53.07,1
56.00,53.63,1
52.00,54.02,1
69.00,54.42,1
50.00,54.91,1
52.00,55.29,1
38.00,55.34,1
62.00,55.12,1
46.00,54.85,1
155.00,55.39,1
36.00,57.19,1
64.00,59.08,1
36.00,60.22,1
53.00,60.66,1
36.00,60.44,1
62.00,59.83,1
36.00,59.00,1
38.00,57.84,1
84.00,56.67,1
44.00,55.97,1
39.00,55.34,1
42.00,54.37,1
39.00,53.18,1
38.00,51.83,1
42.00,50.38,1
38.00,48.93,1
77.00,47.83,1
57.00,47.46,1
61.00,47.71,1
58.00,48.27,1
43.00,48.92,1
44.00,49.35,1
60.00,49.63,1
36.00,49.85,1
44.00,49.82,1
40.00,49.51,1
59.00,49.15,1
38.00,48.87,1
83.00,48.85,1
59.00,49.39,1
70.00,50.41,1
40.00,51.50,1
57.00,52.33,1
45.00,52.88,1
73.00,53.37,1
34.00,53.83,1
39.00,53.89,1
61.00,53.58,1
57.00,53.38,1
40.00,53.24,1
41.00,52.84,1
43.00,52.16,1
35.00,51.25,1
49.00,50.21,1
34.00,49.14,1
41.00,48.01,1
63.00,47.04,1
57.00,46.60,1
38.00,46.50,1
48.00,46.38,1
44.00,46.23,1
57.00,46.18,1
76.00,46.55,1
78.00,47.67,1
38.00,49.18,1
77.00,50.61,1
42.00,51.96,1
57.00,53.07,1
40.00,53.78,1
71.00,54.26,1
34.00,54.61,1
57.00,54.70,1
38.00,54.49,1
46.00,54.01,1
40.00,53.26,1
35.00,52.26,1
42.00,51.03,1
67.00,49.94,1
50.00,49.34,1
54.00,49.08,1
37.00,48.86,1
42.00,48.49,1
59.00,48.09,1
42.00,47.87,1
40.00,47.63,1
57.00,47.36,1
56.00,47.32,1
48.00,47.52,1
51.00,47.78,1
81.00,48.31,1
60.00,49.37,1
41.00,50.55,1
87.00,51.66,1
81.00,53.25,1
126.00,55.80,1
36.00,58.95,1
109.00,61.94,1
48.00,64.66,1
108.00,67.17,1
48.00,69.44,1
105.00,71.43,1
54.00,73.15,1
49.00,74.20,1
104.00,74.66,1
53.00,75.10,1
169.00,76.09,1
37.00,77.87,1
118.00,79.63,1
34.00,80.87,1
37.00,80.98,1
340.00,82.08,1
78.00,86.81,1
167.00,93.04,1
108.00,98.99,1
47.00,103.80,1
377.00,108.81,1
65.00,116.19,1
151.00,123.39,1
87.00,128.53,1
83.00,131.54,1
169.00,132.96,1
93.00,133.89,1
1023.00,141.62,1
216.00,162.25,1
49.00,185.10,1
525.00,203.28,1
122.00,220.45,1
107.00,233.46,1
37.00,238.71,1
61.00,236.81,1
61.00,229.37,1
50.00,218.02,1
35.00,203.82,1
59.00,187.77,1
37.00,170.88,1
167.00,154.87,1
439.00,144.32,1
54.00,140.70,1
812.00,144.48,1
35.00,156.80,1
61.00,168.79,1
167.00,174.99,1
53.00,177.63,1
84.00,176.72,1
99.00,172.80,1
42.00,166.78,1
119.00,159.19,1
86.00,151.19,1
116.00,143.47,1
183.00,137.00,1
79.00,132.19,1
40.00,127.31,1
46.00,121.08,1
48.00,113.83,1
175.00,107.17,1
218.00,103.66,1
65.00,103.14,1
42.00,102.55,1
49.00,100.34,1
51.00,96.92,1
163.00,93.71,1
41.00,91.63,1
203.00,90.73,1
107.00,91.63,1
39.00,93.07,1
100.00,93.44,1
38.00,92.91,1
138.00,92.03,1
216.00,92.69,1
150.00,96.11,1
40.00,100.13,1
228.00,103.67,1
51.00,107.45,1
111.00,110.42,1
76.00,111.92,1
104.00,112.38,1
211.00,113.11,1
37.00,114.57,1
36.00,114.55,1
287.00,114.01,1
39.00,115.20,1
52.00,115.75,1
37.00,113.84,1
65.00,110.22,1
189.00,106.77,1
88.00,105.01,1
615.00,108.28,1
58.00,118.62,1
72.00,129.20,1
49.00,135.04,1
57.00,136.87,1
57.00,135.53,1
334.00,134.20,1
191.00,136.34,1
37.00,139.72,1
37.00,140.15,1
37.00,137.06,1
39.00,131.39,1
78.00,124.32,1
66.00,116.99,1
91.00,110.03,1
322.00,105.82,1
39.00,105.53,1
127.00,106.19,1
34.00,105.88,1
57.00,104.23,1
132.00,101.84,1
40.00,99.64,1
45.00,96.80,1
80.00,93.17,1
38.00,89.34,1
144.00,85.95,1
38.00,83.53,1
187.00,82.32,1
44.00,82.43,1
125.00,83.10,1
47.00,83.68,1
38.00,83.48,1
44.00,81.95,1
185.00,80.64,1
48.00,80.80,1
58.00,81.05,1
50.00,80.33,1
43.00,78.78,1
36.00,76.41,1
80.00,73.69,1
42.00,71.16,1
115.00,69.19,1
46.00,68.03,1
52.00,67.05,1
54.00,65.76,1
35.00,64.22,1
144.00,63.14,1
480.00,66.95,1
160.00,78.06,1
79.00,91.21,1
94.00,101.57,1
95.00,109.07,1
36.00,113.80,1
199.00,116.64,1
39.00,118.85,1
600.00,123.86,1
50.00,134.24,1
77.00,144.11,1
40.00,148.87,1
40.00,149.22,1
40.00,145.82,1
48.00,139.82,1
35.00,132.06,1
39.00,123.10,1
65.00,113.70,1
37.00,104.51,1
106.00,96.10,1
36.00,88.88,1
105.00,82.80,1
35.00,77.77,1
77.00,73.45,1
148.00,70.53,1
36.00,69.34,1
42.00,68.32,1
36.00,66.56,1
38.00,64.27,1
37.00,61.64,1
107.00,59.41,1
35.00,58.13,1
817.00,63.43,1
41.00,79.49,1
127.00,97.56,1
36.00,110.81,1
43.00,119.24,1
46.00,122.99,1
316.00,125.50,1
41.00,129.21,1
38.00,131.36,1
51.00,130.02,1
39.00,126.20,1
42.00,120.51,1
182.00,114.72,1
36.00,110.19,1
49.00,105.59,1
108.00,100.62,1
60.00,96.19,1
90.00,92.28,1
44.00,88.60,1
39.00,84.67,1
55.00,80.34,1
40.00,75.94,1
66.00,71.75,1
38.00,67.93,1
47.00,64.35,1
36.00,60.88,1
60.00,57.71,1
57.00,55.16,1
74.00,53.45,1
45.00,52.46,1
104.00,52.19,1
62.00,52.87,1
72.00,54.11,1
42.00,55.32,1
37.00,56.00,1
52.00,56.06,1
39.00,55.73,1
128.00,55.78,1
38.00,56.72,1
46.00,57.63,1
36.00,57.78,1
54.00,57.41,1
42.00,56.77,1
91.00,56.29,1
35.00,56.22,1
53.00,56.08,1
41.00,55.62,1
65.00,55.08,1
47.00,54.65,1
60.00,54.33,1
68.00,54.23,1
52.00,54.42,1
39.00,54.50,1
127.00,54.88,1
43.00,56.14,1
66.00,57.54,1
38.00,58.47,1
87.00,59.13,1
40.00,59.76,1
55.00,60.09,1
94.00,60.38,1
44.00,60.98,1
37.00,61.22,1
45.00,60.73,1
62.00,59.91,1
194.00,60.31,1
41.00,62.68,1
46.00,65.07,1
53.00,66.27,1
36.00,66.56,1
35.00,65.88,1
36.00,64.36,1
50.00,62.39,1
88.00,60.67,1
103.00,60.09,1
33.00,60.36,1
35.00,60.25,1
204.00,60.72,1
41.00,63.09,1
36.00,65.46,1
56.00,66.48,1
34.00,66.56,1
51.00,65.86,1
131.00,65.36,1
69.00,65.98,1
98.00,67.29,1
49.00,68.65,1
45.00,69.41,1
42.00,69.19,1
38.00,68.11,1
36.00,66.29,1
48.00,64.03,1
35.00,61.57,1
37.00,58.95,1
55.00,56.37,1
42.00,54.10,1
113.00,52.67,1
66.00,52.59,1
37.00,53.14,1
132.00,54.04,1
35.00,55.72,1
45.00,57.19,1
55.00,57.91,1
52.00,58.25,1
213.00,59.67,1
51.00,63.17,1
36.00,66.64,1
56.00,68.55,1
99.00,69.79,1
65.00,71.05,1
44.00,71.92,1
67.00,72.01,1
40.00,71.50,1
48.00,70.36,1
40.00,68.61,1
44.00,66.44,1
40.00,63.97,1
184.00,62.53,1
38.00,63.04,1
44.00,63.86,1
40.00,63.74,1
59.00,63.05,1
54.00,62.19,1
73.00,61.46,1
44.00,60.90,1
37.00,60.09,1
72.00,59.06,1
35.00,58.11,1
59.00,57.12,1
40.00,56.08,1
45.00,54.96,1
40.00,53.68,1
41.00,52.31,1
45.00,50.92,1
56.00,49.73,1
50.00,48.89,1
36.00,48.22,1
35.00,47.41,1
48.00,46.50,1
36.00,45.65,1
42.00,44.84,1
38.00,44.04,1
61.00,43.46,1
49.00,43.31,1
55.00,43.55,1
36.00,43.89,1
78.00,44.40,1
38.00,45.23,1
45.00,46.00,1
36.00,46.42,1
42.00,46.52,1
40.00,46.38,1
38.00,46.06,1
39.00,45.57,1
38.00,44.97,1
45.00,44.35,1
34.00,43.75,1
40.00,43.11,1
39.00,42.47,1
45.00,41.92,1
35.00,41.47,1
40.00,41.04,1
36.00,40.61,1
51.00,40.28,1
57.00,40.31,1
34.00,40.65,1
36.00,40.89,1
60.00,41.10,1
43.00,41.54,1
48.00,42.11,1
40.00,42.63,1
35.00,42.96,1
39.00,43.02,1
48.00,42.98,1
36.00,42.94,1
35.00,42.76,1
42.00,42.44,1
47.00,42.16,1
43.00,42.04,1
49.00,42.06,1
36.00,42.15,1
36.00,42.12,1
41.00,41.93,1
35.00,41.67,1
58.00,41.49,1
42.00,41.58,1
42.00,41.80,1
36.00,41.92,1
37.00,41.87,1
36.00,41.66,1
65.00,41.55,1
36.00,41.78,1
62.00,42.21,1
38.00,42.78,1
77.00,43.58,1
34.00,44.61,1
58.00,45.60,1
35.00,46.37,1
58.00,46.96,1
43.00,47.46,1
38.00,47.78,1
38.00,47.73,1
44.00,47.43,1
47.00,47.06,1
50.00,46.78,1
46.00,46.61,1
45.00,46.49,1
38.00,46.30,1
40.00,45.95,1
58.00,45.63,1
59.00,45.65,1
34.00,45.89,1
38.00,45.91,1
60.00,45.82,1
35.00,45.83,1
68.00,45.96,1
35.00,46.24,1
48.00,46.46,1
36.00,46.47,1
72.00,46.53,1
37.00,46.83,1
62.00,47.23,1
40.00,47.63,1
41.00,47.88,1
37.00,47.79,1
49.00,47.50,1
41.00,47.16,1
47.00,46.82,1
35.00,46.41,1
44.00,45.90,1
37.00,45.31,1
46.00,44.72,1
40.00,44.19,1
46.00,43.75,1
39.00,43.38,1
43.00,43.05,1
42.00,42.75,1
61.00,42.67,1
44.00,42.91,1
43.00,43.27,1
51.00,43.61,1
35.00,43.91,1
55.00,44.15,1
45.00,44.43,1
48.00,44.78,1
56.00,45.19,1
47.00,45.72,1
36.00,46.14,1
58.00,46.40,1
36.00,46.62,1
47.00,46.71,1
37.00,46.61,1
36.00,46.30,1
35.00,45.72,1
49.00,45.05,1
39.00,44.47,1
42.00,43.96,1
37.00,43.44,1
57.00,43.04,1
35.00,42.85,1
51.00,42.76,1
41.00,42.75,1
46.00,42.81,1
44.00,42.90,1
37.00,42.97,1
48.00,42.97,1
48.00,43.05,1
37.00,43.18,1
36.00,43.16,1
47.00,43.00,1
32.00,42.80,1
34.00,42.44,1
36.00,41.87,1
54.00,41.38,1
34.00,41.11,1
44.00,40.92,1
35.00,40.72,1
39.00,40.49,1
44.00,40.27,1
56.00,40.28,1
35.00,40.54,1
62.00,40.95,1
63.00,41.75,1
43.00,42.89,1
47.00,43.96,1
48.00,44.85,1
40.00,45.55,1
39.00,45.96,1
41.00,46.07,1
36.00,45.92,1
35.00,45.51,1
42.00,44.92,1
35.00,44.26,1
48.00,43.62,1
45.00,43.14,1
38.00,42.80,1
47.00,42.52,1
35.00,42.28,1
49.00,42.08,1
41.00,41.97,1
44.00,41.94,1
37.00,41.91,1
48.00,41.87,1
34.00,41.84,1
41.00,41.73,1
38.00,41.54,1
85.00,41.69,1
36.00,42.44,1
44.00,43.28,1
34.00,43.78,1
47.00,44.03,1
36.00,44.12,1
35.00,44.01,1
39.00,43.66,1
37.00,43.19,1
37.00,42.64,1
62.00,42.25,1
36.00,42.18,1
43.00,42.20,1
43.00,42.18,1
34.00,42.12,1
41.00,41.94,1
54.00,41.82,1
35.00,41.87,1
38.00,41.86,1
47.00,41.78,1
36.00,41.72,1
37.00,41.58,1
39.00,41.34,1
38.00,41.05,1
36.00,40.72,1
81.00,40.70,1
34.00,41.26,1
51.00,41.98,1
114.00,43.21,1
49.00,45.43,1
35.00,47.66,1
46.00,49.14,1
37.00,50.00,1
52.00,50.42,1
35.00,50.53,1
96.00,50.74,1
35.00,51.39,1
47.00,51.95,1
137.00,52.85,1
44.00,54.80,1
42.00,56.68,1
36.00,57.58,1
42.00,57.65,1
40.00,57.11,1
36.00,56.11,1
53.00,54.86,1
40.00,53.60,1
43.00,52.32,1
39.00,50.98,1
42.00,49.62,1
48.00,48.37,1
37.00,47.26,1
40.00,46.19,1
64.00,45.35,1
43.00,44.95,1
51.00,44.83,1
42.00,44.80,1
38.00,44.73,1
41.00,44.50,1
43.00,44.21,1
39.00,43.90,1
38.00,43.52,1
53.00,43.19,1
54.00,43.14,1
35.00,43.30,1
38.00,43.33,1
36.00,43.13,1
35.00,42.75,1
42.00,42.27,1
54.00,41.94,1
66.00,42.09,1
36.00,42.64,1
57.00,43.26,1
36.00,43.84,1
35.00,44.18,1
44.00,44.22,1
36.00,44.10,1
39.00,43.84,1
54.00,43.57,1
38.00,43.46,1
36.00,43.31,1
51.00,43.09,1
35.00,42.93,1
49.00,42.80,1
38.00,42.70,1
44.00,42.60,1
69.00,42.74,1
48.00,43.33,1
37.00,44.02,1
47.00,44.48,1
35.00,44.74,1
64.00,44.94,1
83.00,45.66,1
53.00,47.04,1
44.00,48.46,1
84.00,49.79,1
42.00,51.26,1
37.00,52.38,1
47.00,52.84,1
48.00,52.92,1
46.00,52.80,1
53.00,52.55,1
160.00,53.21,1
39.00,55.36,1
47.00,57.51,1
35.00,58.63,1
47.00,58.89,1
40.00,58.54,1
35.00,57.67,1
38.00,56.33,1
39.00,54.69,1
57.00,53.06,1
43.00,51.69,1
35.00,50.41,1
58.00,49.18,1
101.00,48.71,1
47.00,49.28,1
45.00,50.07,1
56.00,50.61,1
47.00,51.04,1
50.00,51.32,1
40.00,51.39,1
40.00,51.14,1
50.00,50.67,1
45.00,50.17,1
54.00,49.73,1
42.00,49.37,1
72.00,49.19,1
35.00,49.26,1
40.00,49.19,1
60.00,48.95,1
37.00,48.79,1
41.00,48.49,1
100.00,48.47,1
42.00,49.20,1
48.00,50.04,1
54.00,50.61,1
42.00,51.01,1
39.00,51.09,1
59.00,50.94,1
42.00,50.78,1
76.00,50.80,1
35.00,51.02,1
77.00,51.35,1
43.00,51.82,1
54.00,52.26,1
40.00,52.44,1
81.00,52.62,1
34.00,52.96,1
44.00,53.07,1
34.00,52.68,1
38.00,51.89,1
40.00,50.81,1
37.00,49.59,1
44.00,48.33,1
44.00,47.17,1
38.00,46.13,1
40.00,45.14,1
49.00,44.28,1
50.00,43.71,1
48.00,43.46,1
36.00,43.34,1
37.00,43.12,1
35.00,42.72,1
36.00,42.18,1
39.00,41.59,1
45.00,41.08,1
40.00,40.73,1
35.00,40.44,1
39.00,40.12,1
42.00,39.82,1
62.00,39.81,1
46.00,40.24,1
51.00,40.93,1
36.00,41.62,1
40.00,42.12,1
42.00,42.41,1
34.00,42.53,1
36.00,42.43,1
47.00,42.21,1
39.00,42.05,1
37.00,41.87,1
45.00,41.66,1
39.00,41.49,1
36.00,41.31,1
36.00,41.01,1
65.00,40.86,1
43.00,41.13,1
40.00,41.55,1
43.00,41.86,1
36.00,42.06,1
41.00,42.11,1
36.00,42.02,1
50.00,41.92,1
41.00,41.92,1
38.00,41.93,1
59.00,42.02,1
41.00,42.32,1
38.00,42.63,1
40.00,42.76,1
36.00,42.71,1
48.00,42.59,1
34.00,42.46,1
46.00,42.29,1
41.00,42.15,1
43.00,42.06,1
35.00,41.94,1
46.00,41.78,1
36.00,41.62,1
40.00,41.43,1
38.00,41.19,1
37.00,40.91,1
35.00,40.56,1
42.00,40.18,1
41.00,39.89,1
42.00,39.72,1
41.00,39.65,1
38.00,39.63,1
51.00,39.69,1
35.00,39.87,1
44.00,40.06,1
35.00,40.18,1
47.00,40.27,1
36.00,40.37,1
45.00,40.47,1
35.00,40.54,1
43.00,40.56,1
33.00,40.51,1
40.00,40.36,1
39.00,40.16,1
45.00,40.04,1
40.00,40.01,1
44.00,40.07,1
37.00,40.15,1
35.00,40.15,1
38.00,40.03,1
65.00,40.06,1
38.00,40.47,1
35.00,40.89,1
34.00,41.04,1
42.00,40.99,1
40.00,40.90,1
36.00,40.79,1
43.00,40.63,1
37.00,40.49,1
40.00,40.34,1
43.00,40.21,1
45.00,40.20,1
38.00,40.27,1
41.00,40.34,1
40.00,40.38,1
44.00,40.43,1
39.00,40.52,1
48.00,40.65,1
36.00,40.82,1
50.00,41.01,1
35.00,41.21,1
47.00,41.38,1
37.00,41.51,1
47.00,41.62,1
36.00,41.72,1
48.00,41.79,1
35.00,41.84,1
43.00,41.83,1
37.00,41.74,1
46.00,41.64,1
40.00,41.59,1
59.00,41.70,1
36.00,42.01,1
40.00,42.27,1
43.00,42.38,1
41.00,42.45,1
40.00,42.46,1
36.00,42.36,1
38.00,42.12,1
34.00,41.76,1
35.00,41.27,1
40.00,40.72,1
47.00,40.30,1
36.00,40.05,1
43.00,39.87,1
36.00,39.73,1
42.00,39.60,1
36.00,39.49,1
38.00,39.35,1
34.00,39.15,1
52.00,39.01,1
39.00,39.08,1
46.00,39.30,1
34.00,39.52,1
50.00,39.75,1
34.00,39.99,1
46.00,40.21,1
40.00,40.42,1
43.00,40.64,1
39.00,40.82,1
36.00,40.91,1
42.00,40.89,1
41.00,40.86,1
36.00,40.80,1
38.00,40.66,1
35.00,40.42,1
37.00,40.10,1
41.00,39.77,1
41.00,39.52,1
44.00,39.41,1
35.00,39.38,1
53.00,39.44,1
41.00,39.68,1
37.00,39.98,1
44.00,40.19,1
44.00,40.43,1
36.00,40.65,1
47.00,40.83,1
33.00,40.96,1
54.00,41.09,1
35.00,41.28,1
52.00,41.52,1
37.00,41.78,1
56.00,42.10,1
49.00,42.60,1
60.00,43.33,1
41.00,44.19,1
35.00,44.85,1
36.00,45.08,1
35.00,44.93,1
176.00,45.68,1
127.00,48.98,1
46.00,53.84,1
89.00,58.30,1
86.00,62.33,1
321.00,68.18,1
170.00,77.82,1
232.00,89.99,1
395.00,104.84,1
64.00,121.67,1
50.00,135.15,1
87.00,142.99,1
806.00,152.77,1
163.00,170.67,1
153.00,189.29,1
462.00,204.87,1
502.00,223.05,1
59.00,242.13,1
377.00,256.86,1
94.00,267.00,1
296.00,272.98,1
117.00,275.11,1
68.00,272.47,1
330.00,266.25,1
78.00,259.38,1
102.00,250.45,1
284.00,240.05,1
235.00,231.70,1
189.00,225.48,1
346.00,221.23,1
190.00,219.53,1
194.00,218.58,1
300.00,217.89,1
216.00,218.50,1
237.00,219.75,1
201.00,220.81,1
123.00,220.60,1
518.00,221.12,1
72.00,224.36,1
262.00,227.05,1
174.00,227.95,1
53.00,226.58,1
56.00,220.85,1
354.00,213.46,1
163.00,208.45,1
165.00,204.74,1
86.00,199.92,1
124.00,193.45,1
127.00,185.94,1
40.00,177.52,1
203.00,168.65,1
114.00,160.97,1
49.00,153.77,1
132.00,146.05,1
224.00,139.79,1
157.00,136.51,1
52.00,134.40,1
86.00,131.22,1
176.00,127.78,1
208.00,126.28,1
164.00,127.24,1
378.00,131.33,1
64.00,138.26,1
74.00,143.74,1
347.00,147.77,1
424.00,155.79,1
145.00,167.81,1
57.00,177.76,1
177.00,183.05,1
138.00,185.54,1
66.00,185.57,1
89.00,182.38,1
255.00,178.03,1
89.00,174.53,1
339.00,172.49,1
1023.00,180.12,1
153.00,201.03,1
162.00,222.60,1
179.00,237.05,1
76.00,245.11,1
93.00,246.66,1
46.00,242.27,1
321.00,235.04,1
126.00,228.51,1
71.00,221.30,1
196.00,212.32,1
332.00,205.04,1
141.00,200.99,1
189.00,197.92,1
49.00,193.73,1
243.00,188.53,1
194.00,184.37,1
102.00,181.17,1
102.00,176.87,1
127.00,171.34,1
61.00,164.89,1
59.00,157.09,1
401.00,150.77,1
96.00,148.90,1
120.00,148.46,1
94.00,146.77,1
411.00,146.57,1
77.00,149.83,1
81.00,152.69,1
40.00,152.12,1
127.00,149.04,1
38.00,144.49,1
138.00,139.08,1
94.00,133.73,1
408.00,131.32,1
273.00,134.96,1
103.00,141.97,1
143.00,147.75,1
105.00,151.34,1
272.00,154.24,1
112.00,157.62,1
49.00,159.48,1
102.00,158.22,1
249.00,156.19,1
822.00,161.32,1
324.00,178.18,1
59.00,197.74,1
126.00,210.69,1
72.00,216.72,1
215.00,218.18,1
49.00,216.62,1
370.00,213.92,1
42.00,211.66,1
208.00,208.41,1
49.00,203.22,1
166.00,196.45,1
691.00,193.65,1
327.00,200.67,1
46.00,210.88,1
471.00,219.02,1
65.00,226.66,1
140.00,231.07,1
555.00,234.22,1
170.00,240.61,1
134.00,246.02,1
182.00,247.11,1
468.00,247.76,1
301.00,251.81,1
138.00,256.57,1
263.00,258.64,1
238.00,259.10,1
78.00,257.60,1
266.00,253.41,1
660.00,252.41,1
266.00,258.61,1
45.00,265.01,1
340.00,266.80,1
327.00,268.03,1
102.00,269.17,1
98.00,266.34,1
262.00,259.99,1
540.00,256.17,1
320.00,258.55,1
154.00,262.86,1
224.00,264.51,1
41.00,262.30,1
296.00,256.95,1
318.00,252.25,1
189.00,249.59,1
369.00,248.12,1
291.00,248.91,1
321.00,251.78,1
67.00,253.90,1
307.00,253.43,1
104.00,251.16,1
126.00,246.45,1
186.00,239.18,1
227.00,231.73,1
254.00,225.79,1
115.00,220.84,1
187.00,215.31,1
161.00,209.36,1
242.00,204.12,1
55.00,199.17,1
106.00,192.59,1
161.00,184.75,1
105.00,177.06,1
196.00,170.05,1
390.00,166.43,1
251.00,168.43,1
105.00,172.65,1
116.00,174.89,1
94.00,174.36,1
390.00,173.93,1
138.00,176.20,1
181.00,179.10,1
98.00,180.33,1
54.00,178.88,1
242.00,175.55,1
149.00,172.90,1
52.00,170.06,1
94.00,165.14,1
49.00,158.35,1
358.00,152.50,1
181.00,150.84,1
101.00,151.38,1
119.00,150.92,1
59.00,148.88,1
191.00,145.94,1
138.00,143.68,1
205.00,142.76,1
104.00,142.73,1
141.00,142.56,1
215.00,142.70,1
248.00,144.84,1
119.00,148.55,1
280.00,152.79,1
55.00,157.04,1
95.00,159.07,1
242.00,159.37,1
53.00,159.56,1
111.00,158.21,1
306.00,156.76,1
60.00,156.94,1
76.00,156.03,1
77.00,152.58,1
94.00,147.56,1
163.00,142.41,1
132.00,138.35,1
76.00,134.85,1
399.00,133.37,1
135.00,136.20,1
45.00,139.76,1
84.00,140.39,1
140.00,139.14,1
257.00,138.73,1
60.00,139.73,1
382.00,142.15,1
576.00,150.89,1
330.00,167.94,1
158.00,186.88,1
111.00,201.34,1
127.00,209.83,1
333.00,215.09,1
461.00,222.32,1
81.00,231.53,1
100.00,236.83,1
411.00,238.77,1
41.00,240.31,1
96.00,238.34,1
195.00,232.47,1
84.00,225.04,1
36.00,215.19,1
70.00,202.48,1
278.00,189.89,1
310.00,181.82,1
288.00,179.49,1
118.00,180.09,1
48.00,179.29,1
170.00,175.95,1
54.00,171.26,1
211.00,166.07,1
155.00,161.85,1
43.00,157.95,1
192.00,153.35,1
88.00,149.04,1
119.00,144.86,1
81.00,140.26,1
296.00,136.90,1
370.00,138.45,1
216.00,145.36,1
138.00,153.56,1
282.00,161.13,1
187.00,168.89,1
162.00,175.96,1
52.00,180.17,1
166.00,181.00,1
62.00,179.35,1
53.00,174.98,1
46.00,167.66,1
42.00,158.07,1
60.00,147.12,1
71.00,135.86,1
77.00,125.12,1
95.00,115.46,1
64.00,107.05,1
45.00,99.33,1
122.00,92.46,1
164.00,87.93,1
165.00,86.71,1
228.00,88.88,1
50.00,93.13,1
254.00,98.10,1
198.00,104.89,1
108.00,112.85,1
39.00,118.92,1
154.00,122.42,1
208.00,125.61,1
164.00,129.97,1
215.00,135.19,1
96.00,140.39,1
241.00,145.05,1
74.00,149.19,1
102.00,151.46,1
46.00,150.85,1
179.00,148.47,1
166.00,146.46,1
44.00,144.68,1
170.00,142.06,1
179.00,140.02,1
239.00,140.19,1
117.00,142.08,1
84.00,143.42,1
122.00,143.06,1
245.00,142.79,1
316.00,145.52,1
85.00,150.78,1
49.00,154.22,1
58.00,153.70,1
215.00,151.35,1
66.00,149.14,1
487.00,149.41,1
246.00,155.38,1
76.00,163.48,1
154.00,168.79,1
214.00,172.18,1
201.00,175.53,1
59.00,177.86,1
194.00,178.00,1
104.00,176.77,1
135.00,174.41,1
139.00,171.10,1
360.00,169.30,1
146.00,170.69,1
171.00,172.91,1
115.00,173.86,1
280.00,174.46,1
101.00,175.56,1
441.00,178.22,1
103.00,183.38,1
196.00,188.21,1
54.00,190.20,1
44.00,188.33,1
127.00,182.87,1
130.00,176.21,1
62.00,169.03,1
48.00,160.42,1
70.00,150.48,1
54.00,139.94,1
101.00,129.59,1
38.00,119.88,1
356.00,112.93,1
53.00,110.54,1
154.00,110.17,1
127.00,110.28,1
203.00,111.78,1
172.00,115.06,1
168.00,119.65,1
497.00,127.50,1
372.00,141.94,1
265.00,160.61,1
220.00,178.80,1
404.00,195.90,1
85.00,211.62,1
78.00,221.94,1
152.00,225.66,1
53.00,224.58,1
249.00,220.50,1
112.00,215.59,1
151.00,209.88,1
163.00,203.37,1
317.00,198.26,1
218.00,196.24,1
74.00,195.06,1
438.00,194.36,1
108.00,196.20,1
184.00,198.03,1
253.00,198.90,1
159.00,200.00,1
395.00,202.21,1
185.00,206.58,1
199.00,211.06,1
369.00,215.34,1
126.00,220.27,1
166.00,223.22,1
471.00,225.76,1
268.00,231.58,1
43.00,237.03,1
212.00,237.99,1
332.00,237.47,1
202.00,238.12,1
117.00,237.80,1
117.00,234.23,1
50.00,227.08,1
280.00,218.27,1
98.00,210.21,1
60.00,201.56,1
63.00,190.63,1
231.00,179.46,1
102.00,170.24,1
136.00,162.32,1
321.00,156.67,1
251.00,155.74,1
218.00,158.50,1
38.00,161.36,1
119.00,161.62,1
117.00,159.71,1
385.00,159.10,1
150.00,161.93,1
296.00,166.87,1
125.00,172.27,1
166.00,176.57,1
81.00,178.42,1
244.00,178.65,1
76.00,178.24,1
141.00,176.46,1
414.00,175.66,1
146.00,178.45,1
491.00,184.61,1
208.00,194.23,1
138.00,203.77,1
143.00,209.45,1
82.00,211.02,1
174.00,209.23,1
333.00,207.25,1
85.00,206.55,1
220.00,205.16,1
187.00,203.21,1
62.00,200.43,1
56.00,194.69,1
132.00,186.41,1
54.00,177.06,1
326.00,168.77,1
100.00,163.58,1
341.00,161.38,1
143.00,162.05,1
149.00,163.62,1
68.00,163.62,1
195.00,162.17,1
109.00,160.40,1
262.00,159.32,1
133.00,159.57,1
144.00,160.05,1
111.00,159.52,1
231.00,158.77,1
47.00,158.08,1
146.00,156.21,1
130.00,153.50,1
197.00,151.35,1
60.00,149.53,1
214.00,147.60,1
76.00,145.91,1
236.00,144.79,1
127.00,144.72,1
71.00,144.51,1
76.00,142.41,1
75.00,138.59,1
126.00,134.00,1
197.00,130.43,1
56.00,128.16,1
113.00,125.68,1
114.00,122.90,1
40.00,119.89,1
177.00,116.70,1
53.00,114.11,1
190.00,112.28,1
260.00,112.93,1
138.00,116.68,1
115.00,121.07,1
209.00,125.17,1
282.00,130.90,1
57.00,137.79,1
148.00,142.97,1
144.00,146.29,1
39.00,147.89,1
234.00,147.98,1
60.00,147.84,1
148.00,146.99,1
448.00,148.15,1
200.00,154.42,1
219.00,162.89,1
182.00,170.73,1
121.00,176.86,1
94.00,179.94,1
150.00,180.11,1
65.00,178.06,1
82.00,173.62,1
217.00,168.16,1
267.00,164.91,1
118.00,164.18,1
193.00,163.95,1
261.00,164.68,1
146.00,166.92,1
125.00,168.71,1
398.00,171.07,1
214.00,176.58,1
185.00,183.29,1
494.00,191.28,1
279.00,203.03,1
42.00,214.30,1
305.00,221.26,1
112.00,225.55,1
148.00,226.92,1
102.00,224.62,1
41.00,218.67,1
420.00,211.90,1
72.00,207.65,1
61.00,202.72,1
109.00,194.78,1
135.00,185.70,1
222.00,177.63,1
151.00,171.66,1
164.00,167.15,1
110.00,163.07,1
48.00,158.13,1
196.00,152.47,1
125.00,147.79,1
276.00,145.33,1
344.00,147.07,1
293.00,153.91,1
99.00,162.54,1
232.00,169.70,1
267.00,176.40,1
124.00,183.02,1
215.00,188.03,1
307.00,192.74,1
430.00,200.39,1
170.00,210.64,1
507.00,222.03,1
196.00,234.76,1
41.00,244.45,1
514.00,250.25,1
41.00,255.56,1
248.00,258.11,1
169.00,257.36,1
84.00,253.77,1
52.00,245.86,1
117.00,234.28,1
115.00,221.02,1
99.00,207.31,1
50.00,193.06,1
38.00,177.78,1
185.00,162.84,1
154.00,150.75,1
245.00,142.66,1
199.00,138.78,1
200.00,138.19,1
327.00,140.83,1
236.00,147.23,1
101.00,154.66,1
285.00,161.17,1
51.00,166.76,1
211.00,170.42,1
135.00,172.60,1
81.00,173.19,1
48.00,170.76,1
392.00,167.97,1
252.00,169.26,1
310.00,174.61,1
329.00,182.90,1
293.00,193.55,1
180.00,204.29,1
231.00,212.99,1
273.00,220.13,1
128.00,225.75,1
56.00,227.32,1
777.00,229.42,1
154.00,238.01,1
115.00,246.58,1
96.00,248.93,1
102.00,245.90,1
470.00,241.84,1
112.00,240.33,1
237.00,238.93,1
311.00,237.38,1
163.00,236.82,1
224.00,235.67,1
80.00,232.71,1
223.00,227.73,1
109.00,221.66,1
645.00,218.70,1
358.00,223.74,1
50.00,231.80,1
329.00,236.76,1
65.00,239.08,1
160.00,238.04,1
137.00,233.66,1
99.00,227.00,1
143.00,218.36,1
131.00,208.84,1
352.00,200.96,1
39.00,195.55,1
296.00,190.98,1
219.00,188.22,1
111.00,186.89,1
60.00,183.82,1
421.00,180.80,1
538.00,184.40,1
186.00,195.09,1
149.00,205.52,1
241.00,212.66,1
135.00,217.36,1
216.00,219.75,1
111.00,219.92,1
196.00,218.01,1
477.00,217.44,1
117.00,220.27,1
42.00,221.35,1
112.00,217.42,1
90.00,210.19,1
43.00,200.51,1
174.00,189.39,1
72.00,178.51,1
98.00,167.77,1
196.00,157.90,1
87.00,149.95,1
115.00,142.97,1
142.00,136.72,1
136.00,131.89,1
36.00,127.58,1
359.00,124.76,1
436.00,128.30,1
197.00,138.71,1
323.00,151.58,1
54.00,163.77,1
620.00,176.31,1
45.00,191.07,1
228.00,203.73,1
138.00,211.87,1
80.00,215.91,1
95.00,215.12,1
58.00,210.09,1
389.00,204.27,1
265.00,202.17,1
216.00,203.25,1
191.00,204.69,1
205.00,205.65,1
80.00,205.20,1
64.00,201.64,1
186.00,195.50,1
394.00,191.23,1
198.00,191.36,1
302.00,194.21,1
227.00,198.46,1
112.00,202.31,1
82.00,202.96,1
45.00,199.38,1
122.00,192.51,1
109.00,184.21,1
39.00,174.92,1
289.00,166.00,1
75.00,159.45,1
59.00,153.31,1
70.00,145.76,1
92.00,137.61,1
286.00,131.32,1
414.00,131.11,1
118.00,136.83,1
341.00,144.84,1
132.00,153.88,1
71.00,161.25,1
69.00,164.33,1
166.00,164.34,1
40.00,162.56,1
109.00,158.77,1
79.00,153.43,1
126.00,147.55,1
97.00,141.74,1
147.00,136.49,1
36.00,131.53,1
204.00,126.90,1
76.00,123.48,1
183.00,121.25,1
127.00,120.25,1
432.00,122.72,1
246.00,130.82,1
72.00,140.91,1
47.00,147.51,1
43.00,149.39,1
116.00,147.91,1
49.00,144.56,1
415.00,142.44,1
165.00,144.73,1
109.00,148.79,1
99.00,150.92,1
157.00,151.38,1
69.00,150.71,1
42.00,147.97,1
148.00,143.49,1
154.00,139.41,1
105.00,136.34,1
355.00,135.45,1
361.00,140.10,1
331.00,150.67,1
163.00,163.55,1
179.00,174.84,1
37.00,182.23,1
308.00,186.48,1
52.00,189.37,1
609.00,193.77,1
108.00,202.11,1
144.00,209.78,1
136.00,212.99,1
87.00,212.56,1
147.00,208.98,1
98.00,203.27,1
90.00,195.79,1
55.00,186.36,1
48.00,175.07,1
228.00,163.84,1
104.00,154.91,1
71.00,147.20,1
163.00,139.85,1
205.00,134.61,1
140.00,132.07,1
187.00,131.34,1
221.00,132.52,1
97.00,135.04,1
223.00,137.78,1
91.00,140.54,1
277.00,143.63,1
89.00,147.30,1
144.00,150.16,1
238.00,152.46,1
196.00,155.91,1
66.00,159.14,1
180.00,160.52,1
94.00,160.55,1
222.00,160.14,1
464.00,162.83,1
377.00,172.10,1
88.00,184.25,1
56.00,192.41,1
94.00,194.66,1
140.00,193.12,1
117.00,189.59,1
59.00,184.22,1
425.00,179.50,1
219.00,179.40,1
322.00,183.19,1
52.00,187.57,1
57.00,188.64,1
71.00,185.18,1
138.00,179.22,1
210.00,173.35,1
117.00,168.74,1
56.00,163.78,1
87.00,157.17,1
111.00,149.76,1
244.00,143.75,1
95.00,140.18,1
344.00,139.25,1
209.00,142.15,1
74.00,146.57,1
193.00,149.62,1
65.00,151.32,1
85.00,150.98,1
50.00,148.05,1
51.00,142.87,1
138.00,136.60,1
118.00,130.99,1
132.00,126.58,1
144.00,123.39,1
79.00,121.02,1
104.00,118.57,1
160.00,116.49,1
35.00,114.85,1
172.00,113.13,1
170.00,112.62,1
103.00,113.59,1
144.00,114.88,1
283.00,117.64,1
182.00,123.26,1
255.00,130.91,1
277.00,140.42,1
37.00,150.00,1
148.00,156.45,1
188.00,160.48,1
267.00,164.77,1
100.00,169.38,1
100.00,171.96,1
135.00,171.85,1
367.00,172.17,1
90.00,174.68,1
203.00,177.00,1
86.00,177.72,1
69.00,176.05,1
97.00,171.55,1
115.00,165.57,1
78.00,158.89,1
205.00,152.48,1
57.00,147.07,1
40.00,141.06,1
70.00,133.52,1
83.00,125.55,1
320.00,119.94,1
38.00,118.02,1
121.00,116.94,1
125.00,115.60,1
344.00,116.67,1
173.00,121.82,1
144.00,128.58,1
104.00,134.14,1
120.00,137.80,1
74.00,139.50,1
118.00,139.35,1
283.00,139.53,1
115.00,141.67,1
63.00,143.38,1
64.00,142.41,1
342.00,141.38,1
87.00,142.83,1
119.00,144.46,1
209.00,145.34,1
81.00,146.30,1
246.00,147.30,1
157.00,149.24,1
298.00,152.85,1
104.00,157.62,1
69.00,160.79,1
55.00,160.30,1
61.00,156.61,1
208.00,151.80,1
105.00,147.94,1
40.00,143.90,1
102.00,138.44,1
295.00,134.17,1
243.00,134.20,1
410.00,139.61,1
54.00,148.39,1
226.00,156.30,1
326.00,164.03,1
61.00,172.25,1
74.00,177.09,1
73.00,177.25,1
146.00,174.53,1
156.00,170.98,1
165.00,167.79,1
162.00,165.17,1
47.00,162.13,1
113.00,157.49,1
140.00,152.18,1
108.00,147.25,1
204.00,143.26,1
74.00,140.38,1
266.00,138.65,1
98.00,138.58,1
213.00,139.53,1
84.00,140.66,1
127.00,141.07,1
51.00,139.93,1
212.00,138.09,1
115.00,136.99,1
260.00,137.43,1
185.00,139.98,1
273.00,144.77,1
77.00,150.30,1
163.00,154.42,1
147.00,157.00,1
182.00,159.04,1
236.00,161.52,1
214.00,165.24,1
145.00,169.29,1
190.00,172.50,1
632.00,178.81,1
53.00,190.24,1
209.00,200.47,1
37.00,205.81,1
69.00,206.00,1
59.00,201.21,1
62.00,192.93,1
61.00,182.26,1
49.00,170.00,1
68.00,156.93,1
98.00,144.16,1
49.00,132.27,1
36.00,120.77,1
249.00,111.10,1
288.00,106.84,1
127.00,107.98,1
87.00,110.47,1
84.00,111.89,1
87.00,112.11,1
163.00,112.04,1
200.00,113.35,1
49.00,115.66,1
76.00,116.69,1
213.00,117.03,1
87.00,118.28,1
127.00,119.57,1
176.00,120.87,1
94.00,122.60,1
154.00,124.13,1
136.00,125.65,1
140.00,127.33,1
300.00,130.31,1
51.00,134.82,1
109.00,138.00,1
303.00,140.59,1
71.00,144.40,1
84.00,146.88,1
100.00,146.70,1
108.00,144.96,1
69.00,142.01,1
219.00,138.91,1
156.00,137.46,1
130.00,137.28,1
297.00,138.50,1
86.00,141.55,1
81.00,143.74,1
86.00,143.42,1
311.00,143.09,1
168.00,145.36,1
229.00,149.52,1
169.00,154.32,1
116.00,158.52,1
82.00,160.47,1
216.00,160.74,1
331.00,162.64,1
318.00,168.56,1
366.00,178.59,1
190.00,190.54,1
58.00,199.97,1
46.00,203.44,1
90.00,201.28,1
163.00,196.20,1
181.00,190.78,1
63.00,185.20,1
127.00,178.43,1
214.00,171.78,1
66.00,166.17,1
47.00,159.65,1
276.00,153.03,1
138.00,149.03,1
252.00,147.72,1
124.00,148.17,1
203.00,149.42,1
135.00,150.93,1
131.00,152.08,1
255.00,153.32,1
98.00,155.30,1
48.00,155.79,1
259.00,154.76,1
103.00,154.38,1
122.00,153.84,1
57.00,151.68,1
133.00,148.08,1
69.00,143.66,1
229.00,139.69,1
187.00,137.96,1
61.00,137.59,1
62.00,135.82,1
329.00,134.24,1
268.00,136.83,1
122.00,142.44,1
48.00,146.62,1
50.00,147.14,1
99.00,144.69,1
128.00,141.16,1
148.00,137.97,1
42.00,134.83,1
70.00,130.47,1
85.00,125.06,1
45.00,119.14,1
56.00,112.60,1
47.00,105.59,1
184.00,99.53,1
233.00,96.98,1
192.00,98.82,1
54.00,102.53,1
103.00,105.29,1
41.00,106.38,1
40.00,105.53,1
289.00,104.78,1
343.00,108.74,1
245.00,118.31,1
76.00,129.23,1
105.00,137.39,1
92.00,142.14,1
38.00,143.72,1
65.00,142.06,1
72.00,138.06,1
52.00,132.61,1
71.00,126.07,1
129.00,119.60,1
186.00,115.00,1
119.00,112.86,1
64.00,111.55,1
101.00,109.73,1
139.00,108.07,1
263.00,108.56,1
97.00,111.67,1
236.00,116.09,1
113.00,121.25,1
71.00,125.57,1
157.00,128.11,1
189.00,130.55,1
129.00,133.58,1
273.00,137.43,1
115.00,142.35,1
289.00,147.93,1
159.00,154.35,1
246.00,161.19,1
41.00,166.77,1
120.00,169.17,1
96.00,168.50,1
39.00,165.31,1
102.00,159.68,1
457.00,155.90,1
260.00,158.47,1
263.00,165.45,1
102.00,172.64,1
53.00,176.68,1
64.00,176.13,1
134.00,172.47,1
239.00,168.71,1
111.00,166.24,1
60.00,163.16,1
94.00,158.10,1
140.00,152.25,1
36.00,146.16,1
263.00,140.63,1
180.00,137.91,1
106.00,137.32,1
56.00,136.03,1
144.00,133.54,1
43.00,130.43,1
319.00,128.30,1
88.00,128.78,1
108.00,129.87,1
49.00,129.34,1
45.00,126.71,1
47.00,122.06,1
361.00,118.63,1
157.00,119.75,1
171.00,123.67,1
138.00,127.82,1
62.00,130.95,1
121.00,132.17,1
81.00,131.91,1
159.00,131.01,1
57.00,129.75,1
67.00,127.33,1
107.00,123.75,1
313.00,121.87,1
119.00,123.46,1
266.00,127.34,1
127.00,132.50,1
265.00,138.55,1
120.00,144.98,1
212.00,151.00,1
338.00,157.89,1
176.00,166.71,1
191.00,175.18,1
284.00,182.78,1
527.00,193.17,1
86.00,206.41,1
49.00,215.84,1
77.00,218.04,1
77.00,214.80,1
81.00,207.82,1
322.00,200.27,1
63.00,194.42,1
296.00,189.69,1
40.00,185.58,1
112.00,180.33,1
211.00,174.31,1
137.00,169.51,1
66.00,164.81,1
94.00,158.80,1
226.00,152.94,1
36.00,148.25,1
66.00,142.79,1
160.00,136.64,1
168.00,132.02,1
239.00,130.23,1
123.00,130.93,1
42.00,131.48,1
110.00,130.13,1
201.00,128.63,1
78.00,128.11,1
124.00,127.46,1
154.00,126.71,1
161.00,126.86,1
206.00,128.41,1
239.00,132.07,1
42.00,136.48,1
171.00,139.42,1
116.00,141.18,1
78.00,141.81,1
254.00,141.96,1
90.00,142.96,1
86.00,143.29,1
57.00,141.43,1
54.00,137.44,1
58.00,131.68,1
151.00,125.60,1
280.00,122.11,1
371.00,124.36,1
636.00,135.70,1
166.00,154.85,1
323.00,174.94,1
196.00,192.75,1
80.00,206.49,1
42.00,213.42,1
98.00,213.76,1
36.00,209.16,1
83.00,200.83,1
119.00,190.52,1
127.00,180.07,1
147.00,170.47,1
51.00,161.45,1
47.00,151.67,1
245.00,142.45,1
50.00,135.58,1
206.00,130.43,1
70.00,126.60,1
186.00,123.91,1
201.00,123.09,1
271.00,125.50,1
73.00,129.92,1
254.00,134.53,1
54.00,138.84,1
164.00,141.86,1
89.00,143.35,1
239.00,144.55,1
37.00,145.68,1
61.00,144.82,1
164.00,142.05,1
38.00,138.77,1
122.00,134.68,1
132.00,130.54,1
38.00,126.58,1
50.00,121.50,1
170.00,116.17,1
204.00,113.20,1
194.00,113.57,1
133.00,116.09,1
137.00,119.10,1
77.00,121.45,1
77.00,122.26,1
47.00,121.14,1
45.00,118.09,1
116.00,113.93,1
239.00,111.28,1
62.00,111.00,1
58.00,110.59,1
104.00,108.96,1
97.00,107.12,1
39.00,104.96,1
164.00,102.65,1
127.00,101.59,1
119.00,101.85,1
38.00,102.01,1
98.00,101.18,1
70.00,99.72,1
69.00,97.84,1
62.00,95.41,1
42.00,92.35,1
374.00,91.28,1
132.00,95.06,1
134.00,101.19,1
207.00,107.52,1
130.00,114.41,1
235.00,121.67,1
42.00,128.47,1
113.00,132.94,1
199.00,135.80,1
37.00,138.01,1
92.00,138.13,1
122.00,136.48,1
52.00,133.91,1
170.00,130.81,1
221.00,129.20,1
364.00,131.79,1
61.00,137.75,1
191.00,143.33,1
52.00,146.91,1
363.00,150.21,1
100.00,155.03,1
40.00,158.55,1
122.00,158.47,1
41.00,155.81,1
151.00,151.55,1
53.00,146.59,1
357.00,143.04,1
55.00,142.44,1
250.00,143.21,1
141.00,144.82,1
222.00,147.51,1
46.00,149.89,1
132.00,150.42,1
89.00,149.12,1
127.00,146.82,1
139.00,144.20,1
191.00,142.36,1
52.00,140.99,1
107.00,138.63,1
424.00,137.96,1
41.00,141.12,1
194.00,144.64,1
53.00,146.52,1
347.00,148.45,1
142.00,152.37,1
105.00,156.39,1
72.00,157.76,1
43.00,156.00,1
216.00,152.61,1
71.00,149.51,1
92.00,145.91,1
152.00,141.72,1
54.00,137.56,1
161.00,133.33,1
71.00,129.40,1
117.00,125.60,1
211.00,122.83,1
201.00,122.80,1
162.00,125.14,1
192.00,128.73,1
106.00,132.60,1
127.00,135.54,1
144.00,137.45,1
192.00,139.38,1
130.00,141.68,1
90.00,143.21,1
74.00,142.83,1
206.00,141.49,1
171.00,141.23,1
182.00,142.41,1
159.00,144.35,1
78.00,145.82,1
67.00,145.24,1
93.00,142.51,1
90.00,138.55,1
336.00,136.02,1
44.00,136.27,1
48.00,135.86,1
225.00,134.07,1
39.00,132.71,1
123.00,130.81,1
240.00,129.38,1
264.00,131.17,1
52.00,134.96,1
256.00,138.54,1
413.00,144.75,1
234.00,155.52,1
270.00,168.06,1
183.00,179.94,1
96.00,189.05,1
275.00,195.11,1
40.00,198.94,1
130.00,199.22,1
48.00,195.72,1
192.00,190.03,1
112.00,183.91,1
52.00,177.02,1
183.00,169.22,1
86.00,161.86,1
38.00,154.16,1
66.00,145.09,1
142.00,135.98,1
208.00,129.20,1
112.00,125.30,1
242.00,123.77,1
139.00,124.58,1
135.00,126.49,1
139.00,128.28,1
84.00,129.51,1
95.00,129.47,1
320.00,130.07,1
212.00,134.02,1
102.00,139.62,1
77.00,143.33,1
101.00,144.34,1
31.00,142.88,1
194.00,139.99,1
39.00,136.95,1
300.00,134.84,1
174.00,135.50,1
72.00,137.48,1
140.00,138.23,1
54.00,137.56,1
161.00,135.88,1
49.00,133.63,1
149.00,130.86,1
41.00,127.63,1
216.00,124.65,1
295.00,124.64,1
125.00,128.19,1
186.00,132.68,1
146.00,137.03,1
105.00,140.62,1
57.00,142.10,1
68.00,140.90,1
66.00,137.42,1
85.00,132.60,1
251.00,128.58,1
164.00,127.53,1
116.00,128.25,1
40.00,128.17,1
412.00,128.90,1
93.00,133.10,1
162.00,138.17,1
89.00,141.63,1
96.00,143.17,1
81.00,142.58,1
37.00,139.86,1
52.00,134.82,1
190.00,129.27,1
200.00,126.00,1
149.00,125.48,1
153.00,126.30,1
104.00,127.37,1
61.00,127.47,1
36.00,125.49,1
144.00,122.15,1
246.00,120.28,1
170.00,121.58,1
46.00,123.77,1
72.00,124.11,1
141.00,122.99,1
162.00,122.33,1
155.00,122.91,1
44.00,123.55,1
62.00,122.43,1
236.00,120.88,1
212.00,121.86,1
73.00,124.67,1
37.00,125.95,1
63.00,124.47,1
168.00,121.95,1
376.00,122.42,1
115.00,127.28,1
196.00,133.42,1
240.00,139.84,1
215.00,147.47,1
182.00,155.44,1
150.00,162.38,1
97.00,167.09,1
45.00,168.36,1
45.00,165.66,1
138.00,160.40,1
115.00,154.70,1
100.00,149.13,1
57.00,143.03,1
78.00,136.06,1
76.00,128.66,1
43.00,121.03,1
158.00,113.87,1
130.00,108.70,1
116.00,105.63,1
43.00,103.15,1
141.00,100.69,1
134.00,99.30,1
96.00,99.14,1
71.00,99.02,1
66.00,98.15,1
98.00,96.73,1
46.00,94.99,1
120.00,93.09,1
58.00,91.41,1
99.00,89.88,1
60.00,88.36,1
162.00,87.43,1
177.00,88.46,1
175.00,92.00,1
211.00,97.81,1
182.00,105.42,1
150.00,113.71,1
238.00,122.23,1
48.00,130.24,1
39.00,135.10,1
63.00,135.84,1
96.00,134.08,1
169.00,131.81,1
36.00,129.62,1
193.00,127.25,1
93.00,125.50,1
156.00,124.44,1
54.00,123.31,1
86.00,121.27,1
86.00,118.27,1
76.00,114.84,1
99.00,111.22,1
178.00,108.53,1
97.00,107.47,1
183.00,107.70,1
141.00,109.31,1
270.00,113.03,1
39.00,118.07,1
47.00,121.27,1
37.00,121.08,1
126.00,118.94,1
58.00,116.25,1
163.00,113.70,1
43.00,111.54,1
77.00,108.90,1
36.00,105.22,1
62.00,100.68,1
61.00,95.72,1
41.00,90.65,1
148.00,86.21,1
50.00,83.18,1
165.00,81.55,1
235.00,82.71,1
144.00,87.32,1
140.00,93.42,1
83.00,99.15,1
43.00,103.11,1
40.00,104.42,1
93.00,103.76,1
247.00,103.74,1
95.00,105.93,1
112.00,108.64,1
201.00,111.39,1
175.00,115.51,1
228.00,121.24,1
104.00,127.67,1
62.00,132.43,1
96.00,134.37,1
127.00,134.54,1
167.00,134.49,1
55.00,134.27,1
111.00,132.87,1
68.00,130.28,1
95.00,126.80,1
70.00,122.67,1
142.00,118.59,1
251.00,116.57,1
88.00,117.24,1
220.00,119.22,1
585.00,126.09,1
274.00,140.91,1
304.00,159.42,1
286.00,177.92,1
166.00,194.70,1
280.00,208.44,1
211.00,219.71,1
218.00,228.62,1
122.00,234.18,1
167.00,235.83,1
270.00,235.30,1
180.00,234.45,1
283.00,233.60,1
162.00,232.74,1
143.00,230.59,1
291.00,227.45,1
78.00,224.16,1
404.00,221.29,1
80.00,219.78,1
91.00,216.74,1
76.00,210.04,1
130.00,201.08,1
127.00,191.44,1
114.00,181.90,1
465.00,175.41,1
136.00,174.44,1
282.00,176.41,1
91.00,178.61,1
108.00,179.10,1
142.00,177.24,1
193.00,174.79,1
90.00,172.26,1
229.00,169.62,1
210.00,168.27,1
141.00,168.20,1
87.00,167.37,1
141.00,164.96,1
243.00,162.74,1
262.00,163.04,1
328.00,166.98,1
306.00,174.56,1
364.00,185.39,1
276.00,198.32,1
473.00,213.07,1
155.00,228.61,1
118.00,240.29,1
80.00,245.15,1
130.00,244.07,1
138.00,239.06,1
149.00,231.92,1
135.00,223.52,1
186.00,214.75,1
190.00,206.73,1
211.00,200.23,1
79.00,194.38,1
223.00,188.40,1
270.00,184.20,1
270.00,183.50,1
98.00,184.40,1
305.00,185.37,1
284.00,188.16,1
259.00,193.47,1
216.00,199.52,1
216.00,205.02,1
316.00,210.39,1
115.00,215.47,1
275.00,219.00,1
180.00,221.42,1
106.00,222.06,1
132.00,219.53,1
127.00,214.46,1
144.00,207.90,1
72.00,200.08,1
146.00,191.12,1
141.00,182.17,1
248.00,174.94,1
254.00,171.04,1
252.00,170.74,1
230.00,173.09,1
130.00,176.11,1
109.00,177.52,1
124.00,176.60,1
165.00,174.38,1
196.00,172.31,1
235.00,171.59,1
130.00,171.94,1
133.00,171.72,1
169.00,170.55,1
318.00,170.56,1
259.00,173.74,1
239.00,179.32,1
204.00,185.43,1
128.00,190.34,1
348.00,194.47,1
234.00,199.93,1
229.00,206.11,1
291.00,212.12,1
248.00,218.43,1
93.00,223.28,1
252.00,225.24,1
88.00,224.92,1
166.00,222.16,1
129.00,217.25,1
127.00,210.90,1
354.00,205.19,1
130.00,202.05,1
338.00,200.86,1
284.00,202.31,1
108.00,205.11,1
183.00,206.10,1
146.00,205.17,1
222.00,203.44,1
328.00,202.97,1
242.00,205.19,1
250.00,208.88,1
196.00,212.53,1
272.00,215.84,1
284.00,219.68,1
319.00,224.91,1
238.00,231.03,1
383.00,237.78,1
115.00,244.29,1
309.00,248.78,1
386.00,253.21,1
196.00,258.80,1
208.00,262.64,1
623.00,267.09,1
142.00,274.83,1
163.00,280.45,1
105.00,280.19,1
84.00,274.49,1
276.00,265.62,1
211.00,257.10,1
198.00,249.53,1
662.00,245.99,1
210.00,249.58,1
576.00,257.75,1
280.00,269.01,1
527.00,282.47,1
661.00,299.91,1
504.00,322.69,1
250.00,345.24,1
572.00,363.99,1
448.00,381.42,1
832.00,401.16,1
378.00,423.48,1
241.00,441.55,1
89.00,448.50,1
582.00,447.18,1
611.00,446.81,1
355.00,449.66,1
345.00,450.74,1
143.00,446.46,1
297.00,436.14,1
110.00,420.79,1
468.00,403.35,1
704.00,391.25,1
97.00,385.53,1
340.00,378.66,1
411.00,370.74,1
157.00,363.36,1
707.00,357.58,1
503.00,358.51,1
706.00,367.50,1
307.00,380.52,1
139.00,389.88,1
81.00,389.50,1
824.00,385.62,1
241.00,386.21,1
168.00,386.08,1
202.00,379.66,1
384.00,370.16,1
332.00,361.46,1
864.00,358.74,1
363.00,364.87,1
333.00,373.37,1
149.00,377.25,1
380.00,376.09,1
204.00,371.95,1
370.00,366.09,1
191.00,358.90,1
102.00,348.65,1
161.00,333.91,1
284.00,317.52,1
127.00,301.64,1
126.00,285.08,1
304.00,268.71,1
854.00,260.67,1
159.00,263.89,1
162.00,268.64,1
1023.00,275.84,1
250.00,292.42,1
244.00,309.96,1
192.00,320.69,1
283.00,325.75,1
253.00,327.17,1
128.00,324.97,1
710.00,322.63,1
438.00,326.66,1
294.00,334.46,1
242.00,339.79,1
192.00,340.63,1
125.00,336.21,1
180.00,326.80,1
408.00,316.22,1
376.00,309.05,1
161.00,304.33,1
164.00,297.79,1
84.00,287.69,1
160.00,274.48,1
249.00,260.76,1
181.00,248.65,1
63.00,236.77,1
154.00,223.71,1
407.00,212.82,1
637.00,210.83,1
228.00,218.16,1
405.00,228.92,1
311.00,240.68,1
394.00,253.43,1
195.00,265.44,1
177.00,273.72,1
248.00,277.53,1
255.00,278.92,1
420.00,280.50,1
370.00,284.58,1
254.00,289.97,1
214.00,293.50,1
89.00,292.79,1
211.00,287.58,1
195.00,279.94,1
473.00,273.75,1
433.00,273.00,1
276.00,276.80,1
140.00,279.83,1
624.00,282.64,1
123.00,287.90,1
75.00,290.21,1
72.00,285.27,1
119.00,274.75,1
121.00,261.22,1
438.00,248.91,1
101.00,240.43,1
141.00,232.50,1
115.00,222.91,1
146.00,212.48,1
254.00,202.99,1
72.00,195.07,1
148.00,187.10,1
136.00,179.02,1
287.00,172.81,1
326.00,170.97,1
146.00,172.93,1
158.00,175.11,1
373.00,177.88,1
108.00,182.48,1
304.00,187.32,1
236.00,192.66,1
228.00,198.67,1
216.00,204.17,1
588.00,211.90,1
354.00,225.19,1
182.00,240.09,1
96.00,250.21,1
352.00,255.64,1
72.00,258.50,1
127.00,257.25,1
106.00,251.37,1
108.00,242.22,1
122.00,230.96,1
91.00,218.41,1
639.00,209.46,1
177.00,208.57,1
130.00,210.29,1
246.00,210.29,1
532.00,212.90,1
114.00,219.64,1
174.00,225.23,1
327.00,228.55,1
203.00,232.04,1
231.00,234.99,1
266.00,237.15,1
383.00,240.45,1
274.00,245.78,1
127.00,250.45,1
94.00,250.78,1
259.00,247.50,1
240.00,243.87,1
127.00,240.19,1
161.00,234.87,1
212.00,228.52,1
96.00,221.77,1
192.00,214.22,1
508.00,209.57,1
583.00,213.87,1
154.00,225.17,1
88.00,234.41,1
198.00,238.07,1
818.00,243.72,1
109.00,256.02,1
128.00,266.52,1
118.00,269.69,1
157.00,267.44,1
224.00,262.30,1
454.00,258.47,1
264.00,258.56,1
349.00,261.11,1
127.00,263.42,1
134.00,262.51,1
128.00,257.40,1
240.00,250.21,1
174.00,242.92,1
269.00,236.44,1
207.00,231.29,1
260.00,227.53,1
322.00,225.85,1
172.00,226.00,1
398.00,227.45,1
339.00,231.86,1
322.00,239.12,1
287.00,247.22,1
180.00,254.09,1
70.00,256.84,1
915.00,260.65,1
156.00,272.04,1
136.00,282.97,1
340.00,288.28,1
169.00,290.94,1
297.00,291.39,1
314.00,291.00,1
196.00,290.34,1
270.00,288.30,1
157.00,284.60,1
278.00,279.49,1
200.00,273.91,1
226.00,268.08,1
329.00,262.89,1
277.00,259.88,1
281.00,258.61,1
328.00,258.76,1
149.00,259.29,1
179.00,257.76,1
468.00,256.14,1
206.00,257.36,1
279.00,259.37,1
260.00,260.79,1
127.00,260.90,1
340.00,259.39,1
322.00,259.01,1
222.00,260.12,1
134.00,259.78,1
109.00,255.90,1
563.00,252.04,1
242.00,252.96,1
372.00,257.05,1
111.00,260.72,1
192.00,261.38,1
271.00,259.56,1
127.00,256.71,1
249.00,252.44,1
218.00,247.83,1
301.00,244.29,1
232.00,242.21,1
252.00,241.04,1
318.00,240.89,1
314.00,242.75,1
362.00,246.94,1
190.00,252.12,1
234.00,255.79,1
291.00,257.97,1
178.00,259.31,1
280.00,259.40,1
207.00,258.70,1
222.00,257.19,1
336.00,255.70,1
363.00,256.50,1
70.00,257.99,1
106.00,255.60,1
94.00,248.38,1
373.00,240.20,1
170.00,234.39,1
199.00,229.77,1
145.00,224.55,1
203.00,218.87,1
242.00,213.88,1
262.00,210.86,1
105.00,208.80,1
101.00,205.03,1
205.00,199.62,1
186.00,194.67,1
183.00,190.76,1
245.00,188.07,1
147.00,186.57,1
274.00,185.98,1
375.00,188.23,1
459.00,196.00,1
224.00,207.92,1
163.00,218.95,1
167.00,226.00,1
250.00,230.06,1
726.00,237.03,1
112.00,249.46,1
138.00,259.65,1
213.00,263.80,1
152.00,264.14,1
92.00,260.68,1
64.00,252.78,1
294.00,242.65,1
118.00,233.28,1
91.00,223.60,1
178.00,212.81,1
134.00,202.36,1
149.00,192.65,1
166.00,183.84,1
168.00,176.43,1
234.00,171.06,1
221.00,168.41,1
209.00,168.15,1
80.00,168.34,1
299.00,168.44,1
220.00,170.38,1
187.00,173.90,1
300.00,178.22,1
143.00,183.30,1
282.00,188.29,1
95.00,192.48,1
652.00,198.58,1
191.00,209.91,1
307.00,222.67,1
116.00,232.62,1
123.00,237.90,1
359.00,240.01,1
325.00,243.33,1
78.00,246.80,1
114.00,246.22,1
75.00,240.82,1
206.00,232.60,1
220.00,224.50,1
106.00,217.14,1
261.00,210.08,1
206.00,204.68,1
352.00,202.29,1
196.00,202.92,1
262.00,205.03,1
471.00,209.69,1
182.00,217.75,1
259.00,225.73,1
143.00,231.31,1
136.00,233.52,1
383.00,234.07,1
443.00,237.91,1
131.00,244.55,1
175.00,248.79,1
278.00,250.03,1
273.00,251.00,1
179.00,251.73,1
219.00,250.98,1
238.00,249.16,1
108.00,246.17,1
135.00,240.58,1
140.00,232.67,1
66.00,222.90,1
84.00,211.02,1
190.00,198.49,1
173.00,187.68,1
98.00,178.50,1
209.00,170.40,1
343.00,165.73,1
219.00,165.88,1
280.00,169.32,1
136.00,173.89,1
206.00,177.88,1
326.00,182.27,1
175.00,188.11,1
215.00,193.70,1
167.00,197.91,1
210.00,200.84,1
353.00,204.19,1
200.00,209.24,1
199.00,214.03,1
131.00,216.63,1
206.00,216.96,1
235.00,216.45,1
187.00,216.04,1
176.00,215.08,1
76.00,212.28,1
84.00,206.55,1
250.00,199.44,1
100.00,193.09,1
107.00,186.48,1
110.00,178.79,1
139.00,170.86,1
382.00,165.56,1
232.00,165.43,1
149.00,168.08,1
196.00,170.53,1
118.00,172.20,1
440.00,174.98,1
263.00,181.81,1
280.00,191.32,1
215.00,200.81,1
668.00,212.80,1
339.00,230.52,1
237.00,249.47,1
144.00,263.47,1
130.00,270.76,1
248.00,272.72,1
281.00,272.67,1
106.00,271.18,1
180.00,266.60,1
75.00,258.70,1
178.00,248.31,1
116.00,236.71,1
251.00,225.52,1
105.00,215.53,1
252.00,206.70,1
293.00,200.64,1
233.00,198.29,1
102.00,197.07,1
189.00,194.78,1
204.00,192.25,1
110.00,189.81,1
252.00,187.27,1
462.00,188.05,1
368.00,195.32,1
75.00,204.92,1
146.00,210.91,1
152.00,212.71,1
236.00,212.70,1
237.00,212.77,1
305.00,214.21,1
373.00,218.30,1
224.00,224.75,1
123.00,230.02,1
254.00,232.41,1
92.00,232.52,1
210.00,230.28,1
54.00,225.63,1
79.00,217.94,1
59.00,207.14,1
156.00,195.00,1
83.00,183.08,1
69.00,171.20,1
69.00,158.90,1
83.00,146.69,1
76.00,135.13,1
151.00,125.07,1
188.00,117.99,1
206.00,114.75,1
165.00,114.80,1
47.00,115.86,1
147.00,116.20,1
78.00,116.08,1
226.00,116.53,1
73.00,117.99,1
291.00,120.68,1
215.00,125.95,1
101.00,132.57,1
102.00,137.50,1
58.00,139.70,1
57.00,139.03,1
156.00,136.62,1
171.00,134.73,1
278.00,135.28,1
127.00,138.32,1
163.00,141.82,1
68.00,144.10,1
111.00,144.42,1
126.00,143.34,1
143.00,141.96,1
85.00,140.32,1
60.00,137.49,1
204.00,134.18,1
86.00,131.81,1
225.00,130.63,1
191.00,131.41,1
65.00,133.21,1
79.00,133.45,1
55.00,131.51,1
86.00,127.96,1
230.00,124.81,1
124.00,123.82,1
196.00,124.54,1
113.00,126.17,1
270.00,128.98,1
220.00,134.05,1
45.00,139.71,1
127.00,143.02,1
119.00,144.27,1
94.00,144.24,1
128.00,143.04,1
196.00,141.91,1
192.00,142.24,1
179.00,144.06,1
126.00,146.28,1
161.00,148.02,1
512.00,152.36,1
170.00,161.84,1
59.00,171.24,1
117.00,176.06,1
360.00,179.30,1
247.00,184.85,1
44.00,190.39,1
164.00,192.41,1
395.00,193.92,1
275.00,198.79,1
43.00,204.08,1
242.00,206.31,1
115.00,206.47,1
190.00,205.24,1
90.00,202.32,1
216.00,198.25,1
110.00,193.82,1
152.00,188.89,1
130.00,183.40,1
288.00,178.96,1
108.00,176.39,1
54.00,173.20,1
228.00,168.73,1
169.00,165.38,1
42.00,162.38,1
183.00,158.35,1
61.00,153.92,1
76.00,148.61,1
76.00,142.04,1
190.00,135.81,1
109.00,131.25,1
251.00,128.90,1
215.00,129.69,1
222.00,133.45,1
587.00,142.26,1
194.00,157.42,1
103.00,172.64,1
256.00,183.89,1
300.00,193.93,1
50.00,202.63,1
262.00,207.98,1
80.00,210.56,1
157.00,210.33,1
368.00,209.49,1
224.00,211.15,1
101.00,213.02,1
124.00,211.91,1
158.00,208.27,1
127.00,203.30,1
226.00,198.06,1
130.00,193.40,1
212.00,189.22,1
124.00,185.40,1
162.00,181.50,1
96.00,177.03,1
86.00,171.43,1
124.00,164.72,1
132.00,158.03,1
182.00,152.44,1
154.00,148.52,1
62.00,145.19,1
84.00,140.85,1
48.00,135.21,1
84.00,128.63,1
65.00,121.70,1
158.00,115.48,1
65.00,110.63,1
124.00,106.69,1
157.00,104.06,1
76.00,102.86,1
281.00,103.45,1
417.00,109.25,1
81.00,119.92,1
356.00,131.81,1
199.00,144.69,1
216.00,157.71,1
104.00,168.45,1
52.00,174.99,1
94.00,176.67,1
141.00,175.28,1
52.00,171.94,1
75.00,166.38,1
124.00,159.33,1
166.00,152.74,1
71.00,147.04,1
152.00,141.64,1
145.00,137.16,1
70.00,133.46,1
208.00,130.30,1
101.00,128.45,1
249.00,128.23,1
117.00,129.74,1
49.00,130.99,1
56.00,129.85,1
188.00,127.59,1
165.00,126.59,1
147.00,127.13,1
158.00,128.44,1
196.00,130.65,1
105.00,133.42,1
134.00,135.57,1
424.00,139.32,1
186.00,147.18,1
194.00,156.45,1
55.00,163.51,1
120.00,166.97,1
110.00,167.42,1
77.00,165.65,1
88.00,161.72,1
137.00,156.63,1
80.00,151.22,1
220.00,146.38,1
298.00,144.62,1
70.00,145.87,1
182.00,147.11,1
82.00,147.46,1
304.00,148.22,1
209.00,151.35,1
56.00,155.16,1
346.00,158.43,1
171.00,163.28,1
259.00,169.40,1
162.00,175.49,1
373.00,182.20,1
193.00,190.41,1
371.00,199.69,1
81.00,208.53,1
251.00,214.82,1
214.00,219.09,1
138.00,221.84,1
113.00,221.53,1
138.00,218.13,1
187.00,213.09,1
174.00,207.89,1
126.00,202.53,1
63.00,195.80,1
146.00,187.50,1
66.00,178.44,1
346.00,170.82,1
405.00,169.01,1
92.00,172.36,1
155.00,175.36,1
122.00,176.16,1
137.00,175.35,1
208.00,173.94,1
242.00,173.68,1
371.00,176.54,1
371.00,184.11,1
194.00,194.60,1
96.00,203.20,1
153.00,207.42,1
140.00,208.23,1
183.00,207.05,1
157.00,204.78,1
127.00,201.43,1
289.00,198.02,1
327.00,197.41,1
367.00,201.30,1
256.00,208.49,1
177.00,215.79,1
161.00,220.55,1
107.00,221.89,1
150.00,219.93,1
195.00,216.12,1
167.00,211.92,1
157.00,207.38,1
204.00,202.74,1
241.00,199.17,1
104.00,196.40,1
78.00,192.13,1
62.00,185.17,1
311.00,178.01,1
340.00,175.13,1
48.00,175.78,1
110.00,174.99,1
190.00,172.37,1
234.00,170.68,1
124.00,170.21,1
366.00,171.25,1
92.00,174.24,1
292.00,177.71,1
112.00,180.99,1
67.00,182.28,1
237.00,181.24,1
620.00,184.07,1
214.00,194.11,1
54.00,204.43,1
59.00,208.66,1
127.00,207.42,1
223.00,204.01,1
506.00,203.60,1
406.00,210.10,1
168.00,220.40,1
270.00,229.31,1
76.00,234.99,1
306.00,237.57,1
94.00,238.12,1
186.00,236.29,1
277.00,233.22,1
227.00,231.17,1
75.00,228.64,1
54.00,222.71,1
130.00,213.35,1
202.00,203.45,1
159.00,194.94,1
532.00,190.73,1
259.00,193.60,1
122.00,199.08,1
171.00,202.22,1
74.00,202.35,1
366.00,201.41,1
204.00,202.39,1
223.00,204.70,1
102.00,205.90,1
261.00,205.69,1
139.00,205.02,1
702.00,207.97,1
207.00,217.79,1
199.00,228.94,1
52.00,235.28,1
76.00,235.48,1
477.00,233.46,1
226.00,234.58,1
77.00,236.00,1
578.00,237.19,1
105.00,241.34,1
182.00,244.54,1
528.00,247.12,1
217.00,252.91,1
56.00,257.35,1
155.00,256.18,1
619.00,254.96,1
244.00,259.22,1
139.00,264.18,1
174.00,264.98,1
412.00,264.26,1
579.00,268.04,1
513.00,279.30,1
389.00,295.10,1
131.00,309.11,1
131.00,316.04,1
157.00,315.39,1
204.00,309.79,1
249.00,302.00,1
215.00,293.67,1
62.00,283.73,1
91.00,270.35,1
690.00,258.95,1
82.00,254.54,1
285.00,252.21,1
209.00,249.22,1
55.00,244.97,1
208.00,237.94,1
723.00,234.59,1
112.00,238.93,1
254.00,244.28,1
629.00,250.60,1
135.00,260.74,1
179.00,268.72,1
109.00,270.90,1
130.00,267.95,1
606.00,264.90,1
223.00,266.73,1
54.00,268.44,1
275.00,265.88,1
80.00,260.76,1
230.00,253.76,1
163.00,245.86,1
333.00,239.07,1
397.00,236.15,1
442.00,239.05,1
276.00,246.33,1
55.00,252.39,1
179.00,253.34,1
90.00,249.83,1
513.00,246.11,1
354.00,247.28,1
198.00,251.76,1
55.00,253.47,1
275.00,251.21,1
229.00,248.07,1
176.00,244.99,1
229.00,241.24,1
299.00,238.12,1
127.00,235.77,1
240.00,232.74,1
179.00,229.23,1
169.00,225.33,1
377.00,222.31,1
405.00,223.64,1
86.00,227.76,1
248.00,230.16,1
51.00,229.59,1
282.00,226.79,1
170.00,223.65,1
48.00,219.40,1
45.00,211.46,1
236.00,201.49,1
312.00,194.12,1
197.00,190.84,1
212.00,189.61,1
178.00,189.02,1
625.00,192.18,1
111.00,200.91,1
615.00,213.06,1
140.00,227.49,1
115.00,239.28,1
463.00,247.19,1
228.00,255.54,1
78.00,261.67,1
196.00,262.40,1
155.00,259.42,1
109.00,253.68,1
218.00,245.75,1
228.00,237.99,1
347.00,232.65,1
150.00,229.77,1
77.00,225.95,1
45.00,218.50,1
127.00,208.03,1
258.00,197.78,1
553.00,193.37,1
208.00,196.64,1
204.00,202.35,1
236.00,207.05,1
140.00,210.51,1
307.00,212.98,1
88.00,214.77,1
126.00,214.05,1
201.00,210.89,1
45.00,206.23,1
197.00,199.90,1
304.00,194.62,1
315.00,193.45,1
90.00,194.63,1
108.00,194.08,1
43.00,190.13,1
292.00,184.82,1
120.00,180.86,1
664.00,181.74,1
55.00,188.93,1
211.00,196.29,1
492.00,203.40,1
148.00,213.26,1
69.00,220.79,1
327.00,224.26,1
318.00,228.09,1
314.00,234.01,1
59.00,239.08,1
237.00,240.56,1
874.00,245.36,1
250.00,259.35,1
136.00,273.89,1
200.00,281.88,1
220.00,284.91,1
536.00,287.50,1
271.00,292.89,1
286.00,298.58,1
700.00,305.81,1
91.00,315.88,1
67.00,320.90,1
222.00,317.85,1
321.00,311.93,1
87.00,304.97,1
45.00,294.00,1
107.00,278.26,1
119.00,260.24,1
94.00,241.53,1
245.00,223.89,1
214.00,209.68,1
137.00,198.67,1
43.00,188.12,1
136.00,176.85,1
165.00,166.42,1
349.00,159.75,1
174.00,157.95,1
66.00,157.67,1
127.00,155.81,1
241.00,153.89,1
83.00,153.05,1
184.00,152.24,1
222.00,152.15,1
190.00,153.82,1
452.00,158.71,1
66.00,166.85,1
55.00,172.79,1
193.00,174.65,1
120.00,174.91,1
172.00,174.33,1
224.00,173.81,1
438.00,176.43,1
138.00,182.89,1
67.00,188.20,1
180.00,189.77,1
235.00,190.17,1
202.00,191.23,1
143.00,192.18,1
213.00,192.34,1
61.00,191.32,1
111.00,187.90,1
315.00,184.05,1
77.00,181.78,1
142.00,179.09,1
222.00,175.95,1
393.00,175.85,1
332.00,181.09,1
337.00,190.64,1
230.00,201.79,1
213.00,211.95,1
253.00,220.17,1
205.00,226.78,1
88.00,230.52,1
161.00,230.17,1
45.00,226.01,1
472.00,221.36,1
433.00,222.38,1
311.00,229.45,1
66.00,236.51,1
43.00,238.04,1
136.00,233.76,1
149.00,226.60,1
64.00,217.75,1
49.00,206.52,1
222.00,194.34,1
99.00,183.55,1
590.00,177.63,1
41.00,178.21,1
106.00,179.19,1
73.00,176.68,1
57.00,171.48,1
157.00,164.71,1
55.00,157.63,1
489.00,153.29,1
404.00,156.77,1
43.00,165.38,1
204.00,172.19,1
247.00,177.45,1
105.00,182.21,1
117.00,184.55,1
497.00,187.14,1
297.00,194.55,1
110.00,203.73,1
57.00,208.72,1
52.00,207.88,1
110.00,202.66,1
122.00,195.22,1
159.00,187.34,1
67.00,179.35,1
138.00,170.89,1
130.00,162.72,1
89.00,155.16,1
401.00,150.15,1
383.00,151.86,1
100.00,158.61,1
68.00,163.87,1
154.00,165.65,1
127.00,165.69,1
57.00,164.08,1
206.00,161.12,1
95.00,158.20,1
401.00,157.34,1
361.00,161.90,1
200.00,170.98,1
271.00,180.76,1
359.00,191.32,1
186.00,202.77,1
104.00,211.66,1
233.00,216.57,1
70.00,218.43,1
350.00,218.59,1
178.00,219.33,1
184.00,219.99,1
91.00,218.46,1
91.00,213.83,1
276.00,207.75,1
61.00,202.08,1
444.00,198.06,1
389.00,199.49,1
264.00,206.36,1
88.00,213.07,1
90.00,215.50,1
101.00,213.22,1
145.00,208.05,1
52.00,200.90,1
239.00,192.84,1
39.00,185.04,1
318.00,178.25,1
48.00,173.16,1
147.00,168.21,1
79.00,162.38,1
67.00,155.65,1
159.00,148.46,1
342.00,144.11,1
61.00,143.53,1
86.00,142.89,1
65.00,140.13,1
60.00,135.69,1
264.00,131.53,1
163.00,130.24,1
232.00,131.74,1
495.00,137.80,1
133.00,149.02,1
296.00,161.38,1
56.00,171.88,1
457.00,181.34,1
115.00,191.50,1
99.00,199.39,1
338.00,204.15,1
220.00,209.24,1
632.00,217.85,1
325.00,232.10,1
100.00,246.72,1
109.00,254.94,1
711.00,261.27,1
147.00,271.33,1
224.00,280.17,1
58.00,283.05,1
118.00,279.56,1
205.00,271.75,1
85.00,261.92,1
284.00,251.24,1
169.00,241.60,1
93.00,232.21,1
210.00,222.05,1
210.00,212.97,1
108.00,205.12,1
138.00,197.05,1
280.00,189.88,1
297.00,186.43,1
391.00,188.11,1
101.00,192.94,1
108.00,196.01,1
72.00,195.06,1
44.00,190.32,1
101.00,182.53,1
66.00,173.16,1
174.00,163.67,1
117.00,155.44,1
104.00,148.27,1
126.00,141.65,1
178.00,136.35,1
246.00,133.85,1
270.00,135.30,1
352.00,141.38,1
354.00,152.27,1
44.00,164.65,1
59.00,172.74,1
138.00,175.66,1
213.00,176.59,1
276.00,178.40,1
43.00,180.56,1
171.00,180.63,1
432.00,181.46,1
88.00,185.41,1
68.00,187.87,1
81.00,186.05,1
231.00,182.34,1
233.00,179.92,1
253.00,180.00,1
93.00,180.98,1
161.00,180.68,1
176.00,179.37,1
155.00,177.97,1
127.00,176.07,1
235.00,174.13,1
111.00,172.75,1
74.00,170.37,1
73.00,165.67,1
127.00,159.49,1
109.00,153.12,1
76.00,146.70,1
169.00,140.53,1
334.00,137.39,1
381.00,140.50,1
140.00,148.48,1
188.00,156.64,1
229.00,163.82,1
426.00,172.71,1
210.00,184.45,1
47.00,194.66,1
66.00,199.01,1
139.00,198.31,1
56.00,194.51,1
279.00,189.59,1
77.00,185.30,1
309.00,182.04,1
428.00,182.82,1
121.00,188.09,1
48.00,191.81,1
132.00,191.15,1
43.00,187.22,1
81.00,180.50,1
127.00,172.16,1
148.00,164.14,1
176.00,157.57,1
392.00,154.73,1
232.00,157.29,1
48.00,161.52,1
66.00,162.66,1
158.00,160.97,1
219.00,159.33,1
65.00,158.28,1
65.00,155.68,1
91.00,150.92,1
99.00,145.14,1
295.00,140.78,1
205.00,140.17,1
306.00,143.41,1
50.00,148.31,1
131.00,151.57,1
89.00,152.36,1
256.00,152.58,1
211.00,154.43,1
259.00,158.46,1
119.00,163.30,1
192.00,167.28,1
320.00,171.58,1
169.00,177.42,1
149.00,182.67,1
114.00,185.41,1
97.00,185.29,1
162.00,182.97,1
188.00,180.19,1
170.00,177.96,1
149.00,175.98,1
107.00,173.40,1
378.00,171.83,1
292.00,174.51,1
67.00,179.29,1
58.00,181.01,1
94.00,178.61,1
281.00,175.23,1
196.00,173.92,1
155.00,174.00,1
148.00,173.72,1
49.00,171.91,1
59.00,167.37,1
90.00,160.54,1
63.00,152.55,1
179.00,144.70,1
107.00,138.33,1
389.00,135.36,1
108.00,136.84,1
161.00,139.78,1
56.00,141.42,1
50.00,140.65,1
110.00,137.58,1
50.00,133.35,1
276.00,129.73,1
142.00,128.87,1
92.00,129.34,1
218.00,129.91,1
224.00,132.28,1
267.00,137.41,1
270.00,145.26,1
111.00,154.01,1
154.00,160.91,1
349.00,167.18,1
54.00,173.91,1
125.00,178.07,1
364.00,180.86,1
49.00,184.46,1
221.00,186.74,1
46.00,186.73,1
195.00,184.75,1
56.00,181.18,1
42.00,175.39,1
152.00,167.61,1
358.00,161.99,1
76.00,160.14,1
309.00,160.24,1
81.00,161.42,1
81.00,161.54,1
58.00,158.74,1
84.00,153.67,1
40.00,146.92,1
208.00,139.99,1
92.00,134.64,1
316.00,131.98,1
144.00,132.83,1
106.00,134.96,1
54.00,135.50,1
333.00,135.96,1
99.00,138.57,1
464.00,144.21,1
55.00,152.73,1
255.00,161.02,1
244.00,168.68,1
93.00,175.85,1
338.00,181.82,1
608.00,191.74,1
464.00,209.62,1
276.00,231.21,1
384.00,251.54,1
54.00,267.73,1
84.00,275.84,1
80.00,275.37,1
136.00,269.06,1
100.00,259.08,1
61.00,246.19,1
51.00,230.51,1
296.00,214.76,1
286.00,203.39,1
89.00,195.93,1
99.00,188.44,1
56.00,179.35,1
500.00,172.41,1
49.00,170.60,1
339.00,171.33,1
172.00,173.66,1
80.00,176.01,1
135.00,175.79,1
304.00,175.22,1
55.00,175.60,1
282.00,175.83,1
101.00,176.14,1
282.00,176.89,1
488.00,181.15,1
133.00,189.99,1
331.00,199.40,1
85.00,207.23,1
43.00,210.83,1
72.00,208.63,1
401.00,204.93,1
136.00,203.72,1
642.00,206.91,1
136.00,215.38,1
316.00,224.89,1
57.00,231.51,1
118.00,233.45,1
86.00,230.31,1
89.00,223.44,1
89.00,213.75,1
274.00,203.77,1
215.00,196.49,1
90.00,191.04,1
127.00,184.88,1
163.00,178.25,1
42.00,171.42,1
405.00,165.94,1
580.00,168.26,1
98.00,178.21,1
126.00,187.33,1
75.00,191.57,1
52.00,191.13,1
173.00,187.37,1
399.00,184.91,1
261.00,187.15,1
241.00,192.30,1
82.00,196.67,1
70.00,197.39,1
279.00,195.54,1
150.00,194.11,1
140.00,192.54,1
168.00,189.92,1
78.00,186.23,1
40.00,180.28,1
156.00,172.36,1
239.00,165.53,1
76.00,160.75,1
314.00,157.62,1
156.00,157.12,1
136.00,157.84,1
77.00,157.33,1
239.00,156.10,1
271.00,156.85,1
235.00,160.68,1
468.00,168.24,1
84.00,178.77,1
657.00,191.57,1
51.00,206.94,1
132.00,219.15,1
127.00,224.79,1
206.00,226.55,1
268.00,227.06,1
169.00,227.48,1
213.00,227.04,1
131.00,225.19,1
227.00,222.14,1
222.00,219.15,1
83.00,215.86,1
70.00,209.99,1
47.00,200.80,1
63.00,189.00,1
608.00,180.24,1
118.00,179.12,1
139.00,180.48,1
151.00,180.06,1
126.00,178.48,1
42.00,175.05,1
113.00,169.29,1
187.00,163.08,1
79.00,157.65,1
206.00,152.86,1
369.00,151.27,1
252.00,154.95,1
271.00,162.14,1
261.00,170.95,1
96.00,179.33,1
336.00,186.30,1
142.00,192.96,1
140.00,197.92,1
689.00,204.32,1
269.00,217.18,1
146.00,231.11,1
192.00,240.28,1
348.00,246.55,1
577.00,255.31,1
157.00,267.21,1
68.00,275.32,1
116.00,275.78,1
206.00,271.21,1
319.00,265.77,1
132.00,260.92,1
353.00,256.34,1
152.00,252.57,1
356.00,249.73,1
58.00,246.94,1
203.00,242.20,1
174.00,235.86,1
201.00,229.47,1
291.00,224.19,1
179.00,220.71,1
178.00,217.62,1
243.00,214.49,1
70.00,211.09,1
329.00,207.42,1
69.00,204.36,1
88.00,199.86,1
126.00,192.90,1
49.00,184.47,1
275.00,176.07,1
151.00,170.08,1
56.00,165.13,1
85.00,158.80,1
199.00,152.25,1
163.00,147.58,1
118.00,144.45,1
292.00,143.02,1
81.00,143.69,1
94.00,143.97,1
137.00,142.79,1
143.00,141.40,1
168.00,140.54,1
146.00,140.41,1
166.00,140.83,1
251.00,142.55,1
135.00,145.78,1
122.00,148.74,1
66.00,149.72,1
404.00,150.96,1
247.00,156.18,1
199.00,164.08,1
310.00,172.57,1
53.00,180.53,1
273.00,186.29,1
225.00,191.31,1
339.00,197.58,1
172.00,204.72,1
96.00,209.80,1
50.00,210.13,1
484.00,209.04,1
62.00,210.21,1
307.00,211.72,1
55.00,211.91,1
118.00,209.42,1
311.00,205.60,1
111.00,202.92,1
111.00,199.49,1
297.00,195.50,1
50.00,192.25,1
268.00,188.92,1
156.00,186.28,1
62.00,183.41,1
98.00,178.28,1
182.00,172.10,1
375.00,168.64,1
1023.00,176.69,1
346.00,200.16,1
168.00,226.99,1
240.00,247.49,1
263.00,262.35,1
210.00,273.01,1
148.00,278.92,1
105.00,279.17,1
93.00,273.81,1
229.00,264.91,1
146.00,255.12,1
43.00,243.88,1
40.00,229.43,1
125.00,212.90,1
91.00,196.42,1
169.00,181.33,1
379.00,170.57,1
257.00,166.61,1
154.00,166.81,1
131.00,167.19,1
62.00,165.91,1
417.00,165.00,1
62.00,166.80,1
144.00,168.31,1
252.00,168.86,1
139.00,170.20,1
441.00,173.61,1
496.00,183.09,1
343.00,198.87,1
195.00,215.69,1
249.00,229.45,1
143.00,239.23,1
331.00,245.91,1
238.00,251.48,1
167.00,255.45,1
93.00,255.54,1
250.00,252.12,1
82.00,246.73,1
88.00,238.63,1
326.00,229.41,1
83.00,221.62,1
246.00,214.47,1
439.00,210.31,1
113.00,210.42,1
145.00,210.24,1
85.00,207.16,1
280.00,202.88,1
81.00,198.93,1
152.00,194.27,1
636.00,192.72,1
188.00,198.46,1
758.00,210.95,1
208.00,229.23,1
230.00,247.13,1
120.00,259.07,1
97.00,264.27,1
188.00,263.63,1
244.00,260.35,1
508.00,259.04,1
438.00,263.56,1
158.00,271.05,1
371.00,277.07,1
169.00,281.32,1
508.00,285.31,1
68.00,289.26,1
201.00,289.68,1
74.00,284.96,1
52.00,275.28,1
210.00,261.98,1
242.00,249.10,1
317.00,239.42,1
86.00,232.11,1
396.00,226.20,1
273.00,223.74,1
63.00,222.78,1
53.00,218.41,1
48.00,209.67,1
86.00,198.02,1
53.00,184.89,1
441.00,174.04,1
619.00,172.92,1
81.00,180.84,1
140.00,188.51,1
48.00,191.51,1
43.00,189.79,1
72.00,183.94,1
84.00,175.63,1
35.00,165.78,1
199.00,155.74,1
90.00,147.29,1
72.00,139.73,1
116.00,132.25,1
94.00,125.49,1
49.00,119.12,1
280.00,114.24,1
127.00,112.87,1
58.00,112.98,1
90.00,112.09,1
189.00,111.23,1
350.00,113.67,1
314.00,121.74,1
163.00,133.27,1
379.00,146.07,1
111.00,159.48,1
112.00,170.29,1
119.00,176.62,1
162.00,179.78,1
88.00,180.62,1
332.00,180.82,1
383.00,184.40,1
147.00,191.28,1
159.00,197.09,1
71.00,199.38,1
533.00,201.42,1
221.00,207.51,1
234.00,215.26,1
114.00,220.66,1
117.00,222.23,1
135.00,220.07,1
67.00,214.89,1
143.00,207.26,1
206.00,199.23,1
247.00,193.18,1
112.00,188.90,1
43.00,183.66,1
262.00,177.39,1
162.00,172.80,1
41.00,168.77,1
324.00,164.83,1
185.00,163.64,1
628.00,168.31,1
478.00,182.11,1
293.00,202.25,1
924.00,227.24,1
224.00,258.38,1
87.00,285.56,1
370.00,303.11,1
140.00,314.39,1
276.00,320.17,1
330.00,322.43,1
586.00,326.07,1
90.00,331.22,1
57.00,331.00,1
409.00,324.90,1
264.00,318.94,1
64.00,312.13,1
200.00,301.51,1
246.00,289.32,1
89.00,276.97,1
78.00,262.57,1
275.00,247.27,1
245.00,234.69,1
382.00,226.88,1
1023.00,230.26,1
713.00,251.27,1
490.00,283.27,1
289.00,314.63,1
58.00,337.39,1
43.00,347.26,1
249.00,346.42,1
1023.00,347.27,1
589.00,360.23,1
484.00,380.41,1
504.00,400.19,1
141.00,415.52,1
493.00,423.97,1
174.00,427.10,1
252.00,424.35,1
872.00,421.03,1
460.00,425.01,1
120.00,429.78,1
224.00,426.88,1
478.00,419.18,1
399.00,412.51,1
267.00,406.56,1
792.00,402.88,1
383.00,405.24,1
83.00,407.19,1
246.00,401.77,1
115.00,390.07,1
111.00,373.08,1
39.00,350.99,1
204.00,325.79,1
503.00,303.72,1
283.00,289.24,1
644.00,282.83,1
641.00,286.90,1
625.00,301.61,1
72.00,319.00,1
141.00,329.09,1
252.00,330.88,1
180.00,328.09,1
73.00,320.71,1
250.00,309.23,1
54.00,295.43,1
88.00,278.81,1
42.00,259.20,1
36.00,237.43,1
442.00,217.63,1
193.00,204.60,1
427.00,198.28,1
164.00,196.98,1
569.00,200.48,1
208.00,208.99,1
310.00,219.28,1
1023.00,235.13,1
132.00,260.02,1
52.00,281.40,1
256.00,292.36,1
127.00,296.72,1
306.00,296.97,1
630.00,298.67,1
210.00,304.79,1
438.00,311.67,1
158.00,316.87,1
134.00,317.69,1
360.00,314.27,1
37.00,308.61,1
76.00,298.33,1
39.00,282.49,1
86.00,263.06,1
337.00,244.12,1
93.00,228.71,1
247.00,215.80,1
81.00,204.38,1
160.00,193.64,1
130.00,183.46,1
66.00,173.67,1
75.00,163.27,1
534.00,156.17,1
79.00,155.86,1
56.00,156.66,1
356.00,156.60,1
88.00,158.48,1
64.00,159.59,1
161.00,158.27,1
83.00,155.89,1
287.00,154.00,1
199.00,154.55,1
76.00,156.14,1
138.00,156.22,1
132.00,155.13,1
568.00,157.16,1
101.00,164.88,1
365.00,174.70,1
179.00,184.74,1
244.00,194.25,1
93.00,201.34,1
112.00,204.55,1
116.00,203.82,1
226.00,201.22,1
49.00,197.68,1
90.00,191.87,1
121.00,184.00,1
139.00,175.81,1
360.00,170.06,1
219.00,168.95,1
218.00,170.92,1
255.00,174.29,1
121.00,178.11,1
54.00,179.64,1
80.00,177.44,1
934.00,179.40,1
72.00,191.68,1
78.00,204.25,1
185.00,210.45,1
219.00,213.72,1
121.00,215.27,1
718.00,219.06,1
93.00,228.34,1
73.00,235.91,1
91.00,236.56,1
81.00,232.05,1
70.00,223.55,1
415.00,214.96,1
295.00,211.21,1
428.00,213.18,1
223.00,218.99,1
46.00,223.77,1
130.00,223.71,1
42.00,219.05,1
258.00,212.18,1
234.00,206.48,1
131.00,202.41,1
108.00,197.61,1
94.00,191.07,1
194.00,183.83,1
534.00,180.64,1
205.00,184.32,1
287.00,191.17,1
232.00,198.40,1
261.00,205.71,1
38.00,211.02,1
119.00,211.82,1
256.00,209.78,1
83.00,207.20,1
109.00,202.79,1
171.00,196.60,1
50.00,189.55,1
118.00,181.14,1
126.00,172.16,1
83.00,163.39,1
127.00,154.78,1
190.00,147.47,1
337.00,144.05,1
310.00,146.35,1
267.00,153.41,1
50.00,161.11,1
109.00,165.56,1
84.00,166.36,1
160.00,165.06,1
35.00,162.23,1
114.00,157.57,1
335.00,153.75,1
193.00,153.87,1
52.00,155.27,1
486.00,157.66,1
161.00,164.12,1
135.00,171.40,1
320.00,177.47,1
232.00,184.57,1
268.00,192.57,1
114.00,199.57,1
138.00,203.51,1
204.00,204.69,1
48.00,203.73,1
108.00,199.61,1
54.00,192.47,1
51.00,182.86,1
126.00,171.84,1
77.00,160.90,1
204.00,151.26,1
451.00,146.67,1
133.00,148.63,1
144.00,152.31,1
179.00,155.03,1
300.00,158.59,1
79.00,163.15,1
178.00,166.47,1
214.00,168.85,1
95.00,170.87,1
125.00,171.11,1
216.00,170.29,1
100.00,169.46,1
62.00,167.19,1
280.00,164.10,1
62.00,161.97,1
127.00,159.38,1
312.00,157.34,1
178.00,158.28,1
42.00,159.64,1
155.00,158.85,1
73.00,156.51,1
84.00,152.75,1
154.00,148.08,1
244.00,144.90,1
42.00,143.35,1
86.00,140.84,1
125.00,137.07,1
83.00,133.14,1
244.00,130.17,1
224.00,130.21,1
321.00,134.35,1
45.00,140.60,1
67.00,144.66,1
135.00,145.55,1
40.00,144.53,1
212.00,142.50,1
118.00,141.05,1
69.00,139.57,1
321.00,138.59,1
94.00,139.93,1
72.00,141.11,1
62.00,139.79,1
129.00,136.83,1
58.00,133.19,1
71.00,128.61,1
61.00,123.03,1
459.00,120.13,1
119.00,123.04,1
176.00,128.41,1
451.00,135.88,1
38.00,146.33,1
188.00,155.35,1
293.00,162.91,1
58.00,170.14,1
232.00,175.30,1
232.00,179.66,1
109.00,183.68,1
180.00,185.86,1
200.00,186.90,1
86.00,187.01,1
164.00,185.34,1
233.00,183.28,1
194.00,182.47,1
187.00,182.51,1
78.00,181.83,1
214.00,179.91,1
54.00,177.13,1
135.00,172.91,1
50.00,167.06,1
75.00,159.63,1
43.00,150.67,1
52.00,140.65,1
147.00,130.81,1
108.00,122.75,1
54.00,116.02,1
244.00,110.88,1
61.00,108.29,1
182.00,107.27,1
44.00,106.82,1
269.00,107.41,1
57.00,109.61,1
145.00,112.02,1
174.00,114.46,1
54.00,117.05,1
70.00,118.06,1
138.00,117.66,1
98.00,117.14,1
282.00,117.96,1
134.00,121.27,1
233.00,126.25,1
185.00,132.35,1
140.00,138.75,1
45.00,143.25,1
195.00,145.44,1
149.00,147.13,1
185.00,149.14,1
84.00,150.73,1
67.00,150.39,1
247.00,149.00,1
42.00,148.01,1
86.00,145.78,1
149.00,142.28,1
82.00,138.76,1
45.00,134.44,1
153.00,129.39,1
57.00,124.64,1
40.00,119.43,1
386.00,115.85,1
72.00,116.68,1
74.00,118.45,1
78.00,118.34,1
298.00,118.71,1
399.00,123.97,1
172.00,134.40,1
222.00,145.85,1
197.00,156.45,1
217.00,166.23,1
263.00,175.55,1
141.00,184.14,1
161.00,190.42,1
276.00,195.01,1
93.00,198.71,1
151.00,200.02,1
164.00,199.01,1
128.00,196.67,1
224.00,193.70,1
154.00,191.08,1
93.00,187.93,1
284.00,184.47,1
82.00,181.88,1
48.00,178.00,1
84.00,171.30,1
52.00,162.78,1
319.00,155.11,1
41.00,150.19,1
119.00,145.78,1
189.00,141.48,1
76.00,138.27,1
182.00,135.59,1
277.00,135.01,1
171.00,137.59,1
46.00,140.52,1
180.00,141.77,1
127.00,142.43,1
38.00,142.13,1
49.00,139.26,1
53.00,134.03,1
151.00,128.16,1
175.00,123.85,1
44.00,120.99,1
127.00,118.04,1
74.00,114.96,1
127.00,112.15,1
43.00,109.36,1
76.00,106.01,1
124.00,102.59,1
75.00,99.90,1
55.00,97.28,1
143.00,94.77,1
176.00,94.00,1
128.00,95.44,1
110.00,97.88,1
58.00,99.86,1
78.00,100.57,1
150.00,100.79,1
102.00,101.59,1
163.00,103.11,1
94.00,105.17,1
101.00,106.99,1
127.00,108.34,1
159.00,110.02,1
126.00,112.40,1
106.00,114.76,1
85.00,116.26,1
83.00,116.51,1
395.00,118.21,1
148.00,123.99,1
168.00,131.38,1
172.00,138.09,1
201.00,144.51,1
58.00,149.83,1
338.00,154.34,1
39.00,159.04,1
243.00,162.81,1
269.00,166.87,1
146.00,172.08,1
116.00,175.95,1
69.00,176.73,1
111.00,174.50,1
209.00,171.18,1
91.00,168.12,1
105.00,164.32,1
137.00,159.62,1
118.00,154.88,1
136.00,150.36,1
160.00,146.50,1
202.00,144.16,1
210.00,144.01,1
126.00,145.35,1
190.00,146.95,1
54.00,147.94,1
204.00,147.93,1
109.00,147.76,1
171.00,147.64,1
214.00,148.17,1
624.00,153.80,1
258.00,167.22,1
43.00,181.72,1
183.00,191.07,1
52.00,195.66,1
167.00,196.44,1
252.00,195.80,1
281.00,196.70,1
193.00,199.22,1
217.00,201.85,1
206.00,204.07,1
190.00,205.77,1
210.00,206.84,1
64.00,206.39,1
46.00,202.42,1
176.00,195.45,1
150.00,188.21,1
140.00,181.58,1
67.00,174.65,1
61.00,166.34,1
122.00,157.08,1
84.00,148.06,1
117.00,139.66,1
106.00,132.17,1
206.00,126.53,1
154.00,123.61,1
256.00,123.70,1
198.00,126.79,1
171.00,131.76,1
205.00,137.34,1
172.00,143.26,1
140.00,148.71,1
220.00,153.50,1
86.00,157.56,1
185.00,160.21,1
843.00,167.68,1
112.00,184.34,1
214.00,201.53,1
106.00,213.25,1
75.00,219.21,1
122.00,219.59,1
128.00,216.30,1
65.00,210.33,1
291.00,203.34,1
51.00,197.08,1
74.00,189.65,1
160.00,180.68,1
151.00,172.39,1
48.00,164.61,1
146.00,156.50,1
219.00,149.78,1
90.00,145.30,1
218.00,142.18,1
250.00,141.55,1
389.00,145.57,1
189.00,153.85,1
226.00,163.30,1
128.00,171.43,1
177.00,177.39,1
60.00,180.49,1
110.00,180.23,1
381.00,179.53,1
162.00,181.68,1
108.00,184.02,1
87.00,183.57,1
108.00,180.33,1
78.00,175.07,1
156.00,168.74,1
172.00,162.99,1
54.00,157.81,1
200.00,152.62,1
94.00,148.17,1
284.00,145.44,1
262.00,146.19,1
139.00,149.75,1
138.00,153.11,1
228.00,155.91,1
154.00,159.07,1
120.00,161.63,1
213.00,163.25,1
192.00,165.19,1
88.00,166.86,1
105.00,166.49,1
346.00,166.02,1
125.00,167.80,1
541.00,173.05,1
73.00,181.87,1
95.00,189.02,1
138.00,191.55,1
226.00,192.05,1
133.00,192.06,1
274.00,192.05,1
81.00,191.99,1
130.00,190.28,1
49.00,185.89,1
178.00,179.75,1
216.00,174.27,1
217.00,171.20,1
61.00,169.08,1
306.00,167.21,1
374.00,168.92,1
224.00,175.17,1
308.00,183.53,1
336.00,193.52,1
104.00,203.69,1
52.00,209.60,1
83.00,209.56,1
68.00,204.95,1
45.00,196.80,1
330.00,188.14,1
111.00,182.09,1
78.00,176.67,1
88.00,169.61,1
46.00,161.09,1
170.00,152.19,1
225.00,145.47,1
79.00,141.33,1
373.00,139.75,1
98.00,141.62,1
140.00,144.23,1
164.00,145.93,1
135.00,147.37,1
797.00,153.79,1
78.00,168.48,1
106.00,182.87,1
108.00,191.05,1
356.00,196.55,1
350.00,203.88,1
86.00,212.15,1
45.00,216.11,1
138.00,214.52,1
38.00,209.15,1
581.00,204.73,1
292.00,206.99,1
44.00,211.89,1
66.00,212.30,1
194.00,208.66,1
48.00,203.12,1
118.00,195.58,1
102.00,186.56,1
184.00,177.72,1
118.00,169.99,1
78.00,162.61,1
57.00,154.36,1
132.00,145.65,1
204.00,138.56,1
265.00,135.24,1
349.00,137.21,1
287.00,144.52,1
163.00,154.28,1
161.00,163.00,1
61.00,168.72,1
43.00,170.18,1
160.00,168.21,1
203.00,165.82,1
227.00,165.07,1
77.00,165.11,1
164.00,164.19,1
127.00,162.46,1
375.00,162.33,1
121.00,165.13,1
42.00,167.23,1
49.00,165.40,1
217.00,161.49,1
161.00,158.51,1
52.00,155.88,1
131.00,152.01,1
194.00,148.23,1
79.00,145.40,1
164.00,142.71,1
190.00,140.88,1
201.00,140.99,1
70.00,141.89,1
38.00,141.01,1
253.00,138.99,1
156.00,138.66,1
260.00,140.66,1
67.00,143.67,1
102.00,145.29,1
149.00,145.20,1
105.00,144.50,1
248.00,144.21,1
216.00,145.98,1
205.00,149.79,1
220.00,154.75,1
81.00,159.41,1
73.00,161.43,1
73.00,160.08,1
62.00,156.07,1
72.00,150.09,1
312.00,144.86,1
117.00,142.86,1
96.00,141.92,1
230.00,140.97,1
162.00,141.53,1
318.00,144.50,1
196.00,150.19,1
41.00,155.75,1
184.00,158.66,1
227.00,160.88,1
169.00,163.93,1
57.00,165.96,1
266.00,166.56,1
98.00,167.18,1
214.00,167.71,1
48.00,167.32,1
413.00,167.46,1
155.00,170.59,1
101.00,174.15,1
131.00,175.12,1
523.00,177.40,1
156.00,184.30,1
41.00,190.69,1
262.00,193.36,1
77.00,194.30,1
268.00,194.25,1
35.00,193.16,1
136.00,189.88,1
105.00,184.51,1
364.00,180.21,1
603.00,182.86,1
267.00,194.14,1
122.00,206.71,1
112.00,214.58,1
99.00,217.16,1
59.00,215.00,1
160.00,209.37,1
203.00,202.99,1
93.00,196.87,1
74.00,189.52,1
51.00,180.07,1
173.00,169.81,1
213.00,161.44,1
127.00,155.75,1
90.00,150.88,1
49.00,145.14,1
46.00,137.91,1
46.00,129.40,1
115.00,120.74,1
138.00,113.60,1
43.00,108.00,1
155.00,103.31,1
192.00,100.83,1
76.00,100.72,1
109.00,101.05,1
56.00,100.85,1
169.00,100.59,1
259.00,102.51,1
236.00,108.21,1
217.00,116.82,1
58.00,125.53,1
614.00,135.81,1
126.00,150.79,1
144.00,165.53,1
170.00,176.05,1
136.00,183.33,1
156.00,187.73,1
50.00,188.94,1
336.00,188.51,1
74.00,188.52,1
54.00,186.72,1
120.00,181.66,1
152.00,175.49,1
70.00,169.07,1
154.00,162.29,1
318.00,157.53,1
158.00,156.52,1
148.00,157.05,1
87.00,156.74,1
84.00,154.67,1
82.00,150.73,1
136.00,145.93,1
230.00,142.29,1
127.00,140.82,1
206.00,140.75,1
240.00,142.48,1
57.00,145.24,1
80.00,146.14,1
71.00,144.35,1
160.00,141.37,1
107.00,138.55,1
112.00,135.84,1
287.00,134.41,1
62.00,135.08,1
76.00,135.15,1
154.00,133.77,1
127.00,132.52,1
156.00,131.85,1
341.00,133.41,1
194.00,138.71,1
96.00,144.97,1
292.00,150.54,1
478.00,159.35,1
121.00,172.09,1
69.00,182.61,1
136.00,187.83,1
130.00,189.49,1
36.00,188.01,1
427.00,185.88,1
137.00,186.60,1
67.00,187.34,1
56.00,184.43,1
193.00,179.22,1
165.00,174.35,1
149.00,170.44,1
162.00,167.00,1
275.00,165.05,1
86.00,164.71,1
144.00,163.88,1
234.00,162.87,1
98.00,162.58,1
193.00,162.14,1
227.00,162.32,1
65.00,162.98,1
45.00,161.43,1
58.00,156.65,1
158.00,150.49,1
55.00,144.36,1
90.00,137.89,1
181.00,131.84,1
98.00,127.45,1
264.00,125.21,1
212.00,126.33,1
147.00,129.92,1
104.00,133.40,1
48.00,134.96,1
82.00,133.96,1
335.00,133.30,1
403.00,137.96,1
189.00,147.97,1
81.00,157.82,1
178.00,164.44,1
233.00,169.57,1
209.00,174.92,1
64.00,179.10,1
46.00,179.46,1
112.00,176.00,1
358.00,172.73,1
72.00,172.01,1
258.00,172.06,1
131.00,172.34,1
816.00,178.02,1
59.00,191.53,1
114.00,204.14,1
122.00,210.25,1
126.00,211.91,1
56.00,209.67,1
75.00,203.57,1
100.00,194.70,1
104.00,184.60,1
105.00,174.23,1
141.00,164.34,1
245.00,156.63,1
135.00,151.93,1
158.00,148.91,1
101.00,146.26,1
250.00,144.45,1
204.00,144.97,1
265.00,148.25,1
238.00,153.89,1
161.00,160.56,1
100.00,165.76,1
101.00,168.05,1
96.00,167.54,1
39.00,164.36,1
69.00,158.51,1
442.00,153.94,1
107.00,154.16,1
228.00,156.57,1
44.00,158.24,1
114.00,157.84,1
161.00,155.88,1
94.00,153.63,1
85.00,150.41,1
51.00,145.61,1
411.00,142.08,1
139.00,143.06,1
80.00,145.43,1
119.00,145.88,1
172.00,145.45,1
147.00,145.36,1
291.00,146.74,1
134.00,150.10,1
263.00,154.49,1
174.00,159.63,1
295.00,165.78,1
125.00,172.33,1
98.00,176.92,1
120.00,178.19,1
62.00,176.55,1
183.00,172.97,1
326.00,170.78,1
406.00,173.74,1
47.00,180.10,1
52.00,183.53,1
158.00,182.60,1
60.00,179.39,1
55.00,173.71,1
64.00,165.60,1
178.00,156.93,1
98.00,149.43,1
47.00,142.27,1
118.00,134.70,1
110.00,127.74,1
86.00,121.73,1
110.00,116.38,1
127.00,112.04,1
106.00,108.95,1
71.00,106.38,1
240.00,104.97,1
164.00,106.35,1
358.00,111.57,1
204.00,120.90,1
146.00,131.55,1
253.00,141.49,1
128.00,150.83,1
127.00,158.18,1
64.00,162.21,1
195.00,163.58,1
190.00,164.54,1
118.00,165.55,1
59.00,164.82,1
127.00,161.80,1
235.00,158.68,1
92.00,156.77,1
90.00,154.34,1
214.00,151.40,1
69.00,149.02,1
77.00,145.83,1
156.00,141.71,1
91.00,137.86,1
210.00,134.90,1
101.00,133.27,1
179.00,132.51,1
117.00,132.32,1
298.00,133.69,1
86.00,136.98,1
94.00,139.61,1
221.00,141.06,1
157.00,143.24,1
260.00,146.74,1
99.00,150.98,1
130.00,154.07,1
278.00,156.59,1
92.00,159.78,1
110.00,161.64,1
82.00,160.96,1
84.00,158.02,1
225.00,154.48,1
175.00,152.56,1
142.00,152.00,1
96.00,151.13,1
205.00,149.92,1
203.00,149.91,1
366.00,153.00,1
211.00,159.73,1
158.00,167.41,1
94.00,172.86,1
220.00,175.95,1
212.00,178.65,1
197.00,181.75,1
225.00,184.97,1
400.00,190.00,1
413.00,199.44,1
270.00,212.39,1
378.00,226.23,1
207.00,239.48,1
496.00,252.28,1
103.00,264.43,1
201.00,272.37,1
278.00,275.83,1
317.00,278.22,1
192.00,279.97,1
58.00,278.29,1
210.00,272.05,1
132.00,263.29,1
310.00,254.42,1
298.00,247.95,1
302.00,244.86,1
412.00,245.30,1
209.00,248.57,1
281.00,252.03,1
243.00,254.71,1
210.00,256.40,1
328.00,257.38,1
215.00,258.55,1
131.00,258.23,1
85.00,254.02,1
129.00,245.96,1
230.00,236.41,1
104.00,227.06,1
201.00,217.71,1
216.00,209.38,1
208.00,203.09,1
283.00,199.17,1
226.00,197.88,1
175.00,197.88,1
409.00,199.49,1
100.00,203.15,1
76.00,204.88,1
120.00,202.46,1
92.00,197.31,1
129.00,190.41,1
81.00,182.42,1
176.00,174.18,1
144.00,166.92,1
227.00,161.61,1
270.00,159.41,1
228.00,160.78,1
226.00,164.38,1
244.00,169.35,1
242.00,175.46,1
369.00,183.39,1
119.00,192.46,1
228.00,199.88,1
148.00,204.87,1
281.00,208.54,1
106.00,211.17,1
102.00,211.07,1
92.00,207.28,1
208.00,201.62,1
239.00,196.83,1
214.00,194.13,1
149.00,192.41,1
215.00,190.75,1
110.00,188.87,1
64.00,185.28,1
301.00,180.88,1
398.00,180.35,1
156.00,184.39,1
70.00,187.80,1
137.00,187.76,1
444.00,188.04,1
147.00,191.74,1
160.00,195.63,1
374.00,199.07,1
354.00,205.51,1
194.00,214.19,1
163.00,221.19,1
225.00,225.32,1
241.00,228.06,1
271.00,230.69,1
275.00,233.83,1
288.00,237.65,1
165.00,241.09,1
127.00,241.87,1
374.00,241.01,1
263.00,241.81,1
313.00,244.48,1
121.00,246.78,1
262.00,247.11,1
333.00,247.26,1
283.00,249.23,1
210.00,251.67,1
366.00,254.03,1
158.00,256.53,1
250.00,257.64,1
249.00,257.43,1
159.00,256.25,1
295.00,254.01,1
224.00,251.94,1
176.00,249.64,1
269.00,246.60,1
187.00,243.59,1
259.00,240.70,1
129.00,237.43,1
150.00,232.59,1
224.00,226.61,1
287.00,221.89,1
187.00,219.12,1
126.00,216.27,1
269.00,212.81,1
149.00,209.87,1
108.00,206.28,1
321.00,202.40,1
322.00,201.69,1
95.00,203.28,1
171.00,203.39,1
178.00,201.82,1
119.00,199.27,1
75.00,194.79,1
196.00,188.74,1
552.00,186.35,1
194.00,190.73,1
170.00,196.97,1
256.00,201.72,1
124.00,205.31,1
160.00,206.71,1
312.00,207.18,1
244.00,209.20,1
122.00,211.45,1
188.00,211.75,1
109.00,209.98,1
122.00,206.03,1
314.00,201.74,1
242.00,200.01,1
127.00,199.72,1
252.00,199.08,1
210.00,198.97,1
286.00,200.22,1
387.00,204.26,1
401.00,212.65,1
256.00,223.93,1
95.00,233.44,1
92.00,237.35,1
96.00,235.56,1
150.00,229.93,1
76.00,221.95,1
127.00,212.10,1
136.00,201.44,1
102.00,190.82,1
351.00,182.15,1
107.00,177.08,1
167.00,173.42,1
134.00,169.66,1
192.00,166.38,1
133.00,163.77,1
357.00,163.12,1
183.00,165.74,1
217.00,170.00,1
138.00,173.87,1
186.00,176.67,1
296.00,179.62,1
338.00,185.20,1
225.00,193.24,1
85.00,200.18,1
334.00,204.82,1
251.00,209.89,1
213.00,215.48,1
98.00,218.98,1
162.00,219.09,1
349.00,218.30,1
149.00,218.82,1
89.00,218.05,1
100.00,213.72,1
132.00,206.84,1
225.00,199.62,1
304.00,194.88,1
158.00,193.06,1
291.00,192.81,1
188.00,193.91,1
126.00,194.89,1
259.00,194.97,1
219.00,195.72,1
249.00,197.66,1
124.00,199.56,1
186.00,200.04,1
322.00,200.56,1
440.00,204.84,1
282.00,213.66,1
82.00,222.27,1
299.00,227.63,1
265.00,231.98,1
287.00,236.85,1
272.00,241.92,1
92.00,245.39,1
127.00,244.67,1
109.00,239.75,1
131.00,231.98,1
89.00,222.17,1
278.00,212.21,1
167.00,204.33,1
101.00,197.49,1
75.00,189.43,1
154.00,180.37,1
102.00,171.51,1
212.00,163.82,1
115.00,157.86,1
241.00,153.78,1
164.00,151.86,1
299.00,152.55,1
208.00,156.09,1
189.00,161.09,1
150.00,165.64,1
132.00,168.75,1
252.00,171.04,1
127.00,173.43,1
106.00,174.57,1
95.00,173.24,1
264.00,171.13,1
131.00,170.11,1
184.00,169.58,1
75.00,168.31,1
73.00,165.15,1
176.00,160.58,1
73.00,155.91,1
167.00,151.25,1
85.00,146.78,1
215.00,143.08,1
159.00,141.12,1
64.00,139.91,1
89.00,137.47,1
285.00,135.43,1
111.00,135.78,1
40.00,136.09,1
177.00,134.86,1
47.00,133.11,1
312.00,132.21,1
546.00,137.23,1
245.00,150.17,1
216.00,165.36,1
89.00,177.77,1
90.00,185.27,1
234.00,188.98,1
138.00,191.30,1
64.00,191.43,1
160.00,188.70,1
308.00,186.11,1
87.00,185.13,1
202.00,183.91,1
45.00,181.30,1
145.00,176.93,1
116.00,171.47,1
132.00,165.83,1
41.00,159.54,1
132.00,152.32,1
316.00,146.95,1
64.00,144.87,1
112.00,143.10,1
46.00,139.76,1
110.00,135.19,1
78.00,130.09,1
73.00,124.71,1
66.00,118.90,1
46.00,112.64,1
160.00,106.78,1
281.00,104.14,1
108.00,105.56,1
195.00,108.90,1
158.00,113.29,1
283.00,119.47,1
264.00,128.47,1
240.00,139.76,1
68.00,150.45,1
131.00,157.73,1
69.00,161.34,1
126.00,161.99,1
57.00,160.22,1
85.00,156.24,1
183.00,151.43,1
428.00,150.08,1
48.00,153.11,1
71.00,155.26,1
92.00,154.07,1
65.00,150.71,1
51.00,145.44,1
59.00,138.51,1
363.00,133.07,1
213.00,132.76,1
255.00,136.78,1
153.00,142.58,1
42.00,147.25,1
76.00,148.50,1
128.00,147.15,1
110.00,144.91,1
90.00,142.03,1
316.00,140.16,1
217.00,141.90,1
88.00,145.48,1
193.00,148.23,1
39.00,149.65,1
188.00,149.57,1
36.00,148.28,1
101.00,145.37,1
44.00,140.68,1
331.00,136.76,1
100.00,135.92,1
97.00,135.98,1
65.00,134.48,1
244.00,132.78,1
138.00,132.82,1
332.00,135.58,1
56.00,140.30,1
59.00,143.40,1
119.00,143.38,1
166.00,142.45,1
184.00,142.28,1
60.00,142.36,1
226.00,142.09,1
299.00,143.91,1
62.00,147.90,1
449.00,153.26,1
127.00,161.25,1
195.00,169.42,1
99.00,175.11,1
98.00,177.71,1
166.00,177.58,1
36.00,175.47,1
164.00,171.38,1
61.00,166.08,1
275.00,161.20,1
87.00,157.93,1
38.00,154.24,1
135.00,148.79,1
34.00,142.56,1
103.00,135.61,1
73.00,128.43,1
441.00,124.45,1
474.00,129.09,1
180.00,141.40,1
116.00,153.93,1
172.00,163.18,1
146.00,169.80,1
150.00,174.28,1
62.00,176.12,1
176.00,175.37,1
288.00,174.81,1
210.00,176.54,1
166.00,179.27,1
74.00,180.50,1
204.00,179.74,1
49.00,177.59,1
87.00,173.32,1
116.00,167.12,1
53.00,159.96,1
280.00,153.37,1
536.00,152.81,1
72.00,159.09,1
77.00,164.85,1
256.00,167.76,1
747.00,175.46,1
61.00,190.41,1
199.00,204.31,1
510.00,216.12,1
46.00,228.40,1
297.00,237.59,1
196.00,243.64,1
91.00,246.63,1
109.00,244.81,1
76.00,238.44,1
145.00,229.09,1
103.00,218.30,1
119.00,206.77,1
102.00,194.84,1
34.00,182.30,1
149.00,169.37,1
42.00,157.02,1
89.00,145.11,1
198.00,134.71,1
160.00,127.69,1
81.00,123.10,1
263.00,120.38,1
212.00,121.15,1
256.00,125.50,1
76.00,131.25,1
172.00,136.07,1
194.00,140.32,1
76.00,144.16,1
67.00,145.71,1
344.00,146.65,1
246.00,150.79,1
375.00,158.98,1
150.00,169.48,1
177.00,178.89,1
595.00,189.23,1
207.00,203.93,1
58.00,217.18,1
173.00,224.12,1
221.00,227.15,1
233.00,228.94,1
98.00,229.21,1
294.00,227.83,1
297.00,227.38,1
173.00,228.28,1
194.00,228.34,1
328.00,228.17,1
235.00,229.48,1
192.00,231.07,1
159.00,231.05,1
94.00,228.37,1
223.00,223.49,1
151.00,218.09,1
344.00,213.95,1
62.00,211.18,1
158.00,207.27,1
101.00,201.38,1
57.00,193.70,1
56.00,183.68,1
284.00,173.74,1
110.00,166.52,1
53.00,160.13,1
148.00,152.96,1
131.00,146.42,1
343.00,142.83,1
248.00,144.15,1
139.00,148.46,1
127.00,152.23,1
45.00,153.69,1
134.00,152.57,1
130.00,150.34,1
318.00,149.57,1
142.00,151.58,1
76.00,153.71,1
142.00,153.84,1
90.00,152.58,1
48.00,149.65,1
117.00,144.96,1
104.00,139.78,1
201.00,135.57,1
240.00,134.07,1
211.00,135.86,1
143.00,139.41,1
248.00,143.64,1
160.00,148.70,1
56.00,152.79,1
156.00,154.38,1
38.00,153.83,1
117.00,151.22,1
209.00,148.20,1
188.00,146.97,1
145.00,147.23,1
56.00,146.97,1
96.00,144.81,1
155.00,141.72,1
69.00,138.61,1
89.00,134.81,1
77.00,130.13,1
137.00,125.42,1
59.00,121.08,1
174.00,117.32,1
226.00,115.81,1
173.00,117.46,1
111.00,120.50,1
217.00,123.88,1
74.00,127.47,1
211.00,130.74,1
125.00,134.04,1
105.00,136.79,1
41.00,137.46,1
216.00,136.74,1
475.00,139.49,1
42.00,146.91,1
104.00,153.17,1
46.00,155.32,1
68.00,153.97,1
88.00,150.04,1
37.00,144.42,1
134.00,137.81,1
42.00,131.10,1
76.00,124.08,1
46.00,116.63,1
60.00,108.99,1
187.00,102.50,1
116.00,98.72,1
139.00,97.19,1
191.00,97.68,1
72.00,99.72,1
92.00,101.49,1
38.00,101.91,1
248.00,102.30,1
78.00,104.27,1
39.00,105.98,1
113.00,106.00,1
94.00,105.48,1
170.00,105.49,1
261.00,107.78,1
77.00,112.30,1
252.00,117.52,1
240.00,124.40,1
116.00,132.53,1
198.00,139.86,1
184.00,146.56,1
311.00,154.08,1
505.00,165.55,1
297.00,182.18,1
191.00,199.49,1
242.00,213.66,1
91.00,223.70,1
181.00,228.86,1
405.00,232.30,1
54.00,235.87,1
116.00,235.93,1
140.00,231.67,1
169.00,225.44,1
204.00,218.87,1
52.00,211.84,1
117.00,202.98,1
50.00,192.29,1
87.00,180.33,1
188.00,168.69,1
43.00,158.45,1
40.00,148.02,1
146.00,137.43,1
78.00,128.22,1
48.00,119.88,1
163.00,112.36,1
394.00,109.30,1
157.00,112.53,1
83.00,117.83,1
91.00,121.39,1
77.00,122.89,1
197.00,123.62,1
134.00,125.08,1
137.00,127.03,1
200.00,129.34,1
77.00,131.90,1
72.00,133.00,1
104.00,132.11,1
182.00,130.88,1
114.00,130.43,1
134.00,130.27,1
125.00,130.04,1
88.00,129.46,1
57.00,127.69,1
89.00,124.51,1
40.00,120.24,1
355.00,117.36,1
319.00,120.20,1
271.00,128.81,1
221.00,140.02,1
96.00,150.60,1
88.00,157.77,1
184.00,161.77,1
60.00,163.73,1
45.00,162.65,1
372.00,160.77,1
284.00,162.91,1
50.00,167.35,1
219.00,170.18,1
36.00,171.04,1
51.00,168.88,1
57.00,163.23,1
151.00,156.15,1
110.00,149.48,1
131.00,143.62,1
76.00,138.12,1
81.00,132.39,1
50.00,126.04,1
43.00,118.88,1
90.00,111.37,1
63.00,104.35,1
419.00,100.84,1
157.00,103.58,1
89.00,109.01,1
126.00,113.35,1
199.00,117.35,1
163.00,122.21,1
192.00,127.82,1
94.00,133.15,1
386.00,139.14,1
71.00,146.83,1
94.00,152.95,1
307.00,157.22,1
222.00,162.96,1
183.00,169.66,1
124.00,175.03,1
285.00,179.25,1
239.00,184.22,1
129.00,189.29,1
51.00,191.38,1
154.00,189.84,1
256.00,187.46,1
124.00,185.98,1
36.00,183.17,1
78.00,177.20,1
190.00,169.96,1
224.00,164.46,1
177.00,161.57,1
72.00,159.41,1
37.00,155.46,1
58.00,148.97,1
70.00,140.94,1
84.00,132.50,1
147.00,124.89,1
162.00,119.45,1
72.00,115.85,1
208.00,113.53,1
404.00,115.40,1
343.00,124.27,1
76.00,136.54,1
120.00,146.44,1
73.00,152.28,1
62.00,154.41,1
184.00,154.06,1
84.00,152.95,1
91.00,150.71,1
108.00,147.11,1
189.00,143.61,1
87.00,140.94,1
116.00,138.21,1
129.00,135.27,1
207.00,133.36,1
203.00,133.69,1
244.00,136.61,1
58.00,140.52,1
258.00,143.95,1
224.00,148.39,1
55.00,153.16,1
104.00,155.32,1
197.00,155.62,1
81.00,155.49,1
133.00,154.30,1
55.00,151.62,1
72.00,147.19,1
178.00,142.07,1
118.00,138.00,1
36.00,134.06,1
173.00,129.63,1
144.00,126.32,1
127.00,124.49,1
269.00,124.53,1
262.00,128.10,1
88.00,133.84,1
155.00,138.67,1
139.00,142.21,1
94.00,144.53,1
130.00,145.30,1
152.00,145.25,1
143.00,145.18,1
140.00,145.11,1
344.00,146.63,1
272.00,151.99,1
144.00,159.57,1
35.00,164.98,1
390.00,168.61,1
190.00,174.10,1
164.00,180.23,1
231.00,185.12,1
249.00,189.95,1
37.00,193.66,1
309.00,195.30,1
43.00,195.85,1
350.00,195.95,1
143.00,196.88,1
51.00,196.76,1
142.00,193.35,1
137.00,188.28,1
57.00,182.10,1
150.00,174.70,1
50.00,166.65,1
255.00,159.20,1
429.00,156.44,1
44.00,158.76,1
76.00,160.17,1
206.00,159.22,1
91.00,158.02,1
50.00,155.49,1
55.00,150.43,1
70.00,143.49,1
232.00,137.01,1
295.00,134.38,1
63.00,135.30,1
37.00,135.31,1
209.00,133.69,1
90.00,132.55,1
47.00,130.89,1
136.00,127.97,1
113.00,125.08,1
113.00,122.67,1
124.00,120.61,1
195.00,119.66,1
54.00,119.69,1
122.00,119.26,1
121.00,118.45,1
72.00,117.52,1
218.00,116.92,1
332.00,119.53,1
354.00,127.84,1
52.00,138.97,1
113.00,147.55,1
43.00,151.81,1
122.00,152.68,1
65.00,151.21,1
186.00,148.72,1
129.00,146.60,1
174.00,145.24,1
136.00,144.47,1
48.00,143.18,1
110.00,140.31,1
76.00,136.33,1
73.00,131.56,1
162.00,126.75,1
80.00,122.85,1
232.00,120.41,1
171.00,120.51,1
125.00,122.38,1
45.00,123.61,1
87.00,122.93,1
118.00,121.14,1
127.00,119.50,1
106.00,118.25,1
68.00,116.75,1
221.00,115.58,1
122.00,116.10,1
347.00,119.39,1
77.00,125.33,1
86.00,130.56,1
66.00,132.79,1
40.00,132.22,1
121.00,129.62,1
120.00,126.67,1
237.00,125.19,1
102.00,125.66,1
36.00,125.80,1
36.00,123.48,1
43.00,118.89,1
87.00,113.17,1
96.00,107.67,1
127.00,103.29,1
146.00,100.65,1
130.00,99.86,1
116.00,100.28,1
93.00,101.04,1
46.00,101.16,1
64.00,99.97,1
80.00,97.87,1
186.00,96.43,1
254.00,98.01,1
196.00,103.39,1
227.00,111.27,1
268.00,121.20,1
97.00,131.85,1
107.00,140.28,1
103.00,145.45,1
324.00,149.84,1
113.00,155.38,1
141.00,160.17,1
144.00,162.97,1
89.00,163.98,1
104.00,162.83,1
68.00,159.60,1
77.00,154.46,1
131.00,148.37,1
91.00,142.38,1
54.00,136.16,1
138.00,129.72,1
132.00,124.36,1
48.00,119.89,1
104.00,115.28,1
123.00,111.10,1
409.00,110.55,1
731.00,120.25,1
59.00,139.84,1
77.00,157.75,1
165.00,169.27,1
135.00,176.91,1
142.00,181.61,1
156.00,183.93,1
110.00,184.26,1
80.00,182.16,1
94.00,177.53,1
120.00,171.36,1
164.00,165.11,1
92.00,159.37,1
59.00,153.09,1
94.00,145.75,1
56.00,137.87,1
375.00,132.13,1
85.00,130.77,1
36.00,130.22,1
189.00,128.36,1
123.00,127.13,1
61.00,126.10,1
52.00,123.59,1
100.00,119.78,1
137.00,116.14,1
209.00,114.36,1
62.00,114.31,1
191.00,114.82,1
42.00,115.44,1
313.00,116.95,1
127.00,120.80,1
39.00,124.75,1
231.00,127.23,1
380.00,132.19,1
53.00,140.23,1
46.00,146.09,1
107.00,147.79,1
61.00,146.87,1
174.00,144.64,1
85.00,142.26,1
118.00,139.55,1
221.00,137.37,1
375.00,138.92,1
266.00,145.70,1
54.00,153.97,1
317.00,160.88,1
41.00,166.83,1
40.00,169.46,1
68.00,167.40,1
124.00,162.77,1
482.00,160.47,1
94.00,163.19,1
205.00,167.11,1
165.00,170.09,1
58.00,171.64,1
127.00,170.50,1
140.00,167.71,1
220.00,165.23,1
65.00,163.22,1
94.00,159.96,1
110.00,155.19,1
48.00,149.44,1
120.00,142.80,1
432.00,138.98,1
160.00,140.95,1
44.00,144.39,1
131.00,145.36,1
197.00,145.45,1
42.00,145.39,1
210.00,144.60,1
383.00,146.20,1
131.00,151.70,1
49.00,156.61,1
54.00,157.48,1
146.00,155.46,1
40.00,151.97,1
302.00,148.65,1
79.00,147.20,1
42.00,145.38,1
376.00,143.64,1
128.00,145.17,1
93.00,147.53,1
134.00,148.12,1
710.00,152.54,1
215.00,165.53,1
126.00,180.39,1
50.00,189.98,1
143.00,194.04,1
126.00,194.47,1
98.00,192.45,1
78.00,187.84,1
285.00,182.56,1
264.00,180.07,1
295.00,181.40,1
398.00,186.82,1
43.00,194.11,1
90.00,197.95,1
118.00,197.17,1
52.00,193.13,1
44.00,185.84,1
164.00,176.67,1
138.00,168.06,1
948.00,167.45,1
150.00,179.42,1
47.00,193.31,1
100.00,200.32,1
316.00,203.69,1
136.00,206.70,1
156.00,208.28,1
68.00,206.86,1
133.00,202.44,1
180.00,196.64,1
36.00,190.11,1
206.00,182.66,1
88.00,175.40,1
57.00,167.72,1
127.00,159.05,1
107.00,150.65,1
77.00,142.74,1
122.00,135.17,1
41.00,127.93,1
143.00,121.07,1
121.00,115.55,1
127.00,111.77,1
107.00,109.18,1
47.00,106.81,1
51.00,103.56,1
145.00,100.10,1
74.00,97.59,1
68.00,95.44,1
59.00,92.89,1
59.00,89.88,1
39.00,86.42,1
60.00,82.55,1
36.00,78.50,1
66.00,74.46,1
106.00,71.19,1
93.00,69.41,1
122.00,69.19,1
106.00,70.39,1
136.00,72.87,1
127.00,76.53,1
213.00,81.77,1
195.00,89.21,1
180.00,98.42,1
121.00,107.77,1
182.00,116.30,1
168.00,124.34,1
137.00,131.76,1
110.00,137.61,1
124.00,141.46,1
115.00,143.60,1
49.00,143.81,1
158.00,142.26,1
107.00,140.29,1
126.00,138.26,1
70.00,135.70,1
63.00,131.98,1
41.00,126.76,1
38.00,120.12,1
53.00,112.52,1
66.00,104.76,1
51.00,97.35,1
120.00,90.87,1
84.00,86.07,1
109.00,82.86,1
112.00,81.12,1
122.00,80.90,1
144.00,82.20,1
137.00,85.00,1
150.00,89.05,1
207.00,94.52,1
192.00,101.82,1
122.00,109.93,1
118.00,117.03,1
146.00,122.72,1
193.00,127.98,1
134.00,133.25,1
196.00,138.29,1
93.00,142.66,1
129.00,145.48,1
74.00,146.32,1
40.00,144.70,1
70.00,140.52,1
36.00,134.46,1
37.00,126.87,1
57.00,118.26,1
96.00,109.83,1
53.00,102.28,1
136.00,95.96,1
62.00,91.19,1
90.00,87.44,1
104.00,84.56,1
116.00,83.00,1
117.00,82.85,1
138.00,84.03,1
116.00,86.36,1
115.00,89.30,1
127.00,92.49,1
101.00,95.75,1
106.00,98.65,1
108.00,101.08,1
120.00,103.23,1
95.00,105.12,1
114.00,106.58,1
102.00,107.68,1
65.00,108.13,1
