32,45.04,1
33,44.46,1
63,43.88,1
38,43.61,1
50,43.52,1
72,43.75,1
52,44.5,1
60,45.54,1
80,46.9,1
57,48.67,1
76,50.62,1
57,52.63,1
95,54.76,1
40,56.94,1
76,58.79,1
85,60.54,1
142,63.06,1
53,66.35,1
110,69.62,1
77,72.69,1
89,75.53,1
68,77.87,1
92,79.69,1
58,81.01,1
81,81.73,1
66,81.95,1
54,81.62,1
50,80.54,1
120,79.32,1
44,78.53,1
83,77.74,1
46,76.69,1
126,75.84,1
41,75.49,1
52,74.88,1
47,73.54,1
66,71.85,1
32,69.95,1
49,67.68,1
30,65.05,1
40,62.14,1
31,59.05,1
33,55.88,1
45,52.8,1
88,50.45,1
63,49.33,1
65,49.14,1
35,49.25,1
40,49.15,1
70,48.99,1
68,49.28,1
66,50.11,1
63,51.25,1
58,52.49,1
60,53.67,1
103,55.1,1
78,57.2,1
33,59.31,1
69,60.72,1
107,62.08,1
83,64.08,1
121,66.71,1
65,69.72,1
80,72.44,1
82,74.64,1
116,76.82,1
83,79.21,1
98,81.55,1
69,83.5,1
106,85.06,1
70,86.33,1
70,87.06,1
49,86.89,1
97,86.09,1
34,84.93,1
86,83.33,1
53,81.51,1
64,79.55,1
48,77.33,1
35,74.71,1
39,71.57,1
35,68.05,1
30,64.28,1
102,60.93,1
31,58.54,1
34,56.43,1
37,54.1,1
54,51.88,1
32,49.94,1
32,48.05,1
49,46.23,1
51,44.82,1
48,43.9,1
58,43.44,1
53,43.44,1
91,44.1,1
94,45.84,1
74,48.55,1
74,51.6,1
66,54.58,1
115,57.69,1
92,61.34,1
48,64.94,1
114,68.03,1
86,71.12,1
47,73.86,1
102,75.84,1
90,77.65,1
112,79.71,1
122,82.23,1
90,85.11,1
75,87.59,1
79,89.23,1
70,90.04,1
99,90.32,1
92,90.52,1
94,90.79,1
52,90.74,1
97,90.16,1
62,89.28,1
111,88.41,1
67,87.73,1
52,86.77,1
41,84.94,1
128,82.91,1
34,81.36,1
52,79.55,1
47,77.09,1
48,74.29,1
31,71.15,1
45,67.71,1
31,64.12,1
83,60.84,1
79,58.61,1
55,57.41,1
89,56.89,1
66,57.08,1
80,57.81,1
38,58.63,1
83,59.3,1
78,60.17,1
93,61.57,1
56,63.24,1
92,64.87,1
88,66.67,1
117,69,1
53,71.58,1
126,74.06,1
77,76.64,1
124,79.4,1
72,82.15,1
93,84.51,1
143,86.81,1
120,89.8,1
50,92.68,1
121,94.63,1
66,95.95,1
179,97.34,1
92,99.43,1
83,101.42,1
86,102.43,1
78,102.58,1
68,101.87,1
83,100.44,1
93,98.74,1
34,96.7,1
34,93.58,1
51,89.41,1
37,84.73,1
34,79.7,1
34,74.41,1
34,69.07,1
47,63.96,1
31,59.29,1
33,54.95,1
54,51.09,1
60,48.12,1
56,46.17,1
37,44.88,1
70,44.06,1
56,43.9,1
33,44.09,1
53,44.23,1
64,44.55,1
89,45.53,1
91,47.51,1
192,51.24,1
108,57.16,1
127,64.15,1
90,71.07,1
136,77.63,1
91,83.79,1
97,89.12,1
117,93.56,1
137,97.7,1
119,101.83,1
84,105.39,1
93,107.76,1
116,109.2,1
139,110.52,1
114,112.06,1
50,112.98,1
86,112.45,1
105,111.05,1
94,109.54,1
52,107.63,1
75,104.9,1
56,101.51,1
105,97.99,1
37,94.6,1
91,91.13,1
49,87.7,1
37,84.07,1
43,79.93,1
44,75.53,1
34,71.06,1
35,66.55,1
52,62.21,1
43,58.37,1
64,55.18,1
31,52.6,1
70,50.52,1
85,49.37,1
57,49.31,1
63,49.78,1
96,50.8,1
83,52.66,1
134,55.59,1
152,60.11,1
112,66.08,1
108,72.4,1
85,78.22,1
136,83.48,1
114,88.6,1
101,93.4,1
138,97.7,1
78,101.51,1
149,104.71,1
42,107.14,1
136,108.5,1
99,109.37,1
106,110.05,1
110,110.42,1
92,110.5,1
70,109.93,1
129,108.86,1
92,107.91,1
136,107.33,1
41,106.69,1
97,105.3,1
41,103.05,1
73,100.04,1
45,96.38,1
144,92.96,1
34,90.31,1
34,87.36,1
32,83.36,1
39,78.71,1
52,73.93,1
38,69.36,1
91,65.4,1
51,62.46,1
58,60.23,1
50,58.34,1
81,56.94,1
82,56.42,1
140,57.31,1
38,59.38,1
54,61.22,1
120,62.79,1
94,65.1,1
98,68.04,1
127,71.46,1
108,75.48,1
96,79.66,1
90,83.43,1
112,86.74,1
100,89.8,1
164,93.09,1
92,96.79,1
83,99.97,1
127,102.27,1
142,104.6,1
138,107.43,1
137,110.6,1
140,113.91,1
105,116.97,1
170,119.73,1
97,122.34,1
78,123.94,1
112,124.09,1
111,123.54,1
113,122.73,1
66,121.4,1
106,119.3,1
64,116.59,1
88,113.36,1
34,109.44,1
68,104.71,1
32,99.34,1
61,93.59,1
34,87.7,1
32,81.67,1
38,75.53,1
37,69.57,1
46,64.06,1
52,59.24,1
31,55.12,1
69,51.68,1
113,49.67,1
56,49.38,1
115,50.31,1
72,52.3,1
75,54.82,1
69,57.33,1
67,59.65,1
70,61.7,1
116,63.88,1
91,66.66,1
105,69.88,1
86,73.21,1
112,76.54,1
92,79.85,1
121,83.16,1
109,86.58,1
149,90.34,1
127,94.61,1
90,98.79,1
99,102.07,1
159,104.88,1
60,107.48,1
138,109.37,1
129,111.02,1
104,112.74,1
93,113.87,1
121,114.38,1
92,114.52,1
63,113.89,1
67,112.03,1
70,109.14,1
101,105.89,1
35,102.46,1
33,98.18,1
45,92.92,1
54,87.33,1
36,81.76,1
39,76.2,1
33,70.69,1
90,65.78,1
55,62.07,1
52,59.28,1
32,56.78,1
132,55.05,1
58,54.81,1
67,55.41,1
44,55.98,1
98,56.66,1
135,58.37,1
127,61.8,1
115,66.5,1
131,71.89,1
102,77.55,1
83,82.73,1
91,86.91,1
176,90.85,1
71,95.08,1
127,98.83,1
113,102.03,1
119,104.98,1
104,107.52,1
93,109.37,1
55,110.03,1
109,109.49,1
128,108.78,1
116,108.61,1
73,108.47,1
144,108.13,1
43,107.65,1
78,106.28,1
37,103.7,1
73,100.2,1
88,96.47,1
129,93.57,1
116,92.07,1
133,91.95,1
82,92.65,1
50,92.98,1
53,92.12,1
33,90,1
46,86.81,1
37,82.88,1
56,78.61,1
35,74.31,1
135,70.73,1
59,68.66,1
48,67.3,1
47,65.72,1
121,64.51,1
117,64.79,1
119,66.75,1
36,69.25,1
139,71.58,1
78,74.22,1
68,76.76,1
82,78.61,1
105,80.21,1
70,81.76,1
111,83.17,1
92,84.67,1
156,86.72,1
131,89.81,1
174,94.05,1
94,98.89,1
112,103.21,1
90,106.46,1
126,108.87,1
115,110.88,1
196,113.3,1
112,116.49,1
105,119.39,1
35,120.63,1
96,119.85,1
66,117.73,1
94,114.91,1
32,111.35,1
69,106.86,1
74,101.94,1
89,97.38,1
35,93.06,1
36,88.34,1
36,83.03,1
39,77.48,1
32,71.92,1
38,66.49,1
58,61.55,1
135,58.13,1
44,56.65,1
60,55.98,1
63,55.5,1
87,55.55,1
53,56.14,1
51,56.74,1
138,57.74,1
87,59.99,1
112,63.2,1
73,66.7,1
107,70.18,1
113,73.79,1
120,77.83,1
125,82.26,1
192,87.52,1
98,93.62,1
84,99.06,1
84,102.83,1
143,105.57,1
139,108.36,1
163,111.71,1
117,115.36,1
138,118.74,1
110,121.55,1
130,123.7,1
127,125.35,1
138,126.78,1
100,127.84,1
196,128.82,1
48,129.78,1
127,129.69,1
94,128.62,1
86,126.88,1
42,123.94,1
116,120,1
60,115.8,1
36,111.05,1
35,105.18,1
32,98.41,1
33,91.13,1
46,83.79,1
130,77.55,1
92,73.51,1
52,71.02,1
47,68.79,1
54,66.47,1
57,64.27,1
50,62.28,1
51,60.43,1
104,59.13,1
76,58.95,1
150,60.19,1
41,62.57,1
64,64.75,1
106,66.55,1
119,68.96,1
81,72.01,1
128,75.32,1
94,78.89,1
117,82.57,1
107,86.22,1
216,90.64,1
148,96.65,1
128,103.29,1
75,108.88,1
120,112.84,1
63,115.25,1
87,116.05,1
76,115.43,1
95,113.92,1
83,111.9,1
70,109.42,1
119,106.75,1
128,104.78,1
33,103.2,1
99,101.02,1
42,98.29,1
67,95.05,1
71,91.5,1
59,88,1
44,84.37,1
118,81.01,1
101,78.92,1
68,77.91,1
65,77.07,1
74,76.13,1
107,75.54,1
30,75.22,1
53,74.32,1
99,73.13,1
45,72.25,1
91,71.5,1
88,71.17,1
84,71.46,1
65,71.96,1
136,72.85,1
50,74.31,1
53,75.35,1
132,76.03,1
140,77.79,1
166,81.3,1
49,85.57,1
202,89.82,1
105,94.69,1
101,99.48,1
115,103.33,1
158,106.88,1
85,110.3,1
111,112.89,1
136,114.79,1
139,116.75,1
127,118.85,1
88,120.49,1
64,120.79,1
91,119.6,1
102,117.63,1
171,116.09,1
56,115.21,1
119,114.06,1
84,112.54,1
78,110.7,1
54,108.08,1
108,104.97,1
32,101.64,1
109,98.08,1
33,94.48,1
33,90.36,1
33,85.35,1
32,79.83,1
44,74.17,1
39,68.74,1
37,63.67,1
92,59.39,1
51,56.42,1
44,54.26,1
108,52.86,1
87,52.89,1
124,54.49,1
118,57.63,1
139,62.19,1
95,67.64,1
103,73.11,1
83,78.01,1
142,82.55,1
123,87.31,1
121,92.24,1
99,96.76,1
152,100.89,1
116,104.97,1
140,108.93,1
133,112.7,1
99,116.01,1
114,118.38,1
198,120.61,1
85,123.22,1
120,125.17,1
127,126.26,1
81,126.68,1
80,125.89,1
119,124.11,1
92,122.06,1
83,119.66,1
115,116.98,1
65,114.21,1
33,110.64,1
83,106.06,1
55,101.2,1
140,96.91,1
29,93.45,1
36,89.67,1
76,85.32,1
51,81.18,1
50,77.23,1
47,73.33,1
48,69.53,1
36,65.83,1
101,62.67,1
54,60.6,1
62,59.25,1
71,58.32,1
60,57.87,1
90,57.92,1
75,58.64,1
42,59.57,1
100,60.45,1
45,61.49,1
88,62.54,1
101,63.92,1
104,66.1,1
137,69.23,1
165,73.79,1
106,79.51,1
112,85.26,1
90,90.28,1
90,94.28,1
116,97.39,1
124,100.23,1
115,103.02,1
204,106.33,1
120,110.62,1
97,114.69,1
119,117.58,1
135,119.78,1
130,121.78,1
87,123.26,1
97,123.64,1
89,122.92,1
32,120.87,1
139,117.75,1
78,114.7,1
111,111.95,1
40,108.98,1
34,105,1
33,99.7,1
69,93.8,1
45,88.01,1
33,82.3,1
54,76.62,1
76,71.56,1
76,67.67,1
44,64.72,1
36,62,1
73,59.45,1
68,57.6,1
48,56.41,1
81,55.66,1
74,55.59,1
86,56.29,1
38,57.3,1
92,58.27,1
121,59.91,1
123,62.92,1
112,67.06,1
113,71.78,1
105,76.63,1
120,81.44,1
155,86.52,1
168,92.44,1
91,98.67,1
127,104.09,1
100,108.45,1
142,112.05,1
136,115.38,1
92,118.28,1
59,119.73,1
158,119.93,1
32,119.49,1
119,118.04,1
49,115.7,1
62,112.42,1
74,108.27,1
31,103.55,1
62,98.19,1
41,92.51,1
73,86.94,1
58,81.86,1
41,77.2,1
34,72.55,1
32,67.8,1
33,63.05,1
112,59.08,1
33,56.5,1
29,54.38,1
68,52.28,1
72,50.91,1
69,50.5,1
97,51.05,1
56,52.4,1
68,53.98,1
82,55.65,1
80,57.66,1
82,59.94,1
132,62.79,1
98,66.53,1
114,70.8,1
33,74.68,1
151,77.89,1
98,81.32,1
111,85.02,1
136,88.78,1
142,93.03,1
102,97.49,1
132,101.61,1
128,105.45,1
92,108.85,1
81,111.09,1
144,112.42,1
104,113.62,1
98,114.5,1
87,114.59,1
86,113.84,1
42,112.01,1
54,108.8,1
66,104.57,1
47,99.84,1
47,94.67,1
89,89.52,1
42,84.85,1
33,80.22,1
51,75.37,1
51,70.74,1
33,66.42,1
52,62.34,1
74,58.92,1
33,56.3,1
64,54.13,1
65,52.55,1
58,51.69,1
77,51.45,1
81,51.98,1
53,53.08,1
91,54.44,1
42,55.96,1
111,57.63,1
121,60.15,1
140,64.13,1
66,68.86,1
84,73.13,1
133,76.98,1
121,81.24,1
128,85.94,1
139,90.91,1
51,95.46,1
175,99.2,1
115,103.02,1
136,106.98,1
102,110.49,1
169,113.71,1
45,116.41,1
110,117.67,1
31,117.21,1
122,115.44,1
106,113.44,1
82,111.6,1
30,109.01,1
79,105.29,1
73,101.16,1
95,97.32,1
67,93.92,1
104,90.98,1
35,88.3,1
51,85.22,1
56,81.67,1
67,78.18,1
33,74.8,1
55,71.31,1
95,68.28,1
105,66.59,1
62,66.12,1
62,65.97,1
125,66.25,1
50,67.25,1
61,68.15,1
48,68.4,1
83,68.32,1
56,68.24,1
122,68.53,1
148,70.17,1
89,73.25,1
96,76.65,1
156,80.3,1
146,84.97,1
126,90.44,1
120,95.87,1
86,100.56,1
208,104.93,1
113,109.85,1
116,114.49,1
132,118.18,1
115,121.17,1
118,123.41,1
170,125.34,1
89,127.18,1
99,128.08,1
135,128.03,1
55,127.27,1
59,125.02,1
42,120.98,1
144,116.31,1
55,112.09,1
75,107.91,1
49,103.28,1
38,98.11,1
69,92.56,1
48,87.15,1
35,81.82,1
32,76.31,1
43,70.8,1
49,65.65,1
34,61.02,1
59,56.93,1
35,53.49,1
68,50.73,1
164,49.71,1
53,50.95,1
62,52.94,1
51,54.59,1
134,56.5,1
68,59.26,1
111,62.53,1
102,66.18,1
135,70.46,1
96,75.24,1
103,79.93,1
100,84.16,1
114,88.05,1
109,91.7,1
107,95.06,1
83,97.83,1
115,99.92,1
95,101.58,1
116,102.96,1
83,103.99,1
110,104.59,1
101,104.93,1
106,105.17,1
126,105.5,1
101,106.06,1
66,106.24,1
114,105.74,1
75,104.92,1
35,103.32,1
54,100.36,1
35,96.29,1
76,91.68,1
65,87.24,1
49,83.1,1
87,79.27,1
33,75.85,1
36,72.33,1
42,68.48,1
40,64.62,1
46,60.95,1
36,57.53,1
61,54.52,1
47,52.12,1
74,50.45,1
154,50.38,1
80,52.44,1
74,55.45,1
92,58.55,1
40,61.42,1
91,63.76,1
61,65.76,1
121,67.86,1
130,70.78,1
124,74.81,1
161,79.83,1
174,86.09,1
144,93.37,1
136,100.74,1
107,107.33,1
122,112.7,1
102,116.81,1
118,119.75,1
120,121.82,1
148,123.55,1
64,124.75,1
125,124.87,1
89,124.18,1
140,123.22,1
38,121.78,1
158,119.78,1
81,117.89,1
50,115.62,1
38,111.92,1
55,106.93,1
51,101.26,1
125,95.94,1
66,91.76,1
60,88.16,1
33,84.33,1
38,80.01,1
48,75.39,1
48,70.9,1
31,66.6,1
35,62.34,1
35,58.17,1
36,54.25,1
56,50.82,1
31,48.01,1
86,45.97,1
92,45.32,1
73,46.13,1
119,48.16,1
92,51.4,1
86,55.37,1
125,59.75,1
92,64.63,1
108,69.63,1
108,74.56,1
105,79.38,1
48,83.44,1
111,86.36,1
117,88.92,1
62,91.29,1
135,93.18,1
129,95.34,1
43,97.43,1
137,98.71,1
159,100.35,1
97,102.82,1
68,104.78,1
100,105.58,1
61,105.43,1
132,104.76,1
101,104.31,1
109,104.18,1
67,103.83,1
86,102.86,1
68,101.27,1
37,98.87,1
73,95.58,1
78,92.08,1
41,88.62,1
61,84.9,1
63,81.14,1
48,77.55,1
30,73.83,1
34,69.75,1
40,65.5,1
38,61.37,1
38,57.48,1
52,53.99,1
88,51.45,1
40,50.02,1
128,49.71,1
99,51.06,1
122,54.08,1
75,58.02,1
105,62.19,1
117,66.62,1
111,71.48,1
82,76.29,1
131,80.76,1
92,85.09,1
99,88.99,1
82,92.09,1
127,94.63,1
118,97.17,1
108,99.78,1
144,102.4,1
83,104.97,1
105,106.88,1
99,108.05,1
123,108.89,1
144,109.97,1
86,111.25,1
138,112.3,1
127,113.42,1
126,114.8,1
70,115.77,1
71,115.48,1
75,113.84,1
102,111.51,1
59,108.86,1
80,105.74,1
55,102.15,1
40,97.97,1
48,93.08,1
43,87.79,1
83,82.67,1
54,78.22,1
56,74.29,1
48,70.62,1
45,67.13,1
33,63.68,1
231,61.77,1
52,62.73,1
36,64.45,1
50,65.08,1
111,65.45,1
34,66.09,1
80,66.53,1
80,66.93,1
122,68.01,1
127,70.28,1
120,73.75,1
112,77.89,1
117,82.26,1
48,86.12,1
121,88.97,1
118,91.57,1
68,94.03,1
57,95.37,1
92,95.52,1
124,95.49,1
118,96.09,1
120,97.32,1
125,99.02,1
42,100.45,1
124,100.97,1
106,101.31,1
135,102.1,1
96,103.22,1
100,104.18,1
48,104.33,1
75,103.25,1
100,101.5,1
94,99.86,1
31,97.95,1
38,94.9,1
61,90.86,1
54,86.56,1
35,82.13,1
40,77.42,1
34,72.53,1
32,67.58,1
73,63,1
72,59.5,1
60,57.15,1
60,55.56,1
42,54.34,1
60,53.3,1
68,52.65,1
35,52.32,1
103,52.32,1
81,53.24,1
94,55.13,1
49,57.35,1
78,59.38,1
90,61.39,1
128,64.07,1
131,67.89,1
146,72.96,1
178,79.34,1
38,86.01,1
127,91.39,1
132,95.97,1
94,100.28,1
104,103.74,1
105,106.32,1
90,108.1,1
87,108.97,1
136,109.35,1
90,109.72,1
100,109.83,1
105,109.54,1
79,108.93,1
53,107.49,1
81,105.05,1
121,102.51,1
90,100.61,1
34,98.6,1
39,95.47,1
42,91.22,1
36,86.3,1
34,80.96,1
33,75.36,1
33,69.74,1
56,64.44,1
36,59.78,1
30,55.57,1
88,52.05,1
34,49.63,1
89,48.16,1
62,47.71,1
90,48.27,1
33,49.37,1
98,50.66,1
86,52.57,1
46,54.88,1
130,57.35,1
119,60.83,1
112,65.4,1
139,70.68,1
70,76.15,1
121,81.08,1
32,85,1
117,87.68,1
100,89.84,1
150,92.36,1
104,95.37,1
126,98.5,1
65,101.1,1
111,102.78,1
93,103.81,1
111,104.53,1
58,104.71,1
100,104.11,1
57,102.82,1
118,101.2,1
88,99.77,1
135,98.92,1
56,98.43,1
80,97.51,1
65,95.92,1
70,93.87,1
42,91.26,1
46,87.93,1
32,83.89,1
46,79.34,1
36,74.6,1
80,70.18,1
46,66.49,1
38,63.23,1
39,60,1
82,57.2,1
72,55.44,1
40,54.45,1
85,53.86,1
82,54.03,1
86,55.13,1
83,56.91,1
87,59.17,1
80,61.71,1
71,64.23,1
108,66.73,1
114,69.73,1
53,72.91,1
140,75.89,1
89,79.12,1
142,82.75,1
97,86.64,1
137,90.64,1
102,94.58,1
166,98.63,1
116,102.97,1
133,107.25,1
62,110.63,1
152,112.94,1
117,114.94,1
150,117.09,1
42,118.65,1
133,118.97,1
46,118.22,1
85,116.32,1
60,113.34,1
112,109.96,1
61,106.61,1
40,102.83,1
62,98.25,1
67,93.44,1
86,89.04,1
84,85.41,1
31,82.19,1
32,78.51,1
83,74.61,1
52,71.24,1
44,68.23,1
55,65.31,1
125,63.22,1
92,62.81,1
77,63.58,1
40,64.43,1
110,65.15,1
38,66,1
104,66.87,1
103,68.18,1
118,70.45,1
72,73.22,1
135,76.18,1
137,79.85,1
217,85.14,1
92,91.78,1
83,97.79,1
128,102.33,1
121,106.19,1
138,109.82,1
118,113.19,1
88,115.84,1
103,117.31,1
116,117.96,1
151,118.56,1
101,119.39,1
154,120.25,1
91,121.07,1
116,121.43,1
125,121.4,1
136,121.51,1
61,121.36,1
98,120.2,1
55,117.94,1
30,114.32,1
64,109.31,1
76,103.83,1
87,98.75,1
33,93.97,1
65,89.04,1
58,84.2,1
37,79.54,1
32,74.73,1
34,69.73,1
32,64.73,1
39,59.93,1
36,55.52,1
82,51.92,1
100,49.93,1
102,49.91,1
68,51.3,1
94,53.38,1
51,55.74,1
116,58.25,1
82,61.24,1
127,64.83,1
49,68.59,1
117,72,1
215,76.31,1
116,82.5,1
102,88.99,1
127,94.68,1
120,99.8,1
100,104.26,1
104,107.7,1
112,110.24,1
103,112.1,1
103,113.29,1
98,113.82,1
124,113.96,1
83,113.85,1
142,113.58,1
79,113.3,1
94,112.61,1
86,111.29,1
101,109.65,1
59,107.65,1
112,105.32,1
62,102.93,1
55,100.12,1
34,96.41,1
68,91.99,1
36,87.32,1
37,82.35,1
37,77.09,1
41,71.81,1
34,66.7,1
65,62.05,1
56,58.28,1
54,55.39,1
113,53.64,1
52,53.26,1
99,53.81,1
108,55.39,1
118,58.31,1
98,62.23,1
121,66.73,1
101,71.57,1
81,76.22,1
102,80.24,1
124,84.03,1
149,88.24,1
148,93.2,1
109,98.46,1
118,103.2,1
189,107.8,1
104,112.67,1
108,116.82,1
166,120.14,1
129,123.38,1
151,126.52,1
110,129.19,1
102,130.87,1
59,130.93,1
106,129.36,1
126,127.18,1
72,124.89,1
92,122.02,1
85,118.64,1
98,115.14,1
87,111.71,1
53,108.12,1
68,103.99,1
33,99.26,1
39,93.84,1
34,87.83,1
32,81.54,1
35,75.17,1
38,69.02,1
39,63.3,1
31,58.09,1
57,53.51,1
52,49.88,1
54,47.25,1
81,45.66,1
104,45.57,1
90,47.09,1
103,49.87,1
96,53.55,1
79,57.65,1
108,61.85,1
100,66.24,1
102,70.77,1
101,75.21,1
63,79.12,1
134,82.47,1
128,86.07,1
99,89.99,1
127,93.73,1
127,97.43,1
148,101.38,1
31,104.79,1
106,106.55,1
108,107.28,1
86,107.66,1
98,107.53,1
92,106.97,1
90,106.09,1
153,105.43,1
73,105.31,1
109,105.11,1
118,104.86,1
60,104.56,1
68,103.42,1
84,101.46,1
81,99.25,1
78,96.97,1
45,94.37,1
35,90.97,1
35,86.65,1
31,81.64,1
37,76.26,1
34,70.81,1
32,65.48,1
36,60.37,1
31,55.61,1
33,51.25,1
31,47.3,1
30,43.77,1
33,40.66,1
31,38.01,1
31,35.77,1
33,33.93,1
32,32.47,1
41,31.43,1
32,30.8,1
44,30.53,1
30,30.55,1
39,30.74,1
31,31.01,1
39,31.34,1
29,31.7,1
41,32.07,1
30,32.45,1
38,32.81,1
31,33.14,1
38,33.43,1
31,33.69,1
36,33.89,1
32,34.05,1
37,34.17,1
32,34.27,1
36,34.35,1
32,34.4,1
38,34.44,1
33,34.5,1
37,34.56,1
33,34.63,1
34,34.67,1
33,34.66,1
35,34.62,1
33,34.57,1
35,34.52,1
33,34.46,1
34,34.39,1
34,34.32,1
34,34.25,1
34,34.2,1
35,34.15,1
34,34.13,1
36,34.14,1
36,34.18,1
34,34.26,1
33,34.32,1
34,34.34,1
34,34.34,1
35,34.33,1
36,34.35,1
33,34.38,1
34,34.39,1
36,34.4,1
35,34.43,1
35,34.48,1
36,34.55,1
34,34.62,1
34,34.67,1
34,34.69,1
35,34.68,1
32,34.66,1
35,34.61,1
33,34.54,1
35,34.46,1
35,34.41,1
35,34.39,1
34,34.39,1
35,34.39,1
34,34.39,1
37,34.41,1
37,34.49,1
35,34.61,1
34,34.73,1
36,34.82,1
34,34.89,1
34,34.93,1
34,34.94,1
35,34.92,1
33,34.88,1
34,34.81,1
34,34.73,1
35,34.65,1
34,34.58,1
34,34.52,1
34,34.46,1
34,34.4,1
33,34.33,1
35,34.26,1
34,34.2,1
35,34.17,1
34,34.16,1
34,34.15,1
34,34.14,1
35,34.13,1
34,34.14,1
36,34.17,1
35,34.22,1
34,34.29,1
34,34.34,1
34,34.37,1
32,34.36,1
34,34.31,1
35,34.25,1
34,34.22,1
35,34.2,1
34,34.2,1
35,34.21,1
34,34.22,1
36,34.25,1
34,34.29,1
34,34.34,1
34,34.36,1
35,34.37,1
32,34.37,1
34,34.33,1
34,34.27,1
34,34.22,1
33,34.17,1
34,34.1,1
34,34.04,1
35,34,1
34,33.99,1
35,34,1
33,34.01,1
35,34.02,1
34,34.04,1
34,34.05,1
34,34.07,1
35,34.08,1
33,34.1,1
35,34.11,1
35,34.13,1
34,34.16,1
35,34.2,1
34,34.24,1
34,34.27,1
35,34.29,1
34,34.32,1
34,34.33,1
34,34.33,1
33,34.31,1
34,34.27,1
34,34.23,1
34,34.18,1
34,34.14,1
35,34.12,1
34,34.11,1
33,34.1,1
34,34.07,1
35,34.05,1
34,34.05,1
34,34.05,1
35,34.06,1
34,34.08,1
34,34.11,1
35,34.13,1
33,34.15,1
35,34.16,1
34,34.17,1
33,34.17,1
34,34.15,1
34,34.12,1
34,34.1,1
36,34.09,1
34,34.12,1
36,34.16,1
33,34.22,1
34,34.26,1
34,34.27,1
35,34.27,1
34,34.29,1
35,34.3,1
34,34.32,1
35,34.34,1
34,34.36,1
35,34.38,1
34,34.4,1
34,34.41,1
35,34.41,1
35,34.43,1
35,34.45,1
34,34.49,1
35,34.51,1
33,34.52,1
35,34.51,1
34,34.5,1
35,34.48,1
34,34.48,1
35,34.47,1
34,34.47,1
35,34.47,1
34,34.47,1
36,34.47,1
35,34.51,1
35,34.56,1
34,34.6,1
37,34.65,1
33,34.7,1
35,34.74,1
33,34.74,1
36,34.72,1
34,34.72,1
35,34.71,1
34,34.7,1
35,34.68,1
34,34.67,1
35,34.65,1
34,34.63,1
36,34.62,1
34,34.62,1
35,34.63,1
34,34.63,1
35,34.63,1
34,34.62,1
35,34.61,1
34,34.6,1
34,34.58,1
32,34.53,1
35,34.45,1
36,34.39,1
34,34.38,1
36,34.38,1
34,34.41,1
35,34.44,1
34,34.46,1
37,34.5,1
34,34.56,1
35,34.62,1
33,34.66,1
34,34.65,1
34,34.62,1
36,34.59,1
33,34.58,1
38,34.58,1
33,34.61,1
36,34.64,1
33,34.67,1
36,34.68,1
33,34.68,1
37,34.69,1
32,34.69,1
37,34.69,1
32,34.68,1
36,34.66,1
33,34.63,1
37,34.62,1
33,34.62,1
37,34.63,1
33,34.65,1
35,34.66,1
33,34.65,1
33,34.6,1
33,34.51,1
36,34.42,1
35,34.37,1
35,34.36,1
34,34.36,1
35,34.37,1
35,34.39,1
33,34.41,1
35,34.41,1
34,34.4,1
35,34.4,1
33,34.4,1
35,34.38,1
33,34.36,1
36,34.33,1
32,34.31,1
36,34.29,1
32,34.26,1
37,34.24,1
33,34.24,1
34,34.24,1
32,34.2,1
37,34.17,1
32,34.15,1
36,34.14,1
32,34.12,1
38,34.13,1
32,34.16,1
37,34.2,1
34,34.26,1
38,34.35,1
32,34.46,1
35,34.53,1
32,34.56,1
36,34.55,1
33,34.53,1
39,34.55,1
34,34.61,1
35,34.69,1
33,34.73,1
35,34.74,1
33,34.73,1
33,34.67,1
33,34.58,1
35,34.47,1
34,34.38,1
37,34.34,1
33,34.33,1
37,34.35,1
34,34.39,1
34,34.43,1
34,34.45,1
34,34.45,1
34,34.44,1
35,34.42,1
35,34.42,1
33,34.42,1
34,34.4,1
33,34.35,1
35,34.3,1
34,34.26,1
34,34.22,1
34,34.19,1
34,34.16,1
34,34.13,1
34,34.1,1
34,34.08,1
34,34.06,1
33,34.04,1
34,34,1
34,33.96,1
36,33.95,1
34,33.98,1
35,34.02,1
33,34.07,1
35,34.09,1
34,34.12,1
35,34.16,1
35,34.2,1
34,34.25,1
34,34.29,1
35,34.32,1
34,34.35,1
35,34.37,1
34,34.4,1
34,34.41,1
34,34.41,1
35,34.4,1
33,34.39,1
34,34.36,1
34,34.32,1
35,34.28,1
34,34.27,1
35,34.26,1
34,34.26,1
36,34.28,1
35,34.32,1
35,34.39,1
36,34.47,1
33,34.54,1
32,34.57,1
34,34.53,1
34,34.46,1
34,34.4,1
34,34.33,1
31,34.25,1
35,34.14,1
34,34.04,1
35,33.98,1
34,33.96,1
34,33.94,1
32,33.92,1
35,33.88,1
34,33.85,1
35,33.85,1
34,33.88,1
35,33.91,1
33,33.95,1
35,33.98,1
34,34.02,1
35,34.06,1
34,34.1,1
34,34.14,1
34,34.17,1
34,34.18,1
34,34.19,1
34,34.18,1
34,34.18,1
36,34.18,1
34,34.21,1
34,34.24,1
34,34.26,1
35,34.27,1
34,34.29,1
35,34.31,1
34,34.33,1
35,34.35,1
34,34.37,1
32,34.37,1
34,34.32,1
35,34.27,1
34,34.23,1
34,34.21,1
34,34.18,1
34,34.15,1
34,34.13,1
34,34.11,1
34,34.09,1
34,34.07,1
34,34.05,1
36,34.05,1
35,34.09,1
34,34.15,1
37,34.23,1
34,34.32,1
34,34.41,1
34,34.47,1
35,34.5,1
34,34.53,1
36,34.55,1
33,34.58,1
35,34.59,1
33,34.58,1
36,34.56,1
33,34.54,1
36,34.53,1
34,34.52,1
35,34.53,1
34,34.53,1
35,34.53,1
34,34.53,1
35,34.53,1
34,34.53,1
34,34.52,1
34,34.49,1
36,34.47,1
33,34.47,1
34,34.45,1
34,34.41,1
35,34.38,1
34,34.36,1
35,34.34,1
34,34.34,1
35,34.34,1
34,34.35,1
35,34.36,1
34,34.37,1
34,34.38,1
34,34.37,1
34,34.35,1
34,34.33,1
34,34.3,1
34,34.26,1
34,34.23,1
34,34.2,1
31,34.14,1
35,34.05,1
34,33.98,1
33,33.92,1
34,33.86,1
35,33.82,1
36,33.83,1
31,33.86,1
34,33.85,1
34,33.83,1
33,33.81,1
34,33.78,1
36,33.78,1
35,33.82,1
34,33.89,1
35,33.97,1
34,34.04,1
34,34.1,1
34,34.15,1
35,34.19,1
34,34.23,1
36,34.27,1
35,34.34,1
34,34.41,1
34,34.46,1
35,34.49,1
34,34.52,1
35,34.54,1
34,34.55,1
36,34.56,1
36,34.61,1
35,34.68,1
34,34.74,1
33,34.76,1
33,34.73,1
36,34.68,1
34,34.64,1
35,34.61,1
36,34.6,1
34,34.62,1
34,34.63,1
36,34.63,1
34,34.64,1
32,34.63,1
34,34.57,1
35,34.5,1
34,34.44,1
35,34.4,1
35,34.38,1
37,34.4,1
33,34.45,1
35,34.5,1
34,34.52,1
34,34.53,1
34,34.52,1
35,34.5,1
34,34.49,1
35,34.48,1
34,34.47,1
35,34.47,1
34,34.47,1
36,34.47,1
34,34.5,1
34,34.52,1
34,34.51,1
36,34.51,1
34,34.52,1
36,34.55,1
35,34.59,1
34,34.64,1
34,34.66,1
35,34.66,1
35,34.67,1
34,34.68,1
35,34.68,1
33,34.66,1
35,34.63,1
34,34.59,1
34,34.55,1
34,34.5,1
34,34.45,1
34,34.4,1
34,34.34,1
34,34.29,1
35,34.25,1
35,34.23,1
34,34.24,1
34,34.24,1
36,34.25,1
34,34.29,1
34,34.32,1
34,34.33,1
34,34.33,1
35,34.33,1
34,34.33,1
35,34.34,1
34,34.35,1
36,34.37,1
36,34.43,1
35,34.51,1
34,34.59,1
34,34.64,1
33,34.65,1
34,34.62,1
34,34.57,1
34,34.51,1
36,34.46,1
34,34.45,1
34,34.44,1
34,34.41,1
34,34.38,1
35,34.36,1
35,34.35,1
35,34.36,1
34,34.39,1
34,34.4,1
34,34.4,1
35,34.39,1
34,34.39,1
36,34.4,1
35,34.44,1
35,34.49,1
34,34.54,1
35,34.58,1
35,34.61,1
34,34.64,1
34,34.65,1
35,34.64,1
34,34.63,1
34,34.62,1
36,34.6,1
34,34.6,1
34,34.59,1
36,34.59,1
34,34.6,1
34,34.6,1
34,34.58,1
35,34.56,1
34,34.54,1
35,34.52,1
35,34.52,1
34,34.52,1
35,34.52,1
34,34.52,1
35,34.52,1
34,34.52,1
34,34.51,1
34,34.49,1
34,34.46,1
34,34.41,1
35,34.38,1
34,34.35,1
36,34.35,1
34,34.37,1
33,34.38,1
36,34.37,1
35,34.39,1
34,34.42,1
37,34.46,1
35,34.54,1
35,34.63,1
33,34.69,1
34,34.71,1
34,34.69,1
36,34.67,1
34,34.67,1
36,34.67,1
33,34.68,1
33,34.66,1
34,34.59,1
34,34.52,1
34,34.44,1
34,34.37,1
34,34.3,1
35,34.25,1
34,34.22,1
35,34.21,1
34,34.2,1
34,34.2,1
34,34.2,1
34,34.19,1
34,34.17,1
34,34.15,1
35,34.14,1
34,34.15,1
35,34.16,1
34,34.18,1
34,34.2,1
34,34.21,1
35,34.22,1
36,34.25,1
34,34.31,1
34,34.35,1
33,34.37,1
34,34.36,1
35,34.33,1
34,34.32,1
36,34.33,1
34,34.35,1
35,34.38,1
34,34.41,1
34,34.43,1
33,34.42,1
34,34.38,1
34,34.33,1
34,34.28,1
34,34.24,1
35,34.2,1
34,34.19,1
35,34.18,1
35,34.2,1
36,34.25,1
34,34.32,1
36,34.39,1
33,34.46,1
35,34.5,1
34,34.53,1
34,34.54,1
34,34.53,1
35,34.52,1
35,34.51,1
34,34.51,1
35,34.52,1
34,34.52,1
34,34.51,1
33,34.48,1
35,34.43,1
33,34.38,1
33,34.32,1
34,34.23,1
36,34.17,1
34,34.14,1
35,34.15,1
34,34.16,1
34,34.17,1
34,34.18,1
35,34.18,1
35,34.21,1
35,34.25,1
35,34.31,1
34,34.37,1
34,34.41,1
34,34.42,1
34,34.42,1
35,34.42,1
35,34.42,1
35,34.45,1
34,34.47,1
34,34.49,1
34,34.48,1
36,34.48,1
34,34.49,1
34,34.51,1
34,34.5,1
35,34.48,1
34,34.47,1
36,34.47,1
34,34.49,1
34,34.51,1
34,34.5,1
34,34.48,1
34,34.45,1
34,34.41,1
34,34.37,1
34,34.32,1
34,34.28,1
35,34.24,1
34,34.23,1
35,34.22,1
33,34.22,1
34,34.2,1
34,34.17,1
34,34.15,1
34,34.12,1
35,34.11,1
32,34.09,1
34,34.05,1
35,34.01,1
34,34,1
34,34,1
34,33.99,1
35,34,1
34,34.02,1
35,34.05,1
36,34.11,1
34,34.19,1
34,34.26,1
35,34.31,1
34,34.36,1
37,34.42,1
30,34.46,1
34,34.44,1
34,34.38,1
35,34.33,1
34,34.29,1
34,34.26,1
34,34.23,1
35,34.21,1
34,34.21,1
34,34.2,1
34,34.19,1
36,34.19,1
36,34.24,1
34,34.31,1
34,34.38,1
34,34.41,1
36,34.44,1
34,34.48,1
35,34.52,1
34,34.55,1
36,34.58,1
30,34.59,1
35,34.53,1
34,34.45,1
35,34.39,1
34,34.35,1
36,34.34,1
33,34.34,1
34,34.32,1
34,34.3,1
35,34.28,1
34,34.27,1
35,34.27,1
34,34.27,1
35,34.29,1
34,34.3,1
35,34.32,1
34,34.34,1
34,34.36,1
35,34.36,1
35,34.38,1
34,34.41,1
34,34.42,1
34,34.42,1
35,34.41,1
34,34.41,1
34,34.4,1
35,34.39,1
32,34.37,1
35,34.32,1
34,34.28,1
35,34.25,1
33,34.23,1
33,34.19,1
35,34.14,1
35,34.11,1
34,34.11,1
35,34.12,1
35,34.15,1
35,34.2,1
33,34.25,1
35,34.28,1
34,34.3,1
36,34.33,1
33,34.37,1
35,34.39,1
35,34.41,1
36,34.46,1
35,34.52,1
36,34.61,1
34,34.69,1
36,34.77,1
34,34.83,1
35,34.88,1
33,34.89,1
35,34.87,1
34,34.84,1
36,34.81,1
34,34.8,1
35,34.78,1
34,34.76,1
34,34.73,1
36,34.7,1
35,34.69,1
34,34.7,1
33,34.68,1
34,34.63,1
34,34.56,1
35,34.5,1
35,34.46,1
32,34.42,1
33,34.35,1
35,34.26,1
35,34.19,1
35,34.17,1
33,34.17,1
35,34.16,1
35,34.16,1
36,34.2,1
33,34.25,1
37,34.31,1
32,34.37,1
36,34.41,1
32,34.43,1
38,34.45,1
32,34.48,1
37,34.51,1
32,34.53,1
37,34.55,1
32,34.56,1
38,34.58,1
32,34.6,1
38,34.63,1
32,34.67,1
38,34.71,1
32,34.75,1
38,34.78,1
33,34.83,1
36,34.87,1
34,34.89,1
35,34.91,1
33,34.9,1
36,34.87,1
33,34.84,1
35,34.79,1
34,34.74,1
35,34.69,1
34,34.65,1
34,34.6,1
34,34.55,1
34,34.49,1
35,34.44,1
29,34.36,1
36,34.23,1
32,34.1,1
35,33.99,1
32,33.89,1
37,33.82,1
32,33.79,1
37,33.78,1
31,33.8,1
39,33.83,1
33,33.91,1
37,34.02,1
32,34.13,1
40,34.25,1
30,34.38,1
39,34.49,1
32,34.6,1
39,34.7,1
31,34.8,1
39,34.89,1
32,34.96,1
39,35.03,1
32,35.11,1
40,35.18,1
32,35.27,1
39,35.35,1
32,35.41,1
40,35.47,1
33,35.54,1
36,35.6,1
33,35.6,1
36,35.57,1
33,35.51,1
36,35.43,1
33,35.34,1
37,35.26,1
34,35.19,1
35,35.13,1
35,35.08,1
34,35.02,1
35,34.97,1
33,34.9,1
36,34.83,1
33,34.76,1
36,34.7,1
32,34.64,1
37,34.58,1
32,34.54,1
37,34.5,1
30,34.46,1
39,34.41,1
34,34.41,1
41,34.49,1
33,34.64,1
39,34.82,1
31,34.98,1
40,35.1,1
30,35.21,1
43,35.3,1
31,35.42,1
41,35.55,1
31,35.66,1
42,35.76,1
31,35.87,1
42,35.97,1
31,36.06,1
42,36.14,1
28,36.2,1
43,36.2,1
31,36.21,1
42,36.24,1
31,36.26,1
42,36.29,1
31,36.32,1
38,36.31,1
32,36.26,1
38,36.18,1
32,36.08,1
40,35.98,1
33,35.92,1
35,35.84,1
35,35.75,1
35,35.65,1
35,35.55,1
33,35.45,1
37,35.33,1
32,35.23,1
37,35.12,1
32,35.03,1
40,34.96,1
30,34.92,1
40,34.9,1
31,34.89,1
45,34.95,1
30,35.08,1
45,35.26,1
30,35.47,1
47,35.71,1
32,36.01,1
47,36.34,1
31,36.69,1
49,37.05,1
31,37.42,1
50,37.79,1
32,38.17,1
50,38.55,1
32,38.92,1
52,39.29,1
32,39.66,1
49,39.99,1
31,40.25,1
51,40.45,1
33,40.65,1
50,40.83,1
31,40.97,1
50,41.07,1
30,41.11,1
48,41.09,1
31,41.02,1
41,40.86,1
30,40.57,1
43,40.2,1
31,39.81,1
41,39.4,1
33,39,1
34,38.57,1
36,38.1,1
36,37.66,1
35,37.26,1
30,36.85,1
46,36.49,1
33,36.28,1
51,36.27,1
35,36.47,1
51,36.83,1
35,37.3,1
58,37.91,1
47,38.75,1
69,39.92,1
52,41.44,1
70,43.23,1
59,45.23,1
71,47.38,1
56,49.57,1
84,51.8,1
60,54.12,1
85,56.47,1
57,58.77,1
83,60.89,1
59,62.83,1
83,64.57,1
56,66.07,1
91,67.4,1
53,68.58,1
83,69.53,1
54,70.21,1
88,70.72,1
47,71.05,1
70,71.05,1
43,70.6,1
73,69.83,1
46,68.88,1
65,67.79,1
37,66.49,1
56,64.92,1
31,63.07,1
45,60.94,1
32,58.58,1
32,56.02,1
41,53.37,1
31,50.79,1
52,48.43,1
35,46.45,1
55,44.86,1
49,43.77,1
66,43.3,1
57,43.46,1
90,44.37,1
66,46.08,1
82,48.35,1
71,50.96,1
76,53.72,1
71,56.47,1
84,59.19,1
87,61.98,1
105,65.04,1
87,68.38,1
104,71.81,1
97,75.28,1
117,78.85,1
84,82.38,1
132,85.78,1
95,89.18,1
127,92.52,1
79,95.53,1
126,98.06,1
82,100.16,1
113,101.78,1
71,102.78,1
98,103.07,1
76,102.73,1
102,101.99,1
70,100.96,1
78,99.49,1
59,97.45,1
95,95.1,1
50,92.64,1
70,89.92,1
35,86.74,1
48,83.03,1
34,78.85,1
44,74.4,1
34,69.85,1
40,65.36,1
57,61.2,1
35,57.58,1
63,54.49,1
74,52.28,1
78,51.24,1
48,51.05,1
95,51.42,1
70,52.54,1
85,54.29,1
85,56.49,1
107,59.28,1
88,62.63,1
116,66.38,1
104,70.53,1
120,75.01,1
106,79.64,1
123,84.27,1
101,88.75,1
134,93,1
115,97.15,1
124,101.12,1
93,104.57,1
133,107.39,1
101,109.79,1
118,111.73,1
110,113.21,1
112,114.31,1
94,114.91,1
104,114.92,1
95,114.42,1
109,113.59,1
79,112.45,1
87,110.81,1
64,108.53,1
86,105.71,1
35,102.33,1
70,98.26,1
53,93.83,1
48,89.21,1
31,84.26,1
38,78.95,1
52,73.63,1
30,68.58,1
69,63.98,1
54,60.2,1
83,57.47,1
49,55.72,1
79,54.68,1
62,54.29,1
87,54.6,1
83,55.64,1
96,57.47,1
76,59.84,1
98,62.52,1
95,65.5,1
127,69.02,1
95,73.07,1
143,77.51,1
90,82.2,1
130,86.79,1
116,91.24,1
151,95.84,1
126,100.65,1
117,105.27,1
105,109.14,1
134,112.29,1
118,115.03,1
117,117.34,1
96,118.92,1
109,119.66,1
92,119.63,1
100,118.91,1
76,117.49,1
116,115.57,1
77,113.48,1
98,111.2,1
61,108.55,1
74,105.4,1
52,101.69,1
68,97.56,1
63,93.29,1
61,89.06,1
31,84.71,1
47,80.02,1
34,75.14,1
32,70.18,1
39,65.23,1
60,60.72,1
64,57.12,1
58,54.52,1
69,52.79,1
52,51.78,1
75,51.34,1
81,51.63,1
91,52.85,1
83,54.86,1
92,57.45,1
88,60.44,1
109,63.82,1
111,67.71,1
110,72.05,1
106,76.57,1
117,81.1,1
106,85.53,1
127,89.83,1
107,93.99,1
118,97.83,1
120,101.33,1
106,104.48,1
112,107.09,1
109,109.17,1
99,110.69,1
94,111.5,1
81,111.49,1
101,110.76,1
80,109.56,1
98,107.99,1
72,106.12,1
88,103.93,1
57,101.35,1
58,98.22,1
46,94.41,1
52,90.08,1
38,85.39,1
38,80.38,1
33,75.15,1
33,69.84,1
34,64.61,1
31,59.59,1
32,54.87,1
35,50.55,1
44,46.8,1
38,43.73,1
44,41.31,1
43,39.49,1
46,38.25,1
44,37.52,1
51,37.25,1
36,37.31,1
58,37.61,1
46,38.23,1
57,39.14,1
51,40.28,1
60,41.62,1
43,43.02,1
54,44.32,1
43,45.44,1
53,46.39,1
38,47.12,1
54,47.64,1
35,47.95,1
58,48.11,1
33,48.17,1
48,48.04,1
31,47.68,1
46,47.12,1
34,46.44,1
43,45.69,1
33,44.88,1
42,44.03,1
30,43.14,1
42,42.24,1
32,41.36,1
37,40.51,1
30,39.65,1
38,38.8,1
31,38.01,1
36,37.28,1
37,36.64,1
34,36.14,1
33,35.7,1
32,35.28,1
32,34.86,1
32,34.45,1
35,34.08,1
30,33.76,1
37,33.5,1
32,33.31,1
37,33.21,1
32,33.17,1
40,33.21,1
30,33.32,1
40,33.45,1
30,33.6,1
41,33.77,1
30,33.96,1
41,34.15,1
31,34.35,1
41,34.55,1
30,34.75,1
40,34.91,1
30,35.04,1
42,35.15,1
31,35.28,1
41,35.4,1
32,35.52,1
43,35.66,1
30,35.81,1
40,35.93,1
31,35.99,1
40,36.02,1
31,36.03,1
40,36.02,1
31,35.99,1
39,35.95,1
32,35.9,1
39,35.84,1
31,35.78,1
37,35.69,1
32,35.58,1
35,35.44,1
33,35.28,1
35,35.11,1
34,34.96,1
35,34.83,1
34,34.72,1
33,34.61,1
34,34.49,1
33,34.37,1
36,34.27,1
32,34.19,1
38,34.13,1
31,34.11,1
38,34.11,1
32,34.13,1
39,34.18,1
31,34.26,1
39,34.34,1
31,34.42,1
41,34.52,1
31,34.64,1
41,34.78,1
31,34.92,1
42,35.08,1
30,35.23,1
42,35.37,1
30,35.5,1
40,35.6,1
30,35.66,1
42,35.69,1
31,35.74,1
42,35.8,1
31,35.87,1
41,35.93,1
31,35.98,1
40,36.02,1
31,36.02,1
41,36.02,1
31,36.02,1
38,35.99,1
33,35.94,1
37,35.87,1
32,35.79,1
36,35.67,1
33,35.54,1
35,35.4,1
33,35.24,1
33,35.07,1
35,34.88,1
34,34.72,1
37,34.61,1
32,34.54,1
39,34.49,1
31,34.49,1
38,34.49,1
31,34.49,1
40,34.51,1
31,34.56,1
41,34.63,1
30,34.73,1
44,34.85,1
31,35.02,1
44,35.23,1
30,35.45,1
44,35.68,1
31,35.9,1
46,36.13,1
30,36.38,1
46,36.63,1
30,36.85,1
46,37.07,1
30,37.26,1
46,37.43,1
30,37.58,1
45,37.7,1
29,37.77,1
47,37.82,1
30,37.87,1
43,37.9,1
30,37.87,1
40,37.79,1
34,37.66,1
40,37.54,1
32,37.42,1
43,37.31,1
32,37.22,1
35,37.11,1
34,36.92,1
33,36.67,1
35,36.4,1
33,36.11,1
37,35.83,1
32,35.59,1
41,35.4,1
30,35.28,1
40,35.18,1
31,35.11,1
42,35.09,1
30,35.11,1
45,35.17,1
31,35.31,1
46,35.51,1
32,35.77,1
51,36.11,1
31,36.53,1
52,37.01,1
36,37.56,1
54,38.21,1
34,38.91,1
53,39.59,1
34,40.24,1
51,40.83,1
36,41.35,1
57,41.86,1
35,42.39,1
53,42.88,1
32,43.27,1
50,43.51,1
32,43.62,1
50,43.61,1
32,43.52,1
56,43.42,1
32,43.36,1
46,43.26,1
30,43.02,1
46,42.68,1
28,42.25,1
41,41.71,1
31,41.09,1
40,40.45,1
34,39.82,1
33,39.19,1
39,38.57,1
32,38,1
37,37.47,1
29,36.95,1
47,36.5,1
31,36.23,1
48,36.12,1
32,36.15,1
47,36.29,1
36,36.54,1
47,36.89,1
40,37.33,1
60,37.98,1
36,38.83,1
55,39.74,1
46,40.7,1
65,41.83,1
45,43.12,1
62,44.47,1
48,45.82,1
69,47.2,1
45,48.6,1
67,49.92,1
50,51.16,1
74,52.4,1
42,53.6,1
77,54.67,1
45,55.67,1
63,56.5,1
39,56.99,1
66,57.2,1
39,57.2,1
54,56.96,1
39,56.43,1
61,55.76,1
33,55.02,1
48,54.08,1
32,52.92,1
46,51.6,1
32,50.19,1
40,48.69,1
35,47.17,1
38,45.68,1
38,44.27,1
34,42.96,1
40,41.75,1
36,40.69,1
46,39.84,1
32,39.2,1
51,38.75,1
41,38.57,1
61,38.75,1
44,39.32,1
59,40.16,1
51,41.22,1
72,42.59,1
57,44.29,1
77,46.29,1
60,48.5,1
82,50.88,1
64,53.38,1
80,55.91,1
66,58.37,1
99,60.88,1
58,63.43,1
96,65.83,1
73,68.15,1
99,70.47,1
67,72.7,1
94,74.69,1
59,76.33,1
104,77.66,1
56,78.78,1
91,79.56,1
51,79.92,1
94,79.93,1
46,79.66,1
60,78.86,1
51,77.45,1
67,75.72,1
38,73.75,1
56,71.47,1
35,68.91,1
45,66.11,1
33,63.12,1
32,59.94,1
40,56.69,1
32,53.54,1
52,50.67,1
39,48.26,1
47,46.29,1
54,44.8,1
67,44.02,1
53,43.95,1
71,44.45,1
69,45.54,1
90,47.31,1
66,49.68,1
74,52.28,1
77,54.93,1
112,57.93,1
89,61.49,1
88,65.28,1
84,68.88,1
132,72.54,1
95,76.57,1
109,80.65,1
94,84.44,1
112,87.91,1
88,91,1
134,93.82,1
94,96.58,1
113,99.07,1
77,100.98,1
111,102.22,1
80,102.92,1
116,103.26,1
65,103.22,1
110,102.73,1
67,101.87,1
89,100.61,1
52,98.8,1
80,96.43,1
43,93.56,1
61,90.17,1
34,86.28,1
54,82,1
30,77.47,1
35,72.71,1
32,67.8,1
36,62.95,1
41,58.38,1
39,54.29,1
65,50.9,1
46,48.4,1
84,46.9,1
53,46.4,1
86,46.75,1
68,47.88,1
96,49.77,1
89,52.44,1
102,55.82,1
86,59.66,1
118,63.83,1
120,68.53,1
119,73.76,1
107,79.13,1
117,84.3,1
103,89.11,1
138,93.62,1
94,97.86,1
127,101.59,1
111,104.86,1
124,107.78,1
98,110.22,1
126,112.12,1
92,113.52,1
112,114.32,1
91,114.52,1
107,114.21,1
78,113.37,1
115,112.12,1
64,110.55,1
100,108.54,1
65,106.16,1
59,103.24,1
50,99.55,1
53,95.23,1
34,90.38,1
52,85.17,1
31,79.8,1
41,74.37,1
50,69.14,1
33,64.33,1
48,59.9,1
34,55.91,1
62,52.5,1
57,49.94,1
80,48.44,1
61,47.99,1
108,48.6,1
93,50.5,1
99,53.51,1
82,57.09,1
110,60.99,1
86,65.13,1
122,69.45,1
104,74.02,1
127,78.8,1
130,83.84,1
136,89.21,1
105,94.52,1
128,99.35,1
116,103.67,1
138,107.64,1
108,111.23,1
131,114.29,1
102,116.74,1
120,118.51,1
114,119.71,1
122,120.56,1
82,120.86,1
109,120.36,1
90,119.24,1
116,117.81,1
77,116.13,1
87,113.97,1
65,111.19,1
64,107.75,1
53,103.62,1
52,98.91,1
45,93.75,1
48,88.31,1
35,82.73,1
34,77.02,1
32,71.27,1
32,65.63,1
54,60.41,1
38,55.92,1
54,52.18,1
52,49.24,1
102,47.52,1
62,47.25,1
89,48.06,1
76,49.69,1
98,52.07,1
79,55.04,1
106,58.46,1
88,62.25,1
122,66.39,1
111,70.98,1
129,76.02,1
109,81.28,1
130,86.51,1
114,91.61,1
137,96.55,1
139,101.45,1
130,106.31,1
102,110.63,1
115,113.98,1
97,116.31,1
125,117.83,1
95,118.75,1
119,119.11,1
94,118.99,1
112,118.44,1
67,117.29,1
104,115.44,1
74,113.12,1
91,110.46,1
51,107.34,1
86,103.74,1
56,99.9,1
50,95.73,1
45,91.08,1
60,86.21,1
32,81.29,1
32,76.16,1
54,70.99,1
37,66.19,1
50,61.82,1
48,57.99,1
77,55,1
58,53.05,1
78,52.04,1
63,51.83,1
89,52.37,1
82,53.71,1
96,55.82,1
94,58.6,1
113,62.04,1
115,66.18,1
122,70.96,1
110,76.11,1
134,81.43,1
122,86.9,1
122,92.3,1
138,97.51,1
127,102.58,1
107,107.16,1
112,110.85,1
113,113.66,1
147,116.05,1
101,118.23,1
124,119.89,1
103,120.93,1
107,121.34,1
92,121.03,1
103,120.07,1
77,118.48,1
109,116.39,1
55,113.86,1
77,110.64,1
46,106.65,1
51,101.94,1
54,96.67,1
56,91.27,1
40,85.86,1
52,80.47,1
33,75.19,1
42,70.03,1
34,65.04,1
41,60.36,1
59,56.25,1
51,52.99,1
63,50.61,1
63,49.1,1
87,48.6,1
67,49.11,1
86,50.4,1
89,52.4,1
88,55.09,1
92,58.25,1
124,61.99,1
110,66.47,1
88,71.24,1
98,75.67,1
110,79.79,1
120,83.9,1
116,88.08,1
88,91.99,1
136,95.45,1
122,98.9,1
107,102.27,1
100,105.06,1
96,107.04,1
80,108.1,1
86,108.16,1
75,107.36,1
85,105.86,1
68,103.83,1
59,101.18,1
52,97.79,1
45,93.73,1
56,89.19,1
64,84.64,1
36,80.2,1
42,75.66,1
30,70.96,1
37,66.2,1
34,61.55,1
43,57.21,1
38,53.32,1
31,49.85,1
31,46.65,1
31,43.7,1
34,41.06,1
29,38.76,1
36,36.79,1
30,35.16,1
39,33.87,1
30,32.9,1
32,32.16,1
33,31.59,1
39,31.24,1
30,31.1,1
40,31.11,1
31,31.26,1
42,31.52,1
31,31.89,1
41,32.31,1
30,32.74,1
42,33.16,1
31,33.59,1
44,34.02,1
29,34.45,1
42,34.83,1
31,35.15,1
45,35.47,1
31,35.79,1
43,36.09,1
31,36.35,1
39,36.54,1
31,36.63,1
40,36.65,1
31,36.63,1
47,36.64,1
30,36.71,1
36,36.74,1
30,36.64,1
37,36.45,1
30,36.21,1
40,35.96,1
33,35.77,1
33,35.59,1
34,35.37,1
33,35.15,1
35,34.93,1
34,34.75,1
33,34.58,1
32,34.4,1
33,34.2,1
33,34.01,1
36,33.85,1
33,33.75,1
36,33.69,1
32,33.67,1
43,33.72,1
34,33.9,1
39,34.16,1
32,34.41,1
36,34.61,1
32,34.75,1
37,34.83,1
33,34.9,1
36,34.94,1
32,34.95,1
39,34.95,1
30,34.95,1
34,34.9,1
28,34.75,1
37,34.54,1
32,34.34,1
38,34.21,1
32,34.13,1
36,34.08,1
37,34.08,1
34,34.15,1
32,34.2,1
36,34.22,1
34,34.24,1
36,34.28,1
31,34.31,1
35,34.3,1
32,34.26,1
36,34.21,1
30,34.15,1
39,34.09,1
31,34.07,1
34,34.04,1
34,33.99,1
37,33.98,1
33,34.01,1
32,34.03,1
33,33.99,1
31,33.91,1
54,33.95,1
31,34.26,1
40,34.65,1
31,34.98,1
34,35.2,1
31,35.27,1
37,35.27,1
30,35.21,1
58,35.28,1
31,35.63,1
40,36.04,1
31,36.33,1
47,36.58,1
42,36.94,1
35,37.36,1
30,37.63,1
42,37.72,1
31,37.74,1
49,37.77,1
32,37.87,1
36,37.93,1
31,37.84,1
39,37.66,1
40,37.5,1
34,37.41,1
36,37.29,1
35,37.14,1
33,36.94,1
30,36.65,1
34,36.28,1
44,35.96,1
31,35.8,1
36,35.67,1
43,35.59,1
31,35.62,1
30,35.58,1
37,35.44,1
37,35.32,1
31,35.23,1
44,35.19,1
32,35.24,1
66,35.54,1
31,36.2,1
53,37,1
37,37.82,1
48,38.64,1
32,39.34,1
41,39.85,1
31,40.11,1
35,40.13,1
33,39.93,1
40,39.63,1
33,39.3,1
42,38.97,1
44,38.76,1
43,38.74,1
35,38.82,1
38,38.84,1
33,38.76,1
39,38.6,1
40,38.46,1
31,38.31,1
30,38.03,1
40,37.64,1
31,37.27,1
36,36.9,1
33,36.52,1
37,36.17,1
30,35.84,1
33,35.49,1
32,35.1,1
34,34.73,1
70,34.7,1
34,35.24,1
35,35.92,1
35,36.39,1
31,36.67,1
32,36.75,1
30,36.62,1
36,36.38,1
46,36.21,1
36,36.24,1
39,36.36,1
30,36.44,1
35,36.41,1
32,36.27,1
31,36.04,1
28,35.69,1
38,35.28,1
38,34.97,1
36,34.82,1
31,34.71,1
36,34.6,1
42,34.56,1
38,34.69,1
37,34.93,1
42,35.22,1
31,35.54,1
37,35.77,1
34,35.91,1
70,36.27,1
33,37.05,1
41,37.88,1
32,38.48,1
39,38.85,1
30,39.01,1
40,38.99,1
30,38.85,1
31,38.54,1
31,38.05,1
38,37.51,1
33,37.01,1
35,36.56,1
35,36.15,1
31,35.77,1
35,35.39,1
39,35.08,1
40,34.96,1
31,34.94,1
34,34.9,1
35,34.82,1
34,34.75,1
30,34.65,1
40,34.54,1
35,34.51,1
38,34.56,1
35,34.67,1
35,34.78,1
34,34.87,1
36,34.93,1
34,34.98,1
35,35.01,1
34,35.02,1
34,35,1
35,34.96,1
32,34.9,1
33,34.79,1
38,34.68,1
32,34.62,1
47,34.65,1
33,34.85,1
36,35.07,1
31,35.21,1
40,35.29,1
35,35.39,1
37,35.51,1
33,35.6,1
33,35.62,1
33,35.55,1
35,35.43,1
34,35.3,1
36,35.18,1
33,35.08,1
35,34.97,1
33,34.86,1
36,34.75,1
33,34.66,1
35,34.58,1
34,34.51,1
34,34.45,1
34,34.38,1
34,34.32,1
34,34.27,1
35,34.22,1
38,34.23,1
34,34.3,1
34,34.38,1
34,34.43,1
35,34.46,1
33,34.47,1
35,34.47,1
33,34.45,1
36,34.43,1
35,34.43,1
36,34.47,1
35,34.53,1
34,34.6,1
31,34.61,1
36,34.56,1
33,34.51,1
36,34.47,1
33,34.44,1
35,34.41,1
33,34.38,1
36,34.35,1
34,34.34,1
36,34.35,1
32,34.37,1
35,34.36,1
33,34.33,1
36,34.31,1
33,34.3,1
35,34.29,1
35,34.29,1
36,34.32,1
33,34.36,1
38,34.42,1
33,34.5,1
36,34.57,1
35,34.64,1
37,34.73,1
34,34.84,1
33,34.9,1
35,34.91,1
35,34.91,1
33,34.9,1
34,34.85,1
34,34.77,1
36,34.71,1
36,34.68,1
33,34.68,1
34,34.66,1
33,34.61,1
36,34.55,1
33,34.5,1
35,34.45,1
38,34.44,1
36,34.51,1
32,34.6,1
36,34.64,1
33,34.66,1
38,34.69,1
35,34.76,1
40,34.88,1
33,35.04,1
38,35.19,1
31,35.3,1
38,35.36,1
34,35.4,1
36,35.44,1
34,35.45,1
39,35.47,1
30,35.48,1
42,35.49,1
32,35.52,1
35,35.54,1
33,35.5,1
37,35.43,1
33,35.37,1
38,35.32,1
33,35.28,1
33,35.22,1
35,35.12,1
35,35.02,1
37,34.96,1
35,34.95,1
33,34.95,1
35,34.91,1
35,34.87,1
35,34.84,1
30,34.79,1
32,34.64,1
39,34.49,1
32,34.41,1
36,34.36,1
35,34.33,1
38,34.36,1
40,34.5,1
40,34.76,1
34,35.09,1
46,35.45,1
30,35.83,1
38,36.13,1
32,36.31,1
38,36.4,1
33,36.43,1
39,36.44,1
33,36.42,1
33,36.35,1
34,36.2,1
41,36.06,1
31,35.97,1
40,35.9,1
31,35.83,1
43,35.79,1
32,35.81,1
38,35.84,1
32,35.83,1
40,35.82,1
38,35.86,1
32,35.93,1
38,35.95,1
31,35.93,1
31,35.81,1
42,35.65,1
32,35.57,1
57,35.67,1
30,36.02,1
39,36.38,1
31,36.61,1
33,36.68,1
37,36.63,1
41,36.6,1
32,36.62,1
31,36.55,1
40,36.39,1
29,36.23,1
46,36.1,1
31,36.06,1
37,36.04,1
31,35.95,1
42,35.87,1
43,35.92,1
40,36.16,1
31,36.42,1
92,37.01,1
33,38.27,1
35,39.55,1
32,40.34,1
68,40.99,1
31,41.77,1
32,42.32,1
48,42.52,1
64,42.86,1
53,43.58,1
50,44.51,1
37,45.31,1
59,45.93,1
34,46.45,1
39,46.68,1
36,46.54,1
36,46.12,1
62,45.68,1
45,45.53,1
41,45.5,1
39,45.35,1
32,44.99,1
54,44.52,1
36,44.15,1
48,43.85,1
41,43.6,1
112,43.96,1
32,45.22,1
39,46.45,1
42,47.12,1
34,47.37,1
38,47.23,1
80,47.13,1
77,47.75,1
59,49.05,1
46,50.41,1
57,51.5,1
106,52.81,1
36,54.58,1
130,56.65,1
64,59.32,1
37,61.81,1
95,63.6,1
130,65.8,1
47,68.6,1
50,70.73,1
88,71.97,1
43,72.76,1
33,72.68,1
69,71.7,1
57,70.48,1
164,70.07,1
69,71.18,1
136,73.27,1
80,75.9,1
60,78.33,1
33,79.53,1
50,79.29,1
48,78,1
32,75.93,1
46,73.16,1
40,70.01,1
94,67.12,1
51,65.01,1
68,63.43,1
90,62.42,1
110,62.53,1
102,63.92,1
38,65.77,1
33,66.75,1
112,67.09,1
43,67.6,1
108,68.28,1
50,69.09,1
61,69.65,1
173,70.61,1
100,73.17,1
63,76.29,1
87,78.72,1
40,80.27,1
40,80.52,1
110,79.97,1
71,79.63,1
37,79.14,1
56,77.82,1
127,76.53,1
58,76.05,1
105,76.04,1
98,76.54,1
103,77.71,1
159,79.84,1
43,82.64,1
122,85.07,1
91,87.23,1
97,89.3,1
32,90.54,1
143,91.02,1
128,92.05,1
169,94.46,1
69,97.57,1
110,100.15,1
84,101.89,1
126,103.19,1
92,104.31,1
76,104.9,1
168,105.29,1
48,105.91,1
95,105.85,1
97,105.08,1
30,103.67,1
82,101.17,1
32,97.81,1
97,94.05,1
39,90.28,1
31,86.14,1
56,81.46,1
52,76.82,1
135,73.19,1
87,71.38,1
104,71.03,1
39,71.17,1
117,71.4,1
90,72.2,1
92,73.63,1
33,74.81,1
84,75.25,1
86,75.47,1
55,75.71,1
124,76.04,1
92,77.03,1
127,78.82,1
87,81.13,1
59,83.19,1
144,84.88,1
157,87.51,1
95,91.17,1
81,94.47,1
32,96.26,1
105,96.52,1
54,95.98,1
50,94.59,1
113,92.62,1
104,91.2,1
190,91.3,1
42,92.7,1
88,93.69,1
72,93.76,1
41,92.98,1
99,91.42,1
39,89.51,1
32,86.85,1
84,83.51,1
127,80.91,1
37,79.35,1
84,77.9,1
115,76.86,1
64,76.65,1
84,76.65,1
70,76.61,1
31,76.16,1
89,75.14,1
71,74.2,1
159,74.24,1
103,75.85,1
34,77.86,1
79,78.89,1
122,79.66,1
68,80.84,1
148,82.4,1
114,84.81,1
68,87.49,1
62,89.22,1
77,89.83,1
56,89.58,1
216,89.77,1
148,92.17,1
165,96.5,1
72,101.13,1
163,105.21,1
104,108.97,1
68,111.86,1
32,112.64,1
34,110.92,1
36,107.11,1
176,103.01,1
56,100.15,1
36,97.35,1
67,93.64,1
159,90.44,1
77,88.83,1
84,87.94,1
52,86.81,1
220,86.45,1
61,87.85,1
77,89.48,1
72,90.14,1
30,89.75,1
108,88.48,1
42,86.98,1
32,84.83,1
35,81.58,1
64,77.8,1
38,74.03,1
119,70.85,1
36,68.66,1
91,67.06,1
52,65.85,1
124,65.38,1
51,65.75,1
38,66.04,1
143,66.31,1
157,68.27,1
125,72.27,1
131,77.34,1
95,82.61,1
157,87.82,1
355,95.14,1
103,105.51,1
77,115.17,1
129,121.91,1
203,127.46,1
139,133.02,1
202,138.49,1
119,143.53,1
73,146.87,1
106,147.65,1
80,146.41,1
142,144.02,1
121,141.47,1
192,139.6,1
65,138.27,1
106,136.25,1
70,133.1,1
45,128.74,1
135,123.63,1
45,118.64,1
140,113.95,1
115,110.25,1
33,107.13,1
42,103.07,1
37,97.88,1
39,92.01,1
52,85.9,1
36,79.91,1
64,74.27,1
50,69.31,1
96,65.39,1
48,62.63,1
67,60.59,1
73,59.15,1
88,58.57,1
88,58.97,1
157,60.77,1
72,64.02,1
158,68.15,1
252,74.28,1
101,82.75,1
110,91.09,1
84,97.78,1
95,102.73,1
60,105.87,1
36,106.86,1
135,106.31,1
93,105.67,1
119,105.33,1
50,104.74,1
44,103.03,1
58,99.96,1
83,96.35,1
80,92.94,1
92,90.05,1
198,88.67,1
138,89.83,1
51,92.05,1
73,93.3,1
63,93.33,1
65,92.46,1
44,90.72,1
85,88.39,1
60,85.96,1
72,83.57,1
54,81.12,1
37,78.39,1
129,75.85,1
48,74.23,1
41,72.75,1
77,70.94,1
60,69.32,1
44,67.79,1
71,66.21,1
71,64.94,1
53,64.02,1
60,63.16,1
55,62.31,1
126,62.04,1
57,62.78,1
64,63.77,1
73,64.55,1
127,65.79,1
126,68.27,1
124,72.03,1
170,76.98,1
43,82.37,1
107,86.74,1
136,90.45,1
129,94.47,1
58,98.13,1
34,99.99,1
82,99.85,1
71,98.69,1
74,97.02,1
47,94.74,1
49,91.7,1
64,88.09,1
75,84.53,1
33,81.08,1
35,77.25,1
42,72.99,1
104,69.19,1
72,66.66,1
72,65.16,1
37,63.96,1
82,62.82,1
48,61.93,1
170,62.07,1
57,63.77,1
58,65.77,1
45,66.93,1
34,67.11,1
47,66.37,1
60,65.18,1
42,63.85,1
79,62.57,1
46,61.56,1
80,60.83,1
78,60.61,1
70,60.95,1
36,61.3,1
32,60.99,1
102,60.41,1
124,60.93,1
103,63.03,1
85,65.95,1
104,69.1,1
102,72.46,1
112,76.07,1
83,79.68,1
100,82.91,1
79,85.61,1
153,88.23,1
100,91.3,1
81,94.2,1
90,96.2,1
80,97.37,1
93,97.89,1
102,98.09,1
148,98.67,1
53,99.57,1
71,99.66,1
88,98.79,1
93,97.68,1
73,96.48,1
155,95.63,1
75,95.6,1
142,96.1,1
81,96.93,1
38,97.19,1
50,95.9,1
75,93.53,1
69,90.87,1
38,87.93,1
39,84.33,1
108,80.66,1
36,77.61,1
40,74.56,1
105,71.6,1
83,69.72,1
38,68.54,1
34,66.98,1
37,64.78,1
81,62.53,1
33,60.67,1
169,59.85,1
44,60.65,1
64,61.9,1
31,62.49,1
164,63.26,1
119,65.68,1
100,69.47,1
225,74.51,1
156,81.67,1
119,89.8,1
117,97.23,1
79,103.23,1
206,108.36,1
143,113.89,1
94,119.17,1
31,122.25,1
98,122.68,1
127,121.91,1
95,120.98,1
152,120.16,1
163,120.19,1
119,121.16,1
64,121.74,1
77,120.87,1
55,118.49,1
107,115.21,1
94,111.93,1
31,108.43,1
59,103.99,1
39,98.76,1
43,93.03,1
113,87.57,1
99,83.55,1
66,80.84,1
50,78.43,1
32,75.66,1
65,72.54,1
32,69.38,1
68,66.32,1
62,63.71,1
122,62.2,1
118,62.47,1
72,64.15,1
85,66.16,1
134,68.59,1
72,71.67,1
109,74.83,1
74,77.77,1
47,79.94,1
34,80.65,1
123,80.5,1
85,80.73,1
120,81.65,1
80,82.98,1
157,84.86,1
78,87.36,1
72,89.56,1
44,90.48,1
122,90.53,1
62,90.47,1
114,90.41,1
93,90.54,1
127,91.17,1
56,91.96,1
94,92.28,1
92,92.25,1
52,91.91,1
91,91,1
50,89.65,1
45,87.63,1
63,84.9,1
89,82.16,1
65,79.9,1
34,77.63,1
50,74.87,1
66,71.96,1
39,69.19,1
73,66.6,1
95,64.74,1
92,64.1,1
31,64.05,1
54,63.61,1
117,63.3,1
114,64.26,1
59,66.19,1
59,67.88,1
100,69.2,1
50,70.48,1
32,71.04,1
100,70.9,1
52,70.8,1
79,70.72,1
41,70.4,1
161,70.48,1
96,71.98,1
95,74.42,1
78,76.82,1
100,79.01,1
107,81.23,1
93,83.59,1
103,85.89,1
108,88.16,1
99,90.41,1
146,92.87,1
70,95.47,1
37,96.97,1
39,96.45,1
92,94.6,1
56,92.38,1
71,89.92,1
90,87.47,1
119,85.76,1
71,84.92,1
61,84.13,1
91,83.11,1
40,81.92,1
31,80,1
39,77.09,1
60,73.72,1
60,70.54,1
49,67.69,1
38,64.91,1
72,62.28,1
72,60.32,1
66,59.15,1
94,58.76,1
120,59.6,1
34,61.28,1
130,63.16,1
87,65.63,1
101,68.68,1
91,71.85,1
94,75,1
161,78.55,1
126,83.1,1
79,87.86,1
121,91.93,1
144,95.82,1
155,100.25,1
154,105.31,1
92,110.25,1
45,113.55,1
104,114.69,1
57,114.34,1
94,112.9,1
74,110.72,1
170,108.81,1
47,107.56,1
101,106.08,1
104,104.37,1
80,102.84,1
42,100.81,1
121,98.31,1
54,95.95,1
157,94.17,1
58,93.22,1
31,91.94,1
49,89.34,1
37,85.81,1
84,82,1
44,78.47,1
124,75.63,1
90,74.11,1
180,74.48,1
56,76.45,1
62,78.34,1
46,79.08,1
155,79.58,1
101,81.09,1
59,82.98,1
36,83.8,1
32,83.03,1
61,81.05,1
125,79.17,1
38,78,1
58,76.68,1
36,74.73,1
102,72.7,1
106,71.61,1
159,72.29,1
91,74.64,1
84,77.46,1
77,79.82,1
100,81.77,1
32,83.11,1
45,83.12,1
80,82.08,1
96,81.06,1
66,80.4,1
88,79.85,1
90,79.53,1
58,79.35,1
53,78.74,1
77,77.68,1
52,76.45,1
47,74.87,1
40,72.75,1
81,70.47,1
62,68.58,1
50,66.98,1
32,65.17,1
64,63.11,1
45,61.16,1
62,59.44,1
92,58.32,1
70,58.15,1
98,58.8,1
31,59.81,1
58,60.4,1
55,60.52,1
60,60.5,1
65,60.47,1
44,60.39,1
30,59.84,1
176,59.75,1
40,61.17,1
150,63.57,1
103,66.94,1
73,70.82,1
69,74.05,1
194,77.4,1
31,81.41,1
106,84.75,1
82,87.18,1
122,89.39,1
83,91.48,1
50,92.85,1
137,93.48,1
160,94.86,1
87,97.24,1
339,101.37,1
56,107.89,1
117,113.96,1
77,117.86,1
88,119.92,1
128,120.69,1
74,120.75,1
34,119.39,1
56,116.08,1
50,111.37,1
126,106.46,1
41,102.05,1
57,97.52,1
31,92.41,1
35,86.77,1
50,80.88,1
33,75.12,1
73,69.84,1
67,65.54,1
86,62.51,1
97,60.91,1
91,60.72,1
48,61.26,1
64,61.72,1
122,62.49,1
96,64.33,1
128,67.23,1
144,71.29,1
78,76.08,1
181,81.17,1
81,86.64,1
114,91.71,1
54,95.54,1
113,98.07,1
138,100.2,1
90,102.46,1
64,103.96,1
198,105.1,1
79,106.94,1
121,108.74,1
110,110.08,1
149,111.51,1
81,112.94,1
57,113.35,1
55,112.01,1
90,109.44,1
127,106.87,1
130,105.28,1
94,104.57,1
58,103.68,1
91,102.08,1
44,99.84,1
34,96.63,1
67,92.48,1
50,88.08,1
62,83.73,1
37,79.41,1
80,75.29,1
77,71.94,1
68,69.49,1
77,67.73,1
197,67.59,1
167,70.48,1
86,75.42,1
48,79.87,1
92,82.89,1
92,85.13,1
86,87.01,1
136,88.86,1
33,90.57,1
143,91.72,1
47,92.6,1
127,93.21,1
137,94.21,1
127,96.2,1
52,98.19,1
110,99.28,1
100,99.9,1
89,100.37,1
93,100.48,1
79,100.18,1
94,99.5,1
268,100.09,1
67,102.96,1
155,106.32,1
90,109.22,1
76,111.21,1
73,111.68,1
119,111.17,1
262,111.82,1
73,114.5,1
66,116.67,1
84,116.86,1
32,115.37,1
67,112.23,1
34,107.82,1
47,102.43,1
44,96.39,1
34,90.03,1
63,83.68,1
71,78,1
91,73.54,1
56,70.26,1
121,68.12,1
71,67.28,1
177,68.02,1
104,70.67,1
94,74.29,1
53,77.44,1
95,79.72,1
109,81.72,1
390,86.3,1
167,95.57,1
94,106.17,1
46,114.06,1
150,119.09,1
248,123.88,1
83,129.44,1
96,133.61,1
107,135.54,1
77,135.76,1
142,134.79,1
69,133.15,1
111,130.76,1
46,127.43,1
46,122.77,1
78,116.99,1
33,110.68,1
81,104.11,1
124,98.31,1
58,93.85,1
38,89.65,1
62,85.13,1
69,80.8,1
76,77.11,1
35,73.88,1
38,70.51,1
71,67.12,1
33,64.1,1
94,61.59,1
32,59.73,1
249,59.67,1
31,62.27,1
104,65.59,1
104,68.78,1
62,72.01,1
71,74.56,1
43,76.09,1
85,76.74,1
44,76.84,1
383,78.93,1
34,84.82,1
82,90.88,1
67,94.7,1
90,97.01,1
58,98.1,1
42,97.76,1
62,95.96,1
148,94.03,1
40,92.74,1
145,91.77,1
159,92.02,1
94,93.76,1
220,96.64,1
84,100.72,1
54,104.14,1
50,105.33,1
73,104.65,1
96,103.1,1
72,101.31,1
75,99.21,1
132,97.26,1
200,97,1
122,98.96,1
97,101.63,1
179,104.39,1
42,107.14,1
71,108.45,1
51,107.85,1
40,105.61,1
211,103.26,1
44,102.22,1
95,101.31,1
36,99.51,1
86,96.97,1
52,94,1
93,90.97,1
50,88.05,1
43,84.88,1
397,84.05,1
89,88.2,1
67,93.71,1
109,97.56,1
45,100,1
159,101.52,1
98,103.12,1
91,104.61,1
127,105.66,1
33,106.09,1
188,106.07,1
319,108.52,1
93,114.33,1
191,120.7,1
110,126.38,1
98,130.74,1
135,133.39,1
54,134.51,1
123,133.96,1
211,133.34,1
69,133.52,1
88,132.87,1
105,130.9,1
139,128.7,1
127,126.98,1
119,125.71,1
40,123.94,1
44,120.53,1
102,115.87,1
116,111.51,1
51,107.69,1
42,103.39,1
32,98.11,1
60,92.22,1
106,86.84,1
31,82.38,1
49,78.07,1
37,73.6,1
65,69.32,1
57,65.63,1
65,62.67,1
48,60.29,1
56,58.28,1
58,56.62,1
73,55.51,1
80,55.17,1
92,55.76,1
141,57.68,1
180,61.8,1
119,67.97,1
102,74.7,1
33,80.28,1
62,83.79,1
79,85.65,1
82,86.74,1
79,87.36,1
61,87.44,1
83,86.97,1
215,87.37,1
107,89.87,1
80,93,1
115,95.46,1
87,97.46,1
92,98.91,1
46,99.38,1
36,98.29,1
61,95.73,1
59,92.42,1
152,89.59,1
120,88.45,1
66,88.42,1
33,87.84,1
37,85.9,1
32,82.76,1
34,78.77,1
39,74.3,1
40,69.71,1
30,65.16,1
31,60.64,1
31,56.22,1
31,52.04,1
30,48.16,1
35,44.66,1
31,41.61,1
33,38.99,1
32,36.77,1
38,34.98,1
31,33.62,1
40,32.62,1
41,32.03,1
34,31.81,1
33,31.77,1
37,31.81,1
33,31.95,1
38,32.16,1
34,32.44,1
36,32.75,1
34,33.06,1
35,33.35,1
35,33.62,1
36,33.88,1
34,34.12,1
36,34.33,1
33,34.5,1
35,34.63,1
33,34.7,1
33,34.72,1
33,34.68,1
35,34.61,1
34,34.54,1
34,34.48,1
33,34.41,1
35,34.34,1
34,34.28,1
35,34.24,1
31,34.2,1
34,34.12,1
34,34.03,1
34,33.96,1
34,33.9,1
35,33.88,1
34,33.88,1
34,33.89,1
35,33.91,1
35,33.95,1
34,34.01,1
34,34.06,1
34,34.1,1
34,34.13,1
34,34.14,1
34,34.15,1
34,34.15,1
34,34.14,1
33,34.13,1
34,34.1,1
35,34.07,1
34,34.06,1
35,34.07,1
34,34.09,1
34,34.11,1
34,34.12,1
35,34.14,1
34,34.16,1
35,34.19,1
34,34.22,1
35,34.25,1
34,34.28,1
35,34.32,1
34,34.35,1
35,34.38,1
34,34.4,1
35,34.42,1
33,34.44,1
34,34.42,1
34,34.39,1
36,34.37,1
33,34.37,1
30,34.32,1
34,34.2,1
35,34.08,1
34,34,1
35,33.95,1
34,33.94,1
35,33.94,1
33,33.96,1
35,33.97,1
34,33.99,1
34,34.01,1
35,34.04,1
35,34.08,1
34,34.13,1
34,34.18,1
33,34.2,1
34,34.19,1
34,34.17,1
32,34.13,1
34,34.07,1
34,34,1
34,33.95,1
34,33.91,1
35,33.89,1
34,33.9,1
34,33.92,1
35,33.94,1
35,33.98,1
34,34.04,1
35,34.1,1
32,34.14,1
36,34.16,1
33,34.18,1
35,34.2,1
34,34.21,1
37,34.25,1
33,34.31,1
35,34.36,1
34,34.39,1
34,34.42,1
34,34.42,1
35,34.42,1
34,34.42,1
35,34.42,1
34,34.43,1
35,34.43,1
35,34.45,1
34,34.47,1
34,34.48,1
36,34.49,1
34,34.51,1
34,34.53,1
33,34.51,1
34,34.47,1
36,34.43,1
34,34.42,1
34,34.41,1
35,34.4,1
34,34.4,1
32,34.37,1
36,34.33,1
34,34.3,1
34,34.28,1
33,34.25,1
35,34.21,1
34,34.18,1
36,34.18,1
27,34.15,1
36,34.04,1
35,33.93,1
37,33.91,1
33,33.95,1
35,34,1
33,34.03,1
35,34.06,1
37,34.11,1
36,34.22,1
33,34.34,1
37,34.45,1
34,34.56,1
34,34.64,1
33,34.68,1
36,34.69,1
34,34.7,1
36,34.71,1
34,34.73,1
36,34.76,1
35,34.79,1
34,34.83,1
33,34.82,1
34,34.78,1
35,34.72,1
34,34.67,1
36,34.63,1
33,34.61,1
33,34.56,1
34,34.48,1
34,34.4,1
35,34.33,1
34,34.29,1
33,34.24,1
33,34.17,1
33,34.09,1
35,34,1
34,33.94,1
36,33.92,1
32,33.93,1
35,33.93,1
34,33.93,1
35,33.95,1
32,33.96,1
33,33.95,1
34,33.9,1
38,33.89,1
35,33.97,1
38,34.1,1
31,34.25,1
40,34.39,1
32,34.54,1
33,34.65,1
33,34.66,1
38,34.66,1
34,34.7,1
37,34.76,1
31,34.81,1
37,34.82,1
32,34.8,1
38,34.79,1
32,34.79,1
36,34.78,1
33,34.76,1
39,34.75,1
32,34.78,1
36,34.81,1
38,34.84,1
34,34.93,1
34,34.99,1
34,35.01,1
37,35.02,1
33,35.03,1
34,35.01,1
31,34.93,1
43,34.87,1
37,34.94,1
34,35.08,1
30,35.15,1
40,35.14,1
32,35.15,1
38,35.17,1
32,35.18,1
36,35.16,1
32,35.11,1
40,35.07,1
33,35.08,1
37,35.11,1
32,35.11,1
44,35.16,1
32,35.28,1
40,35.44,1
30,35.55,1
42,35.64,1
31,35.73,1
36,35.77,1
40,35.8,1
38,35.91,1
32,36.03,1
38,36.09,1
32,36.1,1
53,36.19,1
32,36.47,1
41,36.78,1
31,36.99,1
36,37.09,1
32,37.05,1
30,36.87,1
36,36.58,1
33,36.26,1
36,35.96,1
32,35.68,1
39,35.44,1
34,35.27,1
31,35.11,1
53,35.07,1
39,35.32,1
37,35.73,1
32,36.06,1
31,36.21,1
46,36.29,1
31,36.42,1
39,36.53,1
32,36.57,1
58,36.72,1
32,37.11,1
39,37.5,1
31,37.73,1
48,37.89,1
30,38.05,1
44,38.18,1
34,38.27,1
44,38.36,1
36,38.46,1
47,38.62,1
30,38.78,1
49,38.91,1
33,39.06,1
52,39.25,1
31,39.49,1
42,39.66,1
35,39.72,1
41,39.71,1
32,39.63,1
38,39.44,1
32,39.15,1
45,38.85,1
41,38.68,1
49,38.73,1
37,38.94,1
36,39.12,1
45,39.24,1
54,39.52,1
33,39.96,1
31,40.22,1
32,40.15,1
32,39.82,1
42,39.39,1
31,38.98,1
53,38.68,1
40,38.63,1
44,38.77,1
36,38.96,1
32,39.03,1
45,39,1
50,39.11,1
32,39.35,1
56,39.65,1
39,40.07,1
79,40.82,1
31,41.91,1
78,43.17,1
32,44.5,1
39,45.54,1
40,46.07,1
49,46.34,1
40,46.49,1
70,46.71,1
38,47.13,1
54,47.54,1
34,47.77,1
60,47.87,1
54,48.09,1
45,48.42,1
32,48.53,1
44,48.28,1
29,47.73,1
47,46.97,1
29,46.1,1
40,45.11,1
31,44.04,1
48,43,1
34,42.13,1
32,41.29,1
36,40.4,1
37,39.56,1
33,38.79,1
39,38.1,1
31,37.49,1
37,36.93,1
42,36.49,1
31,36.21,1
34,35.94,1
33,35.64,1
77,35.69,1
31,36.34,1
55,37.23,1
32,38.1,1
45,38.86,1
65,39.7,1
49,40.86,1
30,41.99,1
78,43.01,1
50,44.3,1
51,45.71,1
34,46.8,1
60,47.57,1
32,48.12,1
53,48.42,1
32,48.45,1
28,48.07,1
34,47.22,1
34,46.09,1
44,44.91,1
54,43.99,1
38,43.4,1
59,43.08,1
32,42.96,1
46,42.85,1
78,43.01,1
57,43.84,1
51,45.02,1
46,46.13,1
35,46.92,1
36,47.23,1
30,47.04,1
47,46.53,1
49,46.04,1
33,45.61,1
31,44.99,1
35,44.11,1
56,43.28,1
85,43.13,1
36,43.75,1
32,44.33,1
52,44.56,1
31,44.65,1
48,44.58,1
36,44.41,1
30,44.05,1
31,43.37,1
56,42.65,1
30,42.12,1
64,41.81,1
37,41.8,1
77,42.18,1
31,42.9,1
74,43.79,1
52,44.92,1
56,46.23,1
32,47.31,1
31,47.82,1
41,47.75,1
34,47.34,1
54,46.82,1
51,46.46,1
31,46.2,1
58,45.89,1
35,45.64,1
37,45.31,1
33,44.74,1
49,44.08,1
34,43.49,1
45,42.94,1
47,42.52,1
40,42.27,1
31,41.99,1
37,41.54,1
30,40.94,1
50,40.35,1
38,39.96,1
30,39.62,1
42,39.22,1
62,39.07,1
72,39.62,1
38,40.73,1
46,41.84,1
36,42.67,1
75,43.48,1
75,44.8,1
41,46.52,1
41,47.92,1
41,48.77,1
37,49.12,1
58,49.2,1
42,49.25,1
58,49.31,1
36,49.32,1
104,49.64,1
72,50.83,1
96,52.88,1
37,55.17,1
72,57.09,1
37,58.46,1
74,59.4,1
30,59.93,1
70,60.04,1
31,59.81,1
66,59.3,1
51,58.72,1
41,58.06,1
56,57.22,1
34,56.23,1
32,54.91,1
38,53.24,1
42,51.45,1
44,49.76,1
30,48.16,1
48,46.6,1
36,45.22,1
43,44.03,1
32,42.94,1
48,41.97,1
35,41.19,1
78,40.85,1
35,41.11,1
33,41.43,1
33,41.42,1
135,41.97,1
83,44.16,1
33,47.11,1
55,49.48,1
60,51.33,1
94,53.25,1
50,55.41,1
47,57.22,1
66,58.44,1
109,59.81,1
41,61.55,1
69,62.99,1
46,63.86,1
39,64.08,1
73,63.77,1
69,63.52,1
71,63.56,1
68,63.79,1
46,63.94,1
86,63.98,1
62,64.21,1
97,64.79,1
74,65.81,1
37,66.74,1
67,67.02,1
77,67.07,1
43,67.08,1
162,67.54,1
46,69.06,1
58,70.5,1
48,71.01,1
89,71.07,1
31,70.89,1
46,70.06,1
40,68.47,1
30,66.3,1
34,63.58,1
44,60.6,1
79,57.99,1
31,56.01,1
52,54.25,1
43,52.59,1
49,51.14,1
31,49.77,1
77,48.63,1
97,48.48,1
41,49.33,1
44,50.18,1
62,50.75,1
36,51.19,1
74,51.56,1
80,52.31,1
48,53.47,1
81,54.71,1
120,56.55,1
32,58.99,1
69,60.98,1
84,62.58,1
57,64.16,1
78,65.51,1
46,66.52,1
88,67.22,1
42,67.72,1
59,67.77,1
121,67.89,1
63,68.74,1
59,69.63,1
72,70.11,1
47,70.22,1
58,69.85,1
144,69.79,1
37,70.59,1
67,71.22,1
41,71.11,1
31,70.17,1
32,68.28,1
118,66.35,1
32,65.16,1
36,63.91,1
62,62.22,1
30,60.46,1
39,58.46,1
60,56.4,1
41,54.63,1
44,53.01,1
56,51.56,1
75,50.65,1
80,50.64,1
65,51.43,1
76,52.68,1
92,54.43,1
46,56.48,1
31,57.95,1
43,58.42,1
44,58.19,1
120,58.16,1
57,59.02,1
81,60.32,1
44,61.49,1
73,62.34,1
37,62.82,1
36,62.62,1
57,61.78,1
66,60.88,1
50,60.17,1
47,59.4,1
76,58.67,1
97,58.61,1
68,59.41,1
51,60.39,1
53,60.99,1
178,62.19,1
30,64.65,1
66,66.89,1
47,68.12,1
56,68.6,1
31,68.28,1
62,67.27,1
34,65.86,1
35,63.98,1
28,61.55,1
73,59.02,1
33,56.87,1
40,54.83,1
33,52.68,1
43,50.54,1
72,48.82,1
45,47.81,1
36,47.1,1
54,46.41,1
33,45.82,1
45,45.22,1
55,44.74,1
39,44.5,1
39,44.26,1
34,43.87,1
37,43.32,1
32,42.63,1
55,41.98,1
44,41.64,1
58,41.65,1
50,42.02,1
66,42.75,1
32,43.66,1
36,44.29,1
39,44.48,1
43,44.46,1
30,44.26,1
46,43.88,1
36,43.45,1
47,43.05,1
36,42.69,1
73,42.59,1
31,42.86,1
38,43.08,1
37,43.02,1
51,42.9,1
32,42.8,1
49,42.67,1
31,42.49,1
38,42.18,1
31,41.7,1
33,41.05,1
33,40.29,1
33,39.47,1
32,38.62,1
31,37.76,1
35,36.93,1
46,36.29,1
39,35.97,1
32,35.83,1
46,35.76,1
31,35.81,1
39,35.88,1
31,35.9,1
47,35.95,1
32,36.1,1
36,36.24,1
31,36.26,1
41,36.22,1
35,36.22,1
40,36.27,1
31,36.32,1
51,36.41,1
33,36.65,1
54,37.03,1
32,37.53,1
35,37.92,1
32,38.08,1
48,38.16,1
30,38.26,1
33,38.24,1
31,38.02,1
52,37.8,1
32,37.77,1
41,37.79,1
31,37.76,1
32,37.6,1
31,37.29,1
36,36.89,1
30,36.47,1
35,36.03,1
34,35.61,1
45,35.34,1
34,35.26,1
36,35.27,1
37,35.29,1
34,35.33,1
31,35.32,1
32,35.2,1
31,34.99,1
35,34.74,1
35,34.53,1
36,34.39,1
51,34.45,1
32,34.76,1
36,35.09,1
30,35.29,1
44,35.44,1
38,35.66,1
34,35.93,1
30,36.06,1
39,36.08,1
28,36.02,1
46,35.95,1
32,35.97,1
54,36.14,1
31,36.49,1
49,36.91,1
31,37.33,1
49,37.74,1
36,38.16,1
48,38.62,1
39,39.1,1
48,39.61,1
30,40.05,1
47,40.35,1
39,40.58,1
46,40.84,1
31,41.02,1
33,40.97,1
35,40.67,1
35,40.24,1
32,39.72,1
57,39.3,1
33,39.15,1
40,39.1,1
30,38.94,1
36,38.67,1
30,38.27,1
116,38.45,1
32,39.72,1
46,41.24,1
34,42.34,1
30,42.97,1
35,43.1,1
44,42.97,1
41,42.8,1
54,42.75,1
32,42.79,1
33,42.66,1
87,42.67,1
33,43.25,1
42,43.86,1
35,44.14,1
43,44.18,1
33,44.02,1
40,43.68,1
47,43.3,1
61,43.19,1
49,43.48,1
57,44.04,1
33,44.62,1
41,44.95,1
43,45.02,1
60,45.13,1
36,45.37,1
57,45.61,1
34,45.8,1
95,46.25,1
38,47.22,1
51,48.22,1
30,48.8,1
85,49.25,1
42,49.96,1
57,50.71,1
54,51.34,1
39,51.81,1
30,51.8,1
36,51.2,1
31,50.17,1
38,48.85,1
31,47.38,1
35,45.82,1
51,44.37,1
31,43.2,1
43,42.16,1
33,41.22,1
43,40.4,1
28,39.66,1
44,38.97,1
30,38.36,1
48,37.88,1
31,37.57,1
43,37.35,1
31,37.17,1
43,37.03,1
43,37.01,1
45,37.22,1
32,37.5,1
40,37.71,1
33,37.82,1
54,37.98,1
43,38.36,1
56,38.99,1
48,39.86,1
61,40.95,1
40,42.16,1
66,43.4,1
42,44.66,1
52,45.82,1
32,46.66,1
71,47.3,1
42,48,1
65,48.77,1
31,49.42,1
56,49.79,1
36,49.91,1
31,49.67,1
31,48.93,1
33,47.79,1
53,46.59,1
99,46.09,1
32,46.51,1
39,46.97,1
40,47,1
49,46.87,1
35,46.64,1
31,46.18,1
50,45.52,1
35,44.88,1
40,44.24,1
31,43.5,1
48,42.74,1
36,42.1,1
52,41.64,1
36,41.37,1
36,41.11,1
57,40.92,1
31,40.92,1
33,40.82,1
93,40.97,1
32,41.79,1
33,42.59,1
31,42.87,1
58,42.94,1
31,43.04,1
71,43.27,1
60,43.93,1
78,45.19,1
39,46.75,1
54,48.13,1
44,49.17,1
93,50.27,1
35,51.63,1
86,53.01,1
31,54.27,1
42,55.01,1
42,55.06,1
58,54.81,1
34,54.39,1
48,53.72,1
58,52.99,1
45,52.41,1
34,51.74,1
66,51.01,1
37,50.44,1
34,49.78,1
58,48.99,1
43,48.36,1
34,47.75,1
33,46.91,1
31,45.8,1
31,44.5,1
39,43.13,1
56,42.03,1
68,41.6,1
57,41.94,1
32,42.58,1
31,42.92,1
45,42.91,1
39,42.81,1
46,42.72,1
36,42.61,1
84,42.79,1
30,43.44,1
86,44.38,1
32,45.57,1
36,46.5,1
42,46.88,1
33,46.9,1
30,46.5,1
34,45.72,1
37,44.74,1
56,43.86,1
32,43.25,1
42,42.68,1
36,42.1,1
54,41.66,1
36,41.43,1
44,41.29,1
34,41.12,1
34,40.85,1
33,40.4,1
41,39.9,1
31,39.41,1
38,38.9,1
31,38.36,1
31,37.77,1
32,37.11,1
44,36.53,1
32,36.14,1
34,35.82,1
30,35.47,1
32,35.07,1
32,34.65,1
34,34.26,1
36,33.96,1
31,33.73,1
35,33.55,1
31,33.39,1
38,33.28,1
33,33.25,1
47,33.38,1
32,33.68,1
35,34,1
29,34.21,1
33,34.28,1
34,34.26,1
48,34.35,1
32,34.61,1
40,34.92,1
30,35.18,1
37,35.34,1
34,35.44,1
34,35.5,1
29,35.45,1
31,35.26,1
36,35,1
38,34.81,1
32,34.7,1
40,34.65,1
32,34.65,1
39,34.69,1
33,34.75,1
41,34.86,1
34,35.01,1
36,35.17,1
32,35.27,1
32,35.28,1
32,35.17,1
36,35.02,1
35,34.9,1
36,34.82,1
34,34.78,1
33,34.73,1
37,34.68,1
30,34.62,1
36,34.54,1
34,34.45,1
35,34.4,1
36,34.38,1
32,34.37,1
35,34.35,1
35,34.33,1
32,34.31,1
36,34.28,1
32,34.24,1
37,34.22,1
35,34.23,1
40,34.32,1
34,34.49,1
37,34.67,1
32,34.82,1
36,34.92,1
32,34.96,1
38,34.98,1
31,34.99,1
36,34.96,1
37,34.94,1
41,35.02,1
32,35.16,1
38,35.3,1
31,35.38,1
40,35.43,1
33,35.48,1
37,35.54,1
34,35.57,1
38,35.6,1
33,35.62,1
39,35.65,1
33,35.68,1
35,35.68,1
32,35.62,1
36,35.51,1
31,35.37,1
36,35.2,1
34,35.04,1
33,34.9,1
34,34.74,1
38,34.62,1
34,34.58,1
36,34.57,1
33,34.57,1
32,34.54,1
35,34.46,1
34,34.39,1
35,34.34,1
34,34.31,1
36,34.29,1
34,34.31,1
36,34.34,1
32,34.37,1
36,34.38,1
32,34.38,1
35,34.36,1
32,34.31,1
37,34.26,1
34,34.25,1
36,34.28,1
32,34.31,1
34,34.3,1
32,34.25,1
36,34.19,1
32,34.14,1
37,34.1,1
33,34.1,1
38,34.13,1
33,34.2,1
37,34.29,1
33,34.38,1
35,34.45,1
34,34.5,1
35,34.53,1
33,34.55,1
36,34.56,1
32,34.55,1
34,34.51,1
33,34.44,1
33,34.35,1
34,34.24,1
35,34.15,1
34,34.1,1
34,34.06,1
33,34.02,1
33,33.97,1
35,33.91,1
34,33.88,1
36,33.88,1
33,33.91,1
37,33.96,1
33,34.03,1
34,34.1,1
32,34.12,1
35,34.1,1
33,34.08,1
35,34.06,1
32,34.04,1
35,34,1
34,33.97,1
35,33.97,1
33,33.98,1
36,33.99,1
32,34.01,1
36,34.02,1
32,34.03,1
36,34.04,1
34,34.06,1
35,34.1,1
33,34.13,1
36,34.16,1
34,34.2,1
35,34.25,1
33,34.29,1
36,34.32,1
34,34.35,1
32,34.37,1
34,34.33,1
35,34.29,1
34,34.26,1
34,34.24,1
31,34.19,1
35,34.11,1
35,34.04,1
36,34.03,1
33,34.05,1
32,34.05,1
34,34.01,1
33,33.95,1
34,33.89,1
35,33.85,1
34,33.84,1
34,33.85,1
34,33.86,1
34,33.87,1
34,33.88,1
33,33.89,1
34,33.88,1
34,33.87,1
35,33.87,1
34,33.9,1
34,33.93,1
34,33.95,1
36,33.99,1
34,34.05,1
34,34.11,1
34,34.15,1
35,34.19,1
33,34.22,1
36,34.24,1
34,34.28,1
34,34.31,1
33,34.32,1
34,34.3,1
34,34.26,1
35,34.24,1
34,34.22,1
35,34.23,1
34,34.23,1
35,34.25,1
35,34.28,1
34,34.32,1
34,34.34,1
37,34.37,1
34,34.44,1
36,34.51,1
34,34.58,1
35,34.64,1
33,34.67,1
35,34.68,1
34,34.67,1
35,34.65,1
36,34.65,1
35,34.68,1
34,34.71,1
34,34.72,1
33,34.7,1
34,34.64,1
34,34.57,1
34,34.49,1
34,34.42,1
33,34.34,1
34,34.26,1
34,34.17,1
34,34.11,1
34,34.05,1
36,34.02,1
34,34.03,1
35,34.07,1
35,34.11,1
35,34.18,1
33,34.24,1
34,34.26,1
32,34.25,1
33,34.2,1
34,34.11,1
34,34.04,1
32,33.97,1
36,33.89,1
34,33.86,1
35,33.86,1
34,33.88,1
34,33.91,1
34,33.94,1
35,33.97,1
34,34.01,1
31,34.02,1
34,33.98,1
35,33.94,1
34,33.92,1
35,33.93,1
34,33.95,1
35,33.99,1
34,34.03,1
34,34.07,1
34,34.1,1
34,34.12,1
34,34.13,1
34,34.13,1
34,34.13,1
35,34.13,1
34,34.15,1
39,34.2,1
34,34.32,1
34,34.44,1
34,34.51,1
34,34.56,1
34,34.57,1
34,34.56,1
35,34.54,1
34,34.53,1
31,34.49,1
33,34.38,1
34,34.25,1
35,34.14,1
35,34.07,1
34,34.05,1
34,34.03,1
34,34.02,1
34,34.01,1
34,34,1
35,34.01,1
34,34.02,1
34,34.04,1
36,34.08,1
35,34.14,1
34,34.21,1
35,34.28,1
34,34.34,1
34,34.38,1
33,34.39,1
34,34.37,1
33,34.32,1
34,34.26,1
35,34.21,1
34,34.18,1
33,34.15,1
35,34.11,1
34,34.09,1
34,34.08,1
33,34.06,1
35,34.03,1
33,34.01,1
35,34,1
34,33.99,1
34,34,1
34,34,1
33,34,1
34,33.98,1
34,33.95,1
35,33.95,1
34,33.96,1
35,33.99,1
33,34.02,1
34,34.03,1
34,34.03,1
37,34.05,1
37,34.14,1
35,34.29,1
33,34.42,1
33,34.5,1
33,34.5,1
34,34.47,1
34,34.41,1
34,34.36,1
34,34.31,1
35,34.27,1
34,34.25,1
34,34.23,1
33,34.2,1
35,34.16,1
34,34.14,1
35,34.13,1
34,34.14,1
36,34.16,1
34,34.21,1
35,34.26,1
36,34.32,1
34,34.4,1
34,34.47,1
37,34.52,1
34,34.6,1
36,34.68,1
33,34.74,1
35,34.77,1
34,34.78,1
34,34.77,1
34,34.73,1
34,34.68,1
34,34.62,1
34,34.56,1
35,34.5,1
34,34.45,1
36,34.43,1
36,34.44,1
34,34.49,1
34,34.52,1
34,34.53,1
36,34.54,1
34,34.56,1
34,34.57,1
35,34.57,1
34,34.57,1
35,34.57,1
33,34.55,1
34,34.52,1
34,34.46,1
33,34.4,1
34,34.32,1
34,34.25,1
35,34.19,1
34,34.15,1
34,34.13,1
36,34.12,1
34,34.15,1
37,34.2,1
33,34.28,1
36,34.35,1
34,34.42,1
35,34.48,1
34,34.53,1
36,34.57,1
34,34.62,1
34,34.65,1
34,34.66,1
34,34.64,1
34,34.6,1
30,34.52,1
34,34.38,1
34,34.23,1
35,34.11,1
35,34.04,1
32,34,1
30,33.91,1
34,33.76,1
35,33.63,1
35,33.57,1
34,33.56,1
34,33.58,1
34,33.6,1
36,33.65,1
33,33.72,1
33,33.78,1
34,33.81,1
36,33.84,1
33,33.9,1
35,33.95,1
32,33.98,1
35,33.99,1
34,34,1
34,34.02,1
34,34.03,1
36,34.05,1
35,34.11,1
35,34.19,1
33,34.26,1
35,34.31,1
33,34.33,1
35,34.34,1
36,34.36,1
35,34.41,1
34,34.47,1
32,34.49,1
34,34.46,1
35,34.41,1
34,34.38,1
34,34.35,1
34,34.32,1
34,34.28,1
33,34.23,1
32,34.16,1
34,34.06,1
35,33.97,1
34,33.92,1
34,33.89,1
34,33.88,1
34,33.87,1
34,33.86,1
36,33.88,1
34,33.93,1
36,34.01,1
34,34.09,1
34,34.17,1
36,34.25,1
34,34.33,1
35,34.4,1
34,34.46,1
36,34.51,1
34,34.57,1
34,34.61,1
34,34.62,1
34,34.61,1
34,34.58,1
35,34.55,1
34,34.53,1
34,34.5,1
34,34.46,1
37,34.44,1
34,34.46,1
35,34.49,1
34,34.51,1
35,34.53,1
34,34.55,1
35,34.55,1
35,34.57,1
36,34.6,1
34,34.65,1
35,34.68,1
39,34.75,1
34,34.86,1
34,34.96,1
34,35,1
35,35.01,1
35,35.01,1
36,35.02,1
34,35.03,1
34,35.02,1
35,34.99,1
34,34.95,1
34,34.9,1
36,34.85,1
34,34.81,1
34,34.77,1
34,34.72,1
34,34.66,1
34,34.59,1
36,34.53,1
34,34.5,1
34,34.48,1
36,34.47,1
35,34.48,1
30,34.47,1
35,34.41,1
34,34.32,1
35,34.27,1
31,34.21,1
35,34.12,1
35,34.06,1
35,34.03,1
34,34.04,1
35,34.06,1
34,34.09,1
35,34.13,1
34,34.17,1
34,34.2,1
34,34.22,1
35,34.23,1
33,34.24,1
33,34.23,1
34,34.19,1
34,34.14,1
33,34.09,1
34,34.03,1
37,34.01,1
31,34.01,1
34,33.99,1
34,33.95,1
35,33.92,1
34,33.93,1
34,33.94,1
34,33.95,1
35,33.97,1
36,34.02,1
35,34.1,1
34,34.19,1
34,34.27,1
34,34.31,1
35,34.35,1
34,34.38,1
36,34.41,1
35,34.47,1
34,34.53,1
30,34.53,1
35,34.46,1
34,34.37,1
35,34.31,1
33,34.26,1
33,34.2,1
34,34.12,1
34,34.05,1
34,33.99,1
35,33.96,1
35,33.96,1
35,33.99,1
32,34.03,1
35,34.04,1
34,34.04,1
35,34.06,1
33,34.08,1
35,34.09,1
34,34.11,1
34,34.13,1
34,34.13,1
35,34.14,1
34,34.16,1
35,34.19,1
33,34.21,1
34,34.21,1
34,34.2,1
34,34.18,1
36,34.18,1
34,34.2,1
36,34.25,1
34,34.31,1
34,34.36,1
33,34.38,1
35,34.37,1
34,34.36,1
35,34.36,1
36,34.38,1
34,34.42,1
33,34.45,1
36,34.46,1
34,34.47,1
34,34.48,1
35,34.48,1
35,34.49,1
33,34.5,1
34,34.48,1
33,34.44,1
35,34.38,1
35,34.34,1
35,34.33,1
34,34.34,1
34,34.34,1
34,34.33,1
37,34.34,1
33,34.37,1
35,34.4,1
32,34.4,1
35,34.38,1
33,34.34,1
35,34.29,1
34,34.26,1
36,34.25,1
34,34.27,1
34,34.29,1
34,34.29,1
34,34.29,1
34,34.28,1
35,34.26,1
34,34.26,1
33,34.25,1
34,34.22,1
34,34.18,1
36,34.16,1
34,34.18,1
34,34.2,1
34,34.2,1
34,34.2,1
32,34.18,1
34,34.13,1
34,34.06,1
36,34.03,1
33,34.03,1
36,34.04,1
34,34.07,1
37,34.14,1
35,34.24,1
34,34.35,1
33,34.42,1
32,34.43,1
30,34.35,1
35,34.2,1
33,34.06,1
35,33.95,1
35,33.89,1
34,33.86,1
34,33.86,1
35,33.87,1
34,33.9,1
36,33.94,1
34,34.02,1
35,34.09,1
33,34.16,1
35,34.2,1
34,34.24,1
34,34.27,1
36,34.29,1
36,34.35,1
34,34.44,1
34,34.5,1
36,34.55,1
35,34.61,1
36,34.69,1
34,34.76,1
34,34.81,1
34,34.82,1
34,34.81,1
34,34.77,1
34,34.71,1
33,34.64,1
33,34.53,1
34,34.42,1
35,34.31,1
34,34.24,1
34,34.18,1
34,34.14,1
35,34.1,1
38,34.12,1
36,34.22,1
34,34.36,1
34,34.47,1
34,34.53,1
34,34.57,1
34,34.57,1
35,34.57,1
34,34.56,1
34,34.55,1
34,34.52,1
34,34.48,1
34,34.43,1
31,34.36,1
34,34.24,1
35,34.13,1
34,34.06,1
34,34.01,1
34,33.97,1
34,33.94,1
34,33.92,1
34,33.91,1
34,33.9,1
35,33.91,1
35,33.94,1
32,33.98,1
33,33.97,1
34,33.94,1
35,33.91,1
36,33.93,1
34,33.98,1
34,34.04,1
34,34.08,1
36,34.13,1
35,34.2,1
34,34.28,1
34,34.34,1
33,34.37,1
34,34.36,1
34,34.34,1
35,34.31,1
35,34.31,1
35,34.33,1
34,34.36,1
35,34.39,1
34,34.41,1
35,34.43,1
35,34.46,1
34,34.49,1
34,34.5,1
35,34.51,1
36,34.52,1
34,34.56,1
34,34.59,1
34,34.59,1
35,34.58,1
35,34.58,1
34,34.58,1
35,34.58,1
33,34.57,1
34,34.54,1
34,34.48,1
34,34.43,1
32,34.36,1
36,34.27,1
34,34.22,1
35,34.19,1
32,34.17,1
36,34.13,1
34,34.12,1
34,34.12,1
34,34.12,1
34,34.12,1
34,34.11,1
35,34.11,1
35,34.13,1
34,34.16,1
34,34.19,1
34,34.21,1
35,34.22,1
34,34.24,1
35,34.26,1
35,34.3,1
36,34.35,1
33,34.42,1
34,34.45,1
34,34.46,1
34,34.45,1
34,34.42,1
34,34.39,1
35,34.36,1
34,34.34,1
34,34.33,1
34,34.3,1
33,34.27,1
34,34.22,1
34,34.16,1
35,34.12,1
34,34.11,1
35,34.11,1
34,34.12,1
34,34.13,1
34,34.14,1
34,34.14,1
34,34.13,1
36,34.14,1
34,34.18,1
35,34.22,1
34,34.26,1
33,34.29,1
35,34.29,1
33,34.28,1
34,34.26,1
36,34.24,1
34,34.25,1
34,34.27,1
36,34.29,1
34,34.32,1
34,34.36,1
34,34.37,1
34,34.37,1
34,34.36,1
34,34.34,1
34,34.31,1
35,34.29,1
34,34.28,1
34,34.27,1
34,34.25,1
35,34.24,1
34,34.24,1
33,34.23,1
34,34.2,1
35,34.17,1
35,34.17,1
34,34.18,1
33,34.19,1
34,34.17,1
34,34.15,1
35,34.13,1
34,34.13,1
34,34.13,1
33,34.12,1
35,34.1,1
34,34.09,1
34,34.09,1
35,34.09,1
35,34.12,1
34,34.15,1
34,34.19,1
33,34.2,1
35,34.19,1
34,34.19,1
35,34.2,1
34,34.21,1
34,34.23,1
34,34.23,1
34,34.22,1
34,34.21,1
34,34.2,1
34,34.18,1
34,34.16,1
36,34.15,1
34,34.18,1
34,34.21,1
34,34.22,1
34,34.23,1
34,34.22,1
35,34.22,1
33,34.22,1
35,34.21,1
34,34.21,1
35,34.21,1
34,34.23,1
35,34.25,1
36,34.29,1
35,34.36,1
33,34.42,1
35,34.46,1
32,34.46,1
32,34.41,1
34,34.31,1
32,34.19,1
34,34.06,1
35,33.95,1
33,33.87,1
34,33.81,1
34,33.77,1
34,33.74,1
34,33.72,1
35,33.73,1
34,33.76,1
34,33.8,1
34,33.84,1
34,33.87,1
34,33.9,1
34,33.92,1
33,33.94,1
34,33.93,1
34,33.93,1
33,33.91,1
34,33.89,1
34,33.87,1
34,33.86,1
34,33.85,1
35,33.86,1
34,33.89,1
34,33.92,1
34,33.95,1
34,33.97,1
34,33.99,1
35,34.01,1
34,34.05,1
36,34.09,1
34,34.16,1
31,34.2,1
34,34.17,1
35,34.13,1
34,34.11,1
35,34.1,1
35,34.12,1
34,34.16,1
34,34.19,1
34,34.2,1
33,34.2,1
34,34.18,1
36,34.16,1
35,34.18,1
34,34.23,1
35,34.27,1
33,34.3,1
35,34.32,1
33,34.32,1
33,34.29,1
33,34.23,1
34,34.15,1
34,34.08,1
34,34.02,1
33,33.97,1
35,33.92,1
36,33.91,1
34,33.95,1
34,33.99,1
35,34.04,1
34,34.08,1
34,34.13,1
34,34.15,1
34,34.17,1
34,34.18,1
33,34.17,1
35,34.15,1
34,34.14,1
35,34.14,1
34,34.15,1
33,34.16,1
34,34.14,1
34,34.11,1
34,34.09,1
35,34.08,1
35,34.09,1
34,34.12,1
34,34.15,1
34,34.17,1
34,34.17,1
36,34.19,1
34,34.23,1
35,34.27,1
34,34.32,1
34,34.35,1
34,34.36,1
35,34.36,1
33,34.36,1
35,34.35,1
33,34.33,1
34,34.3,1
34,34.25,1
36,34.23,1
34,34.23,1
34,34.25,1
34,34.25,1
35,34.25,1
34,34.26,1
35,34.27,1
34,34.29,1
36,34.32,1
34,34.37,1
36,34.42,1
34,34.48,1
36,34.54,1
34,34.61,1
34,34.65,1
34,34.66,1
35,34.66,1
34,34.65,1
34,34.63,1
35,34.6,1
34,34.58,1
35,34.56,1
34,34.54,1
35,34.53,1
34,34.51,1
36,34.51,1
34,34.53,1
37,34.56,1
36,34.64,1
36,34.74,1
34,34.85,1
35,34.93,1
34,34.97,1
35,34.99,1
35,35,1
34,35,1
34,34.97,1
32,34.9,1
32,34.77,1
35,34.61,1
34,34.46,1
33,34.34,1
34,34.21,1
34,34.11,1
34,34.02,1
34,33.95,1
34,33.9,1
36,33.89,1
33,33.9,1
35,33.92,1
33,33.94,1
34,33.95,1
33,33.94,1
33,33.91,1
34,33.87,1
33,33.83,1
34,33.78,1
35,33.75,1
34,33.76,1
34,33.78,1
35,33.81,1
35,33.86,1
34,33.93,1
36,34.01,1
35,34.11,1
34,34.22,1
35,34.31,1
33,34.37,1
35,34.41,1
35,34.44,1
35,34.49,1
32,34.51,1
35,34.5,1
33,34.46,1
34,34.41,1
34,34.35,1
32,34.28,1
34,34.18,1
33,34.08,1
33,33.97,1
35,33.88,1
34,33.81,1
34,33.78,1
35,33.77,1
37,33.81,1
34,33.91,1
34,34.01,1
30,34.05,1
35,34.02,1
34,33.99,1
34,33.97,1
34,33.95,1
35,33.95,1
35,33.98,1
34,34.02,1
34,34.06,1
34,34.09,1
35,34.12,1
34,34.15,1
35,34.19,1
34,34.23,1
35,34.27,1
34,34.3,1
34,34.33,1
35,34.35,1
35,34.37,1
34,34.4,1
34,34.42,1
34,34.42,1
35,34.42,1
34,34.42,1
35,34.42,1
34,34.42,1
35,34.43,1
33,34.43,1
34,34.41,1
33,34.36,1
34,34.29,1
32,34.21,1
35,34.12,1
34,34.04,1
34,33.99,1
34,33.95,1
35,33.93,1
34,33.94,1
35,33.96,1
34,33.99,1
35,34.03,1
34,34.08,1
35,34.13,1
34,34.18,1
34,34.22,1
36,34.26,1
34,34.31,1
34,34.36,1
36,34.4,1
34,34.45,1
34,34.49,1
34,34.51,1
34,34.5,1
37,34.51,1
34,34.54,1
36,34.59,1
34,34.64,1
31,34.65,1
34,34.59,1
34,34.5,1
34,34.41,1
34,34.33,1
34,34.26,1
36,34.22,1
35,34.22,1
34,34.24,1
33,34.25,1
36,34.25,1
33,34.26,1
34,34.26,1
33,34.23,1
35,34.19,1
34,34.17,1
34,34.15,1
33,34.13,1
35,34.1,1
34,34.08,1
34,34.07,1
33,34.05,1
34,34.02,1
35,33.99,1
34,33.99,1
35,34.01,1
35,34.04,1
34,34.09,1
34,34.14,1
34,34.16,1
36,34.2,1
34,34.25,1
34,34.3,1
33,34.31,1
34,34.3,1
34,34.27,1
34,34.24,1
34,34.21,1
34,34.18,1
33,34.15,1
34,34.1,1
34,34.05,1
34,34.01,1
34,33.98,1
33,33.95,1
34,33.91,1
34,33.88,1
34,33.86,1
36,33.86,1
35,33.91,1
34,33.98,1
35,34.05,1
33,34.11,1
35,34.16,1
34,34.19,1
36,34.24,1
33,34.29,1
31,34.29,1
33,34.22,1
34,34.12,1
34,34.03,1
34,33.96,1
34,33.91,1
34,33.87,1
36,33.87,1
35,33.91,1
33,33.96,1
35,34.01,1
34,34.05,1
34,34.09,1
33,34.11,1
36,34.12,1
36,34.16,1
32,34.22,1
33,34.24,1
34,34.21,1
36,34.19,1
34,34.2,1
34,34.22,1
33,34.22,1
34,34.19,1
34,34.16,1
34,34.13,1
34,34.1,1
35,34.09,1
34,34.09,1
37,34.12,1
34,34.19,1
35,34.26,1
33,34.32,1
35,34.36,1
36,34.4,1
34,34.46,1
33,34.49,1
34,34.49,1
34,34.46,1
34,34.43,1
34,34.39,1
34,34.34,1
34,34.3,1
35,34.26,1
34,34.24,1
35,34.24,1
33,34.23,1
36,34.23,1
34,34.24,1
35,34.27,1
32,34.28,1
34,34.26,1
33,34.21,1
35,34.15,1
34,34.12,1
35,34.1,1
34,34.1,1
35,34.11,1
34,34.14,1
35,34.17,1
34,34.2,1
34,34.23,1
36,34.26,1
36,34.32,1
34,34.4,1
35,34.48,1
32,34.52,1
35,34.52,1
36,34.52,1
33,34.54,1
36,34.55,1
34,34.56,1
34,34.57,1
34,34.56,1
34,34.53,1
33,34.48,1
35,34.43,1
34,34.37,1
35,34.34,1
34,34.32,1
34,34.3,1
34,34.28,1
35,34.26,1
34,34.25,1
35,34.25,1
34,34.26,1
35,34.28,1
33,34.29,1
35,34.29,1
33,34.28,1
34,34.25,1
36,34.24,1
34,34.25,1
34,34.26,1
36,34.28,1
34,34.32,1
35,34.36,1
34,34.4,1
35,34.43,1
36,34.48,1
35,34.54,1
34,34.61,1
34,34.64,1
34,34.65,1
34,34.64,1
34,34.6,1
34,34.56,1
34,34.51,1
36,34.47,1
34,34.46,1
34,34.45,1
33,34.42,1
34,34.37,1
34,34.31,1
33,34.24,1
34,34.17,1
34,34.1,1
34,34.05,1
34,34,1
34,33.97,1
34,33.94,1
35,33.93,1
34,33.95,1
34,33.97,1
34,33.98,1
32,33.98,1
34,33.94,1
35,33.91,1
34,33.9,1
36,33.93,1
34,33.98,1
35,34.04,1
34,34.11,1
35,34.17,1
34,34.23,1
34,34.27,1
35,34.31,1
34,34.34,1
35,34.37,1
34,34.39,1
34,34.41,1
35,34.42,1
34,34.42,1
34,34.42,1
33,34.4,1
36,34.37,1
34,34.36,1
34,34.36,1
34,34.35,1
34,34.32,1
34,34.3,1
34,34.27,1
34,34.23,1
35,34.21,1
34,34.2,1
34,34.2,1
34,34.19,1
33,34.16,1
34,34.13,1
34,34.08,1
34,34.05,1
34,34.02,1
35,34.01,1
34,34.01,1
35,34.03,1
34,34.06,1
35,34.1,1
34,34.14,1
35,34.19,1
36,34.25,1
35,34.33,1
34,34.42,1
34,34.48,1
35,34.52,1
34,34.55,1
36,34.58,1
32,34.6,1
34,34.58,1
35,34.53,1
33,34.49,1
34,34.44,1
32,34.35,1
34,34.25,1
34,34.14,1
34,34.06,1
32,33.98,1
35,33.89,1
34,33.83,1
36,33.81,1
34,33.83,1
34,33.88,1
36,33.93,1
34,34,1
34,34.07,1
34,34.13,1
33,34.15,1
33,34.15,1
34,34.11,1
33,34.06,1
34,34.01,1
34,33.96,1
34,33.92,1
34,33.9,1
35,33.89,1
33,33.9,1
34,33.9,1
33,33.88,1
35,33.87,1
34,33.87,1
35,33.89,1
34,33.93,1
35,33.97,1
33,34.02,1
35,34.05,1
34,34.08,1
34,34.11,1
34,34.13,1
34,34.14,1
34,34.14,1
35,34.15,1
34,34.17,1
35,34.19,1
34,34.22,1
35,34.25,1
33,34.27,1
34,34.27,1
33,34.25,1
35,34.21,1
34,34.19,1
35,34.18,1
