47.00,75.63,0
76.00,73.49,0
39.00,71.41,0
43.00,69.08,0
45.00,66.42,0
51.00,63.73,0
44.00,61.15,0
45.00,58.68,0
38.00,56.29,0
39.00,53.93,0
66.00,51.87,0
57.00,50.46,0
40.00,49.55,0
51.00,48.77,0
57.00,48.21,0
46.00,47.94,0
40.00,47.71,0
100.00,47.83,0
57.00,48.80,0
80.00,50.36,0
68.00,52.23,0
49.00,54.12,0
76.00,55.76,0
47.00,57.22,0
59.00,58.33,0
79.00,59.26,0
120.00,60.79,0
61.00,63.10,0
94.00,65.54,0
43.00,67.65,0
50.00,68.91,0
44.00,69.11,0
60.00,68.62,0
35.00,67.62,0
89.00,66.44,0
39.00,65.42,0
42.00,64.21,0
68.00,62.74,0
37.00,61.33,0
67.00,59.96,0
51.00,58.76,0
54.00,57.76,0
78.00,57.05,0
94.00,57.13,0
46.00,57.89,0
64.00,58.62,0
71.00,59.26,0
80.00,60.16,0
86.00,61.48,0
92.00,63.29,0
55.00,65.27,0
85.00,66.98,0
56.00,68.40,0
95.00,69.62,0
44.00,70.65,0
56.00,71.07,0
121.00,71.32,0
80.00,72.29,0
35.00,73.25,0
50.00,73.22,0
49.00,72.28,0
50.00,70.82,0
35.00,68.89,0
46.00,66.51,0
41.00,63.89,0
77.00,61.48,0
88.00,59.96,0
47.00,59.32,0
66.00,58.92,0
39.00,58.47,0
70.00,57.97,0
64.00,57.67,0
107.00,58.07,0
67.00,59.32,0
73.00,60.92,0
106.00,62.75,0
102.00,65.27,0
68.00,68.16,0
98.00,70.89,0
82.00,73.47,0
127.00,76.23,0
63.00,79.10,0
106.00,81.64,0
77.00,83.78,0
90.00,85.53,0
35.00,86.43,0
45.00,85.93,0
35.00,84.00,0
156.00,82.00,0
40.00,80.97,0
42.00,79.80,0
45.00,77.67,0
73.00,75.17,0
66.00,72.91,0
75.00,71.09,0
48.00,69.54,0
53.00,67.92,0
50.00,66.12,0
77.00,64.47,0
77.00,63.41,0
80.00,63.09,0
70.00,63.29,0
94.00,63.96,0
69.00,65.05,0
104.00,66.51,0
134.00,68.81,0
104.00,72.22,0
88.00,75.98,0
67.00,79.19,0
118.00,81.83,0
126.00,84.68,0
111.00,88.02,0
87.00,91.24,0
41.00,93.36,0
63.00,93.79,0
109.00,93.31,0
36.00,92.47,0
58.00,90.76,0
42.00,88.06,0
34.00,84.55,0
51.00,80.42,0
34.00,76.03,0
70.00,71.74,0
43.00,67.91,0
38.00,64.35,0
45.00,60.88,0
41.00,57.62,0
68.00,54.85,0
48.00,52.79,0
117.00,51.81,0
117.00,52.66,0
81.00,55.13,0
96.00,58.28,0
79.00,61.67,0
136.00,65.43,0
93.00,69.79,0
101.00,74.29,0
80.00,78.36,0
138.00,82.15,0
58.00,85.74,0
114.00,88.68,0
100.00,91.16,0
105.00,93.50,0
60.00,95.25,0
85.00,95.98,0
139.00,96.42,0
64.00,97.09,0
55.00,97.05,0
66.00,95.80,0
43.00,93.58,0
37.00,90.34,0
37.00,86.16,0
38.00,81.35,0
89.00,76.67,0
59.00,72.85,0
33.00,69.53,0
68.00,66.29,0
84.00,63.74,0
83.00,62.32,0
103.00,62.11,0
111.00,63.20,0
130.00,65.70,0
120.00,69.48,0
111.00,74.02,0
109.00,78.74,0
111.00,83.37,0
127.00,87.91,0
110.00,92.39,0
133.00,96.71,0
169.00,101.29,0
129.00,106.38,0
102.00,111.11,0
96.00,114.57,0
90.00,116.60,0
84.00,117.27,0
76.00,116.66,0
54.00,114.75,0
34.00,111.31,0
76.00,106.63,0
48.00,101.48,0
38.00,95.95,0
37.00,89.90,0
48.00,83.64,0
72.00,77.82,0
33.00,72.68,0
95.00,68.30,0
35.00,64.85,0
55.00,61.90,0
59.00,59.30,0
113.00,57.72,0
113.00,57.92,0
71.00,59.55,0
168.00,62.32,0
112.00,66.66,0
74.00,71.61,0
122.00,76.16,0
91.00,80.48,0
126.00,84.66,0
103.00,88.73,0
93.00,92.41,0
106.00,95.41,0
93.00,97.82,0
43.00,99.18,0
75.00,99.02,0
43.00,97.56,0
77.00,95.18,0
38.00,92.18,0
69.00,88.68,0
35.00,84.84,0
59.00,80.75,0
81.00,76.91,0
44.00,73.64,0
63.00,70.64,0
40.00,67.76,0
79.00,65.17,0
39.00,63.00,0
65.00,61.10,0
67.00,59.59,0
100.00,58.96,0
75.00,59.34,0
64.00,60.27,0
93.00,61.44,0
129.00,63.43,0
90.00,66.50,0
157.00,70.48,0
87.00,75.24,0
124.00,80.14,0
110.00,84.88,0
135.00,89.64,0
46.00,93.81,0
82.00,96.44,0
68.00,97.56,0
91.00,97.72,0
65.00,97.22,0
57.00,95.93,0
47.00,93.62,0
45.00,90.41,0
38.00,86.42,0
38.00,81.82,0
59.00,77.05,0
40.00,72.50,0
35.00,68.08,0
39.00,63.70,0
68.00,59.77,0
66.00,56.80,0
58.00,54.79,0
54.00,53.40,0
109.00,52.85,0
105.00,53.79,0
127.00,56.43,0
72.00,60.14,0
48.00,63.60,0
95.00,66.31,0
95.00,68.93,0
126.00,72.03,0
110.00,75.78,0
116.00,79.97,0
112.00,84.26,0
110.00,88.46,0
80.00,92.12,0
40.00,94.44,0
79.00,95.04,0
74.00,94.61,0
68.00,93.58,0
53.00,91.89,0
45.00,89.38,0
56.00,86.16,0
91.00,82.91,0
39.00,79.99,0
99.00,77.35,0
40.00,75.07,0
39.00,72.65,0
37.00,69.70,0
43.00,66.43,0
54.00,63.22,0
62.00,60.44,0
81.00,58.49,0
124.00,57.94,0
102.00,59.17,0
79.00,61.51,0
94.00,64.19,0
118.00,67.28,0
128.00,71.19,0
129.00,75.99,0
152.00,81.56,0
127.00,87.72,0
120.00,93.87,0
127.00,99.51,0
101.00,104.44,0
168.00,108.84,0
65.00,112.73,0
102.00,115.27,0
41.00,115.95,0
78.00,114.77,0
93.00,112.47,0
45.00,109.55,0
41.00,105.54,0
86.00,100.77,0
50.00,95.98,0
43.00,91.05,0
41.00,85.76,0
70.00,80.51,0
42.00,75.71,0
39.00,71.14,0
82.00,66.99,0
49.00,63.70,0
74.00,61.19,0
73.00,59.50,0
118.00,59.04,0
100.00,60.11,0
117.00,62.55,0
53.00,65.53,0
148.00,68.69,0
89.00,72.45,0
138.00,76.76,0
47.00,80.89,0
114.00,84.21,0
54.00,86.67,0
102.00,88.36,0
61.00,89.36,0
121.00,90.01,0
57.00,90.51,0
74.00,90.44,0
47.00,89.48,0
164.00,88.53,0
48.00,88.38,0
47.00,87.88,0
35.00,86.06,0
44.00,83.16,0
53.00,79.66,0
34.00,75.88,0
34.00,71.78,0
36.00,67.43,0
91.00,63.51,0
52.00,60.68,0
102.00,58.96,0
61.00,58.33,0
127.00,58.83,0
36.00,60.17,0
104.00,61.70,0
93.00,63.60,0
104.00,66.20,0
105.00,69.35,0
116.00,73.02,0
102.00,77.02,0
144.00,81.35,0
99.00,86.02,0
85.00,90.25,0
94.00,93.47,0
138.00,96.23,0
85.00,98.91,0
83.00,100.90,0
66.00,101.70,0
53.00,101.15,0
46.00,99.19,0
36.00,95.90,0
33.00,91.47,0
43.00,86.30,0
48.00,80.89,0
34.00,75.53,0
58.00,70.40,0
41.00,65.75,0
82.00,61.88,0
53.00,59.03,0
101.00,57.31,0
51.00,56.63,0
114.00,56.86,0
105.00,58.32,0
90.00,60.91,0
93.00,63.99,0
135.00,67.62,0
102.00,71.97,0
140.00,76.85,0
123.00,82.21,0
156.00,88.04,0
110.00,94.05,0
136.00,99.75,0
114.00,104.88,0
127.00,109.37,0
108.00,113.10,0
102.00,115.87,0
67.00,117.27,0
80.00,117.06,0
45.00,115.28,0
74.00,112.14,0
57.00,108.11,0
41.00,103.38,0
38.00,97.82,0
84.00,92.03,0
35.00,86.58,0
37.00,81.14,0
51.00,75.65,0
54.00,70.57,0
62.00,66.20,0
50.00,62.58,0
128.00,60.16,0
112.00,59.80,0
104.00,61.33,0
141.00,64.28,0
123.00,68.62,0
127.00,73.91,0
156.00,79.88,0
72.00,86.00,0
138.00,91.43,0
166.00,96.78,0
118.00,102.51,0
127.00,107.85,0
134.00,112.52,0
94.00,116.39,0
180.00,119.64,0
52.00,122.33,0
115.00,123.63,0
53.00,123.30,0
72.00,121.41,0
41.00,117.92,0
47.00,113.02,0
42.00,107.04,0
53.00,100.46,0
66.00,93.91,0
45.00,87.72,0
50.00,81.81,0
49.00,76.22,0
74.00,71.28,0
56.00,67.27,0
126.00,64.57,0
88.00,63.64,0
83.00,64.03,0
78.00,64.95,0
96.00,66.27,0
126.00,68.37,0
150.00,71.80,0
151.00,76.81,0
141.00,83.00,0
127.00,89.59,0
142.00,96.08,0
125.00,102.27,0
144.00,108.02,0
105.00,113.11,0
140.00,117.31,0
77.00,120.45,0
78.00,121.91,0
49.00,121.33,0
71.00,118.92,0
62.00,115.24,0
53.00,110.67,0
44.00,105.30,0
80.00,99.57,0
53.00,94.05,0
36.00,88.58,0
46.00,82.91,0
64.00,77.45,0
44.00,72.54,0
59.00,68.15,0
99.00,64.72,0
86.00,62.81,0
100.00,62.34,0
99.00,63.11,0
125.00,65.09,0
118.00,68.33,0
138.00,72.64,0
131.00,77.86,0
144.00,83.77,0
116.00,89.91,0
127.00,95.76,0
136.00,101.22,0
158.00,106.63,0
138.00,112.08,0
115.00,117.06,0
66.00,120.55,0
128.00,122.32,0
104.00,123.15,0
114.00,123.43,0
86.00,123.01,0
59.00,121.47,0
48.00,118.38,0
63.00,113.88,0
36.00,108.43,0
40.00,102.13,0
38.00,95.25,0
38.00,88.14,0
40.00,81.10,0
44.00,74.42,0
59.00,68.42,0
46.00,63.32,0
72.00,59.19,0
38.00,55.98,0
99.00,53.73,0
116.00,53.15,0
114.00,54.63,0
127.00,57.84,0
89.00,62.15,0
127.00,66.94,0
160.00,72.52,0
151.00,79.35,0
141.00,86.92,0
114.00,94.31,0
175.00,101.31,0
105.00,107.99,0
119.00,113.66,0
77.00,117.67,0
144.00,120.27,0
83.00,121.97,0
62.00,122.30,0
59.00,120.70,0
51.00,117.40,0
58.00,112.82,0
44.00,107.36,0
34.00,101.14,0
35.00,94.29,0
40.00,87.15,0
112.00,80.72,0
59.00,75.84,0
67.00,72.07,0
84.00,69.12,0
84.00,67.23,0
111.00,66.58,0
110.00,67.34,0
147.00,69.65,0
127.00,73.50,0
114.00,78.26,0
145.00,83.42,0
98.00,88.73,0
161.00,93.99,0
144.00,99.55,0
105.00,105.06,0
138.00,109.84,0
96.00,113.78,0
125.00,116.78,0
78.00,118.70,0
103.00,119.40,0
92.00,119.10,0
110.00,118.21,0
66.00,116.74,0
58.00,114.25,0
46.00,110.47,0
63.00,105.71,0
55.00,100.47,0
56.00,95.05,0
40.00,89.49,0
36.00,83.73,0
51.00,77.93,0
58.00,72.58,0
60.00,67.98,0
65.00,64.25,0
80.00,61.52,0
38.00,59.59,0
118.00,58.42,0
96.00,58.65,0
90.00,60.20,0
137.00,62.80,0
148.00,66.93,0
164.00,72.77,0
188.00,80.28,0
123.00,88.82,0
128.00,97.01,0
90.00,103.91,0
155.00,109.53,0
92.00,114.26,0
125.00,117.90,0
153.00,120.87,0
82.00,123.36,0
76.00,124.42,0
69.00,123.61,0
46.00,121.04,0
42.00,116.74,0
48.00,111.07,0
55.00,104.68,0
47.00,98.05,0
119.00,91.98,0
52.00,87.12,0
61.00,82.89,0
79.00,79.03,0
74.00,75.91,0
77.00,73.54,0
99.00,72.01,0
76.00,71.37,0
155.00,71.90,0
282.00,75.42,0
136.00,82.67,0
137.00,91.16,0
105.00,98.85,0
154.00,105.57,0
138.00,111.74,0
128.00,117.34,0
124.00,122.01,0
78.00,125.26,0
115.00,126.85,0
99.00,127.23,0
65.00,126.43,0
104.00,124.39,0
67.00,121.53,0
82.00,117.98,0
59.00,113.76,0
75.00,109.08,0
50.00,104.05,0
58.00,98.71,0
36.00,93.05,0
35.00,87.03,0
38.00,80.76,0
39.00,74.55,0
93.00,69.10,0
61.00,65.04,0
86.00,62.29,0
74.00,60.69,0
135.00,60.51,0
52.00,61.65,0
146.00,63.66,0
76.00,66.54,0
127.00,70.04,0
49.00,73.51,0
130.00,76.66,0
127.00,80.11,0
43.00,83.62,0
116.00,86.24,0
135.00,88.77,0
69.00,91.52,0
97.00,93.64,0
95.00,95.12,0
102.00,96.31,0
76.00,97.13,0
63.00,97.16,0
68.00,96.19,0
36.00,94.21,0
43.00,91.11,0
53.00,87.19,0
36.00,82.85,0
39.00,78.16,0
45.00,73.34,0
46.00,68.69,0
37.00,64.33,0
81.00,60.56,0
83.00,58.02,0
83.00,56.91,0
94.00,57.03,0
118.00,58.46,0
151.00,61.59,0
97.00,66.23,0
126.00,71.46,0
151.00,77.22,0
122.00,83.60,0
155.00,90.24,0
131.00,96.94,0
148.00,103.51,0
154.00,109.89,0
114.00,115.82,0
170.00,121.05,0
89.00,125.52,0
67.00,128.20,0
43.00,128.21,0
35.00,125.55,0
91.00,121.07,0
40.00,115.79,0
98.00,110.18,0
40.00,104.55,0
54.00,98.73,0
87.00,93.00,0
56.00,87.91,0
50.00,83.20,0
44.00,78.51,0
71.00,74.08,0
61.00,70.31,0
70.00,67.30,0
79.00,65.10,0
116.00,64.13,0
86.00,64.54,0
125.00,66.13,0
97.00,68.72,0
131.00,72.14,0
89.00,76.06,0
116.00,80.03,0
58.00,83.54,0
116.00,86.31,0
92.00,88.72,0
114.00,91.04,0
88.00,93.17,0
92.00,94.86,0
88.00,95.99,0
70.00,96.46,0
71.00,96.10,0
51.00,94.82,0
36.00,92.44,0
55.00,89.04,0
62.00,85.23,0
34.00,81.29,0
52.00,77.10,0
50.00,72.93,0
35.00,68.89,0
36.00,64.83,0
53.00,60.93,0
39.00,57.44,0
67.00,54.53,0
104.00,52.82,0
77.00,52.67,0
62.00,53.47,0
59.00,54.45,0
123.00,55.91,0
138.00,58.84,0
106.00,63.30,0
115.00,68.44,0
78.00,73.51,0
102.00,78.02,0
110.00,82.11,0
92.00,85.92,0
73.00,89.01,0
84.00,91.07,0
79.00,92.26,0
78.00,92.77,0
46.00,92.41,0
65.00,91.01,0
32.00,88.65,0
68.00,85.56,0
61.00,82.27,0
54.00,79.07,0
35.00,75.71,0
48.00,72.07,0
62.00,68.52,0
49.00,65.38,0
38.00,62.47,0
37.00,59.54,0
39.00,56.59,0
52.00,53.85,0
102.00,52.02,0
50.00,51.45,0
60.00,51.48,0
72.00,51.81,0
104.00,52.90,0
112.00,55.22,0
89.00,58.61,0
92.00,62.41,0
66.00,66.03,0
98.00,69.26,0
93.00,72.35,0
123.00,75.69,0
114.00,79.46,0
99.00,83.42,0
74.00,86.86,0
86.00,89.35,0
58.00,90.80,0
89.00,91.31,0
78.00,91.26,0
43.00,90.59,0
38.00,88.75,0
34.00,85.66,0
37.00,81.67,0
38.00,77.15,0
37.00,72.41,0
42.00,67.68,0
34.00,63.13,0
35.00,58.78,0
81.00,55.06,0
67.00,52.60,0
68.00,51.33,0
78.00,51.01,0
73.00,51.54,0
94.00,52.87,0
105.00,55.17,0
90.00,58.34,0
96.00,61.98,0
95.00,65.81,0
100.00,69.73,0
109.00,73.74,0
104.00,77.84,0
96.00,81.80,0
94.00,85.33,0
54.00,87.99,0
77.00,89.40,0
59.00,89.72,0
75.00,89.22,0
48.00,88.02,0
106.00,86.49,0
66.00,85.15,0
57.00,83.76,0
39.00,81.74,0
50.00,79.02,0
35.00,75.78,0
42.00,72.14,0
50.00,68.38,0
51.00,64.86,0
74.00,61.91,0
59.00,59.75,0
110.00,58.63,0
65.00,58.70,0
127.00,59.85,0
80.00,62.04,0
114.00,64.99,0
70.00,68.20,0
110.00,71.40,0
93.00,74.63,0
112.00,78.00,0
98.00,81.41,0
123.00,84.87,0
63.00,88.06,0
126.00,90.68,0
66.00,92.82,0
113.00,94.44,0
42.00,95.31,0
64.00,94.97,0
48.00,93.39,0
115.00,91.36,0
60.00,89.59,0
67.00,87.78,0
38.00,85.40,0
36.00,82.26,0
42.00,78.42,0
35.00,74.20,0
42.00,69.80,0
57.00,65.61,0
56.00,62.00,0
47.00,59.00,0
81.00,56.68,0
64.00,55.30,0
82.00,54.83,0
82.00,55.21,0
101.00,56.56,0
57.00,58.53,0
94.00,60.65,0
123.00,63.31,0
156.00,67.34,0
99.00,72.62,0
134.00,78.27,0
96.00,83.80,0
125.00,88.96,0
66.00,93.35,0
157.00,97.02,0
57.00,100.21,0
85.00,102.25,0
52.00,102.73,0
85.00,101.97,0
38.00,100.15,0
44.00,97.17,0
36.00,93.03,0
44.00,88.13,0
48.00,82.90,0
66.00,77.88,0
35.00,73.27,0
40.00,68.80,0
46.00,64.47,0
40.00,60.46,0
74.00,57.07,0
90.00,54.92,0
81.00,54.24,0
76.00,54.65,0
104.00,55.95,0
81.00,58.10,0
109.00,60.91,0
105.00,64.37,0
152.00,68.78,0
111.00,74.15,0
99.00,79.68,0
96.00,84.60,0
123.00,88.96,0
123.00,93.18,0
127.00,97.41,0
82.00,101.20,0
80.00,103.79,0
76.00,104.94,0
85.00,104.96,0
68.00,104.10,0
70.00,102.38,0
35.00,99.70,0
60.00,96.02,0
45.00,91.72,0
36.00,86.94,0
36.00,81.71,0
42.00,76.28,0
46.00,70.99,0
51.00,66.16,0
53.00,61.95,0
60.00,58.51,0
112.00,56.31,0
70.00,55.70,0
111.00,56.39,0
70.00,58.04,0
90.00,60.19,0
102.00,62.74,0
115.00,65.98,0
103.00,69.88,0
138.00,74.33,0
62.00,78.90,0
115.00,82.89,0
109.00,86.49,0
135.00,90.23,0
104.00,94.09,0
114.00,97.69,0
59.00,100.42,0
101.00,101.92,0
72.00,102.44,0
43.00,101.82,0
39.00,99.58,0
49.00,95.99,0
47.00,91.61,0
38.00,86.73,0
65.00,81.71,0
69.00,77.15,0
51.00,73.24,0
49.00,69.66,0
64.00,66.40,0
53.00,63.62,0
70.00,61.40,0
51.00,59.69,0
92.00,58.60,0
116.00,58.73,0
110.00,60.51,0
55.00,63.10,0
126.00,65.84,0
121.00,69.30,0
136.00,73.81,0
112.00,78.98,0
159.00,84.60,0
108.00,90.52,0
140.00,96.28,0
121.00,101.67,0
117.00,106.54,0
57.00,110.11,0
103.00,111.95,0
74.00,112.42,0
99.00,111.95,0
68.00,110.70,0
61.00,108.55,0
62.00,105.41,0
48.00,101.48,0
48.00,96.83,0
36.00,91.56,0
53.00,85.97,0
35.00,80.33,0
75.00,75.02,0
49.00,70.44,0
77.00,66.70,0
104.00,64.20,0
106.00,63.40,0
88.00,64.04,0
101.00,65.59,0
89.00,67.73,0
124.00,70.45,0
123.00,73.99,0
134.00,78.40,0
93.00,83.17,0
127.00,87.74,0
115.00,92.12,0
135.00,96.48,0
69.00,100.35,0
146.00,103.43,0
79.00,105.99,0
86.00,107.66,0
62.00,107.95,0
89.00,107.07,0
48.00,105.25,0
76.00,102.54,0
45.00,99.13,0
40.00,94.95,0
44.00,90.05,0
38.00,84.72,0
34.00,79.14,0
52.00,73.59,0
36.00,68.38,0
39.00,63.50,0
81.00,59.31,0
133.00,56.93,0
86.00,56.82,0
59.00,57.88,0
84.00,59.14,0
92.00,60.79,0
134.00,63.35,0
96.00,66.99,0
133.00,71.34,0
106.00,76.15,0
120.00,81.14,0
129.00,86.17,0
136.00,91.39,0
109.00,96.56,0
122.00,101.23,0
111.00,105.26,0
87.00,108.41,0
54.00,110.01,0
86.00,109.91,0
81.00,108.75,0
103.00,107.17,0
73.00,105.40,0
59.00,103.12,0
40.00,99.89,0
58.00,95.77,0
43.00,91.12,0
56.00,86.23,0
47.00,81.34,0
42.00,76.51,0
35.00,71.68,0
35.00,66.84,0
67.00,62.38,0
80.00,58.98,0
98.00,57.14,0
103.00,57.01,0
107.00,58.42,0
41.00,60.52,0
152.00,62.95,0
115.00,66.52,0
136.00,71.31,0
104.00,76.66,0
102.00,81.87,0
114.00,86.61,0
223.00,91.92,0
101.00,98.41,0
112.00,104.53,0
87.00,109.13,0
90.00,112.12,0
106.00,113.76,0
63.00,114.26,0
49.00,113.17,0
36.00,110.23,0
52.00,105.77,0
35.00,100.32,0
52.00,94.30,0
87.00,88.47,0
38.00,83.30,0
51.00,78.38,0
45.00,73.58,0
69.00,69.23,0
56.00,65.61,0
80.00,62.85,0
136.00,61.58,0
127.00,62.54,0
128.00,65.50,0
91.00,69.51,0
104.00,73.69,0
169.00,78.31,0
137.00,84.01,0
131.00,90.30,0
149.00,96.65,0
106.00,102.70,0
152.00,108.13,0
112.00,113.01,0
114.00,117.03,0
36.00,119.33,0
91.00,119.42,0
86.00,118.06,0
65.00,115.83,0
78.00,112.71,0
37.00,108.74,0
34.00,103.65,0
48.00,97.57,0
41.00,91.13,0
36.00,84.59,0
54.00,78.19,0
63.00,72.45,0
74.00,67.79,0
78.00,64.41,0
84.00,62.31,0
59.00,61.18,0
91.00,60.73,0
96.00,61.17,0
108.00,62.73,0
127.00,65.51,0
127.00,69.51,0
123.00,74.45,0
142.00,80.01,0
96.00,85.75,0
127.00,91.10,0
80.00,95.71,0
66.00,98.95,0
75.00,100.50,0
70.00,100.71,0
39.00,99.63,0
43.00,97.07,0
127.00,94.00,0
74.00,91.63,0
48.00,89.46,0
46.00,86.64,0
46.00,83.17,0
36.00,79.21,0
37.00,74.85,0
66.00,70.53,0
55.00,66.76,0
63.00,63.66,0
89.00,61.43,0
43.00,60.06,0
126.00,59.52,0
109.00,60.47,0
112.00,62.96,0
122.00,66.51,0
110.00,70.88,0
115.00,75.63,0
133.00,80.66,0
96.00,85.76,0
120.00,90.48,0
94.00,94.63,0
111.00,98.12,0
93.00,100.90,0
95.00,102.92,0
58.00,103.87,0
83.00,103.57,0
60.00,102.26,0
54.00,100.02,0
49.00,96.80,0
76.00,93.05,0
36.00,89.07,0
72.00,84.90,0
38.00,80.73,0
53.00,76.55,0
69.00,72.60,0
62.00,69.29,0
76.00,66.70,0
79.00,64.96,0
114.00,64.37,0
99.00,65.16,0
118.00,67.20,0
82.00,69.98,0
90.00,72.86,0
120.00,75.80,0
126.00,79.30,0
102.00,83.26,0
154.00,87.54,0
82.00,91.96,0
117.00,95.88,0
76.00,98.92,0
100.00,101.01,0
68.00,102.09,0
81.00,102.15,0
66.00,101.26,0
68.00,99.56,0
43.00,96.99,0
40.00,93.42,0
35.00,88.94,0
81.00,84.19,0
35.00,79.70,0
38.00,75.22,0
63.00,70.76,0
72.00,66.99,0
58.00,64.10,0
76.00,61.97,0
79.00,60.70,0
112.00,60.60,0
99.00,61.86,0
114.00,64.30,0
118.00,67.71,0
122.00,71.97,0
116.00,76.80,0
118.00,81.82,0
127.00,86.90,0
127.00,92.02,0
102.00,96.86,0
104.00,100.93,0
124.00,104.27,0
87.00,106.99,0
91.00,108.73,0
56.00,109.15,0
55.00,107.99,0
67.00,105.46,0
75.00,102.23,0
47.00,98.59,0
57.00,94.42,0
45.00,89.83,0
38.00,84.90,0
39.00,79.65,0
45.00,74.36,0
68.00,69.51,0
65.00,65.57,0
70.00,62.62,0
71.00,60.60,0
123.00,59.83,0
85.00,60.61,0
85.00,62.32,0
101.00,64.51,0
155.00,67.70,0
91.00,72.04,0
126.00,76.79,0
127.00,81.74,0
115.00,86.90,0
134.00,92.01,0
131.00,97.10,0
54.00,101.48,0
91.00,104.18,0
72.00,105.32,0
112.00,105.58,0
52.00,105.16,0
42.00,103.48,0
54.00,100.37,0
67.00,96.47,0
45.00,92.24,0
61.00,87.78,0
41.00,83.21,0
38.00,78.48,0
45.00,73.63,0
50.00,68.98,0
50.00,64.78,0
120.00,61.67,0
50.00,60.10,0
84.00,59.44,0
97.00,59.57,0
87.00,60.72,0
107.00,62.71,0
89.00,65.37,0
103.00,68.44,0
97.00,71.75,0
135.00,75.47,0
127.00,79.88,0
137.00,84.95,0
95.00,90.09,0
103.00,94.57,0
96.00,98.13,0
105.00,100.89,0
79.00,102.83,0
80.00,103.73,0
78.00,103.60,0
66.00,102.56,0
75.00,100.71,0
46.00,98.14,0
48.00,94.72,0
46.00,90.53,0
36.00,85.81,0
59.00,80.85,0
39.00,76.00,0
42.00,71.28,0
53.00,66.79,0
57.00,62.87,0
91.00,59.95,0
58.00,58.19,0
105.00,57.52,0
90.00,58.05,0
125.00,59.94,0
103.00,63.04,0
169.00,67.47,0
134.00,73.35,0
118.00,79.97,0
92.00,86.17,0
162.00,91.87,0
118.00,97.59,0
117.00,102.96,0
106.00,107.43,0
101.00,110.82,0
93.00,113.04,0
77.00,114.00,0
58.00,113.48,0
82.00,111.61,0
75.00,108.96,0
95.00,106.05,0
60.00,103.01,0
42.00,99.43,0
48.00,95.02,0
42.00,90.00,0
73.00,84.91,0
42.00,80.13,0
62.00,75.67,0
48.00,71.53,0
44.00,67.70,0
85.00,64.38,0
64.00,62.02,0
80.00,60.60,0
108.00,60.25,0
89.00,61.18,0
115.00,63.19,0
108.00,66.16,0
110.00,69.87,0
115.00,74.03,0
132.00,78.67,0
117.00,83.68,0
114.00,88.70,0
143.00,93.61,0
127.00,98.60,0
124.00,103.43,0
124.00,107.81,0
94.00,111.42,0
98.00,113.87,0
77.00,114.99,0
78.00,114.77,0
107.00,113.61,0
57.00,111.86,0
46.00,109.03,0
61.00,105.02,0
46.00,100.27,0
55.00,95.06,0
39.00,89.56,0
34.00,83.79,0
42.00,77.87,0
50.00,72.17,0
99.00,67.44,0
100.00,64.50,0
74.00,63.23,0
75.00,62.84,0
99.00,63.15,0
75.00,64.19,0
127.00,65.96,0
139.00,69.00,0
135.00,73.50,0
95.00,78.67,0
122.00,83.70,0
91.00,88.31,0
95.00,92.18,0
55.00,94.86,0
115.00,96.40,0
96.00,97.53,0
83.00,98.39,0
68.00,98.52,0
66.00,97.71,0
82.00,96.19,0
79.00,94.41,0
70.00,92.50,0
49.00,90.19,0
76.00,87.47,0
49.00,84.57,0
49.00,81.41,0
60.00,78.03,0
52.00,74.72,0
60.00,71.57,0
67.00,68.79,0
114.00,66.95,0
104.00,66.63,0
127.00,67.90,0
84.00,70.28,0
123.00,73.22,0
84.00,76.45,0
119.00,79.77,0
86.00,83.03,0
128.00,86.23,0
98.00,89.45,0
161.00,92.95,0
94.00,96.78,0
102.00,100.22,0
82.00,102.67,0
101.00,104.16,0
95.00,104.98,0
87.00,105.26,0
46.00,104.59,0
50.00,102.52,0
35.00,99.04,0
65.00,94.66,0
45.00,89.94,0
56.00,85.13,0
55.00,80.41,0
62.00,76.05,0
70.00,72.28,0
95.00,69.49,0
81.00,67.89,0
61.00,67.05,0
90.00,66.62,0
63.00,66.60,0
104.00,67.04,0
65.00,67.93,0
131.00,69.37,0
112.00,71.80,0
117.00,75.16,0
101.00,78.93,0
101.00,82.66,0
94.00,86.03,0
149.00,89.38,0
94.00,92.98,0
128.00,96.48,0
79.00,99.50,0
113.00,101.81,0
136.00,103.84,0
100.00,105.96,0
68.00,107.40,0
48.00,107.28,0
52.00,105.42,0
68.00,102.34,0
38.00,98.46,0
49.00,93.87,0
49.00,88.79,0
38.00,83.52,0
45.00,78.16,0
49.00,72.96,0
38.00,68.10,0
73.00,63.80,0
50.00,60.35,0
61.00,57.67,0
62.00,55.66,0
164.00,55.17,0
84.00,56.90,0
134.00,60.17,0
85.00,64.29,0
117.00,68.77,0
75.00,73.16,0
117.00,77.26,0
120.00,81.36,0
155.00,86.01,0
108.00,91.16,0
121.00,96.13,0
94.00,100.39,0
137.00,104.00,0
99.00,107.17,0
125.00,109.83,0
66.00,111.65,0
86.00,112.16,0
55.00,111.26,0
222.00,110.36,0
34.00,110.43,0
63.00,109.76,0
57.00,107.40,0
36.00,103.82,0
37.00,99.04,0
34.00,93.33,0
42.00,87.12,0
41.00,80.84,0
74.00,75.03,0
72.00,70.28,0
69.00,66.73,0
80.00,64.23,0
138.00,63.24,0
99.00,64.15,0
136.00,66.62,0
172.00,70.78,0
130.00,76.64,0
103.00,82.99,0
148.00,89.07,0
110.00,94.97,0
146.00,100.56,0
139.00,105.96,0
142.00,111.23,0
98.00,115.87,0
114.00,119.30,0
85.00,121.36,0
122.00,122.26,0
57.00,122.08,0
56.00,120.30,0
47.00,116.77,0
54.00,111.91,0
37.00,106.09,0
70.00,99.80,0
48.00,93.57,0
33.00,87.37,0
59.00,81.21,0
42.00,75.44,0
44.00,70.10,0
61.00,65.31,0
79.00,61.53,0
80.00,59.09,0
112.00,58.21,0
90.00,58.86,0
127.00,60.87,0
120.00,64.25,0
130.00,68.79,0
104.00,73.97,0
168.00,79.65,0
118.00,85.94,0
180.00,92.70,0
144.00,99.91,0
162.00,107.32,0
127.00,114.31,0
126.00,120.32,0
85.00,124.74,0
84.00,127.12,0
47.00,127.22,0
83.00,125.26,0
74.00,121.98,0
70.00,117.93,0
64.00,113.27,0
56.00,108.07,0
39.00,102.31,0
36.00,95.94,0
40.00,89.18,0
49.00,82.46,0
59.00,76.25,0
41.00,70.74,0
87.00,66.09,0
80.00,62.81,0
113.00,61.21,0
64.00,61.05,0
155.00,62.19,0
68.00,64.64,0
164.00,68.13,0
145.00,72.99,0
134.00,79.12,0
131.00,85.64,0
141.00,92.20,0
126.00,98.59,0
178.00,104.92,0
148.00,111.45,0
164.00,118.01,0
98.00,123.83,0
143.00,128.32,0
78.00,131.30,0
99.00,132.50,0
59.00,131.78,0
80.00,129.31,0
79.00,125.62,0
89.00,121.37,0
43.00,116.60,0
39.00,110.88,0
68.00,104.44,0
64.00,98.07,0
35.00,91.89,0
44.00,85.63,0
64.00,79.58,0
72.00,74.37,0
103.00,70.53,0
104.00,68.43,0
136.00,68.28,0
122.00,70.02,0
141.00,73.32,0
141.00,77.90,0
191.00,83.86,0
135.00,91.08,0
176.00,98.82,0
109.00,106.36,0
151.00,113.08,0
165.00,119.20,0
154.00,125.17,0
127.00,130.52,0
155.00,134.92,0
103.00,138.27,0
94.00,140.00,0
93.00,139.87,0
113.00,138.39,0
72.00,135.92,0
103.00,132.54,0
59.00,128.37,0
68.00,123.34,0
58.00,117.52,0
46.00,111.10,0
44.00,104.17,0
44.00,96.93,0
61.00,89.80,0
42.00,83.14,0
69.00,77.10,0
57.00,71.92,0
113.00,68.04,0
102.00,66.03,0
126.00,65.97,0
115.00,67.61,0
148.00,70.80,0
112.00,75.20,0
151.00,80.39,0
155.00,86.40,0
160.00,93.25,0
123.00,100.31,0
161.00,107.05,0
35.00,112.59,0
158.00,116.30,0
123.00,119.20,0
156.00,122.08,0
95.00,124.62,0
158.00,126.59,0
92.00,128.06,0
100.00,128.59,0
49.00,127.56,0
69.00,124.75,0
67.00,120.58,0
92.00,115.86,0
61.00,111.03,0
35.00,105.74,0
44.00,99.67,0
36.00,93.08,0
66.00,86.48,0
55.00,80.45,0
90.00,75.41,0
94.00,71.82,0
76.00,69.64,0
75.00,68.34,0
134.00,68.07,0
114.00,69.38,0
134.00,72.17,0
149.00,76.30,0
150.00,81.75,0
98.00,87.70,0
188.00,93.74,0
127.00,100.21,0
164.00,106.81,0
102.00,112.91,0
160.00,118.17,0
108.00,122.64,0
160.00,126.41,0
79.00,129.29,0
95.00,130.60,0
79.00,130.14,0
66.00,128.11,0
85.00,124.79,0
78.00,120.73,0
78.00,116.29,0
66.00,111.53,0
36.00,106.25,0
37.00,100.17,0
125.00,94.19,0
63.00,89.43,0
72.00,85.52,0
66.00,81.98,0
134.00,79.38,0
150.00,78.77,0
152.00,80.55,0
61.00,83.49,0
134.00,86.34,0
138.00,89.51,0
143.00,93.54,0
134.00,98.11,0
158.00,103.05,0
145.00,108.32,0
172.00,113.86,0
108.00,119.24,0
125.00,123.62,0
113.00,126.76,0
154.00,129.12,0
85.00,130.83,0
114.00,131.42,0
86.00,130.81,0
86.00,129.10,0
62.00,126.18,0
74.00,122.13,0
52.00,117.16,0
41.00,111.32,0
41.00,104.65,0
39.00,97.43,0
60.00,90.20,0
41.00,83.39,0
66.00,77.17,0
51.00,71.74,0
131.00,67.71,0
100.00,65.84,0
156.00,66.26,0
138.00,68.95,0
94.00,73.06,0
121.00,77.48,0
166.00,82.41,0
130.00,88.26,0
147.00,94.53,0
171.00,101.10,0
168.00,108.16,0
129.00,115.20,0
145.00,121.47,0
128.00,126.74,0
115.00,130.81,0
106.00,133.41,0
98.00,134.48,0
92.00,134.10,0
90.00,132.46,0
92.00,129.85,0
77.00,126.48,0
62.00,122.27,0
49.00,117.07,0
47.00,110.96,0
37.00,104.12,0
174.00,97.91,0
51.00,93.57,0
62.00,89.97,0
83.00,86.39,0
117.00,83.66,0
79.00,82.10,0
85.00,81.18,0
122.00,80.87,0
144.00,81.87,0
107.00,84.20,0
141.00,87.31,0
148.00,91.22,0
182.00,96.30,0
156.00,102.52,0
229.00,109.82,0
142.00,118.00,0
159.00,125.87,0
130.00,132.57,0
127.00,137.78,0
91.00,141.13,0
127.00,142.61,0
100.00,142.70,0
64.00,141.27,0
91.00,138.13,0
63.00,133.74,0
72.00,128.37,0
55.00,122.18,0
38.00,115.25,0
61.00,107.76,0
44.00,100.20,0
44.00,92.73,0
97.00,85.87,0
61.00,80.30,0
66.00,75.77,0
80.00,72.07,0
104.00,69.61,0
117.00,68.81,0
264.00,70.91,0
134.00,76.61,0
137.00,83.99,0
131.00,91.27,0
169.00,98.48,0
127.00,105.64,0
168.00,112.47,0
136.00,118.89,0
191.00,125.06,0
144.00,131.08,0
70.00,135.87,0
79.00,138.00,0
117.00,137.90,0
118.00,136.83,0
127.00,135.46,0
104.00,133.87,0
70.00,131.57,0
49.00,127.91,0
46.00,122.65,0
106.00,116.65,0
48.00,110.76,0
34.00,104.56,0
45.00,97.73,0
45.00,90.71,0
78.00,84.13,0
68.00,78.57,0
51.00,73.94,0
58.00,69.86,0
93.00,66.60,0
147.00,65.15,0
133.00,66.23,0
142.00,69.44,0
94.00,73.80,0
184.00,78.92,0
149.00,85.26,0
193.00,92.83,0
167.00,101.31,0
151.00,110.01,0
108.00,117.75,0
142.00,123.95,0
127.00,128.85,0
124.00,132.61,0
88.00,134.92,0
106.00,135.57,0
66.00,134.60,0
99.00,132.20,0
78.00,128.84,0
116.00,125.09,0
61.00,121.17,0
38.00,116.46,0
50.00,110.59,0
41.00,103.93,0
37.00,96.83,0
44.00,89.54,0
58.00,82.55,0
73.00,76.44,0
118.00,71.93,0
99.00,69.50,0
106.00,68.86,0
128.00,69.74,0
120.00,72.08,0
128.00,75.59,0
175.00,80.32,0
107.00,86.10,0
149.00,92.09,0
127.00,97.99,0
151.00,103.83,0
44.00,108.73,0
172.00,112.26,0
116.00,115.39,0
159.00,118.61,0
95.00,121.50,0
121.00,123.57,0
87.00,124.56,0
100.00,124.45,0
79.00,123.27,0
86.00,121.14,0
54.00,118.03,0
48.00,113.77,0
64.00,108.53,0
46.00,102.81,0
42.00,96.70,0
44.00,90.30,0
44.00,83.89,0
57.00,77.81,0
73.00,72.53,0
98.00,68.61,0
92.00,66.34,0
80.00,65.40,0
136.00,65.75,0
82.00,67.43,0
127.00,70.01,0
131.00,73.53,0
131.00,78.07,0
160.00,83.50,0
137.00,89.75,0
143.00,96.30,0
258.00,103.71,0
137.00,112.54,0
166.00,121.30,0
107.00,128.71,0
112.00,134.15,0
79.00,137.23,0
125.00,138.30,0
86.00,137.97,0
88.00,136.33,0
104.00,133.59,0
67.00,130.09,0
58.00,125.57,0
42.00,119.85,0
45.00,113.09,0
48.00,105.71,0
41.00,98.11,0
34.00,90.45,0
69.00,83.11,0
69.00,76.77,0
71.00,71.72,0
47.00,67.64,0
96.00,64.47,0
108.00,62.81,0
134.00,63.15,0
125.00,65.47,0
116.00,69.23,0
140.00,73.89,0
139.00,79.43,0
126.00,85.51,0
146.00,91.74,0
205.00,98.58,0
131.00,106.20,0
118.00,113.32,0
144.00,119.20,0
102.00,123.93,0
154.00,127.58,0
92.00,130.28,0
74.00,131.42,0
88.00,130.65,0
83.00,128.48,0
56.00,125.14,0
65.00,120.63,0
67.00,115.30,0
86.00,109.79,0
37.00,104.26,0
34.00,98.22,0
61.00,91.74,0
64.00,85.60,0
53.00,80.10,0
78.00,75.33,0
91.00,71.69,0
78.00,69.34,0
136.00,68.43,0
118.00,69.36,0
108.00,71.74,0
119.00,74.92,0
131.00,78.82,0
134.00,83.42,0
159.00,88.77,0
143.00,94.81,0
139.00,101.10,0
131.00,107.10,0
211.00,113.18,0
109.00,119.53,0
130.00,125.02,0
116.00,129.08,0
102.00,131.73,0
81.00,132.69,0
68.00,131.79,0
86.00,129.27,0
87.00,125.76,0
69.00,121.65,0
41.00,116.71,0
51.00,110.76,0
59.00,104.23,0
35.00,97.50,0
52.00,90.67,0
62.00,84.13,0
42.00,78.18,0
63.00,72.79,0
54.00,68.13,0
127.00,64.80,0
117.00,63.65,0
130.00,64.76,0
120.00,67.56,0
126.00,71.56,0
149.00,76.57,0
153.00,82.61,0
139.00,89.37,0
147.00,96.32,0
143.00,103.19,0
186.00,110.11,0
93.00,116.76,0
120.00,122.01,0
85.00,125.43,0
124.00,127.30,0
95.00,128.05,0
98.00,127.78,0
54.00,126.21,0
84.00,123.24,0
87.00,119.44,0
52.00,115.18,0
48.00,110.11,0
44.00,104.21,0
40.00,97.73,0
38.00,90.92,0
41.00,84.04,0
34.00,77.30,0
84.00,71.21,0
65.00,66.44,0
102.00,63.22,0
119.00,61.90,0
126.00,62.69,0
82.00,64.96,0
128.00,67.99,0
140.00,72.00,0
125.00,77.08,0
145.00,82.81,0
153.00,89.14,0
112.00,95.67,0
154.00,101.87,0
144.00,107.88,0
124.00,113.56,0
124.00,118.38,0
117.00,122.18,0
96.00,124.78,0
107.00,126.08,0
62.00,125.96,0
75.00,124.24,0
71.00,121.17,0
107.00,117.52,0
63.00,113.73,0
52.00,109.44,0
34.00,104.22,0
36.00,98.08,0
43.00,91.40,0
49.00,84.72,0
39.00,78.33,0
45.00,72.31,0
96.00,67.20,0
89.00,63.78,0
108.00,62.24,0
98.00,62.34,0
147.00,64.08,0
122.00,67.52,0
108.00,72.04,0
149.00,77.12,0
134.00,82.89,0
130.00,89.05,0
126.00,95.08,0
144.00,100.86,0
127.00,106.39,0
106.00,111.24,0
158.00,115.36,0
119.00,119.15,0
127.00,122.41,0
80.00,124.59,0
81.00,125.16,0
101.00,124.30,0
87.00,122.57,0
54.00,119.93,0
62.00,116.09,0
45.00,111.16,0
99.00,105.81,0
40.00,100.58,0
35.00,95.05,0
53.00,89.05,0
35.00,83.00,0
39.00,77.00,0
77.00,71.45,0
77.00,67.11,0
90.00,64.25,0
117.00,63.07,0
111.00,63.68,0
127.00,65.89,0
121.00,69.41,0
142.00,74.01,0
100.00,79.23,0
168.00,84.80,0
115.00,90.80,0
215.00,97.43,0
124.00,104.79,0
147.00,111.98,0
110.00,118.10,0
121.00,122.88,0
73.00,125.96,0
114.00,127.28,0
82.00,127.24,0
102.00,126.13,0
56.00,123.93,0
53.00,120.38,0
49.00,115.42,0
43.00,109.43,0
42.00,102.71,0
41.00,95.59,0
39.00,88.36,0
38.00,81.24,0
58.00,74.58,0
64.00,68.85,0
101.00,64.59,0
90.00,62.17,0
84.00,61.31,0
112.00,61.68,0
153.00,63.73,0
130.00,67.75,0
129.00,73.02,0
128.00,78.87,0
80.00,84.56,0
136.00,89.59,0
126.00,94.40,0
160.00,99.47,0
158.00,105.04,0
114.00,110.67,0
142.00,115.66,0
80.00,119.58,0
100.00,121.93,0
78.00,122.64,0
129.00,122.31,0
73.00,121.39,0
72.00,119.53,0
60.00,116.46,0
40.00,112.17,0
45.00,106.74,0
44.00,100.54,0
69.00,94.17,0
45.00,88.10,0
45.00,82.26,0
56.00,76.68,0
66.00,71.75,0
57.00,67.65,0
90.00,64.54,0
73.00,62.60,0
120.00,62.00,0
127.00,63.14,0
125.00,66.04,0
107.00,70.05,0
155.00,74.86,0
123.00,80.49,0
128.00,86.48,0
140.00,92.46,0
162.00,98.67,0
133.00,105.06,0
152.00,111.25,0
107.00,116.77,0
154.00,121.40,0
96.00,125.13,0
110.00,127.58,0
57.00,128.31,0
85.00,127.17,0
53.00,124.39,0
68.00,120.28,0
45.00,115.09,0
40.00,108.97,0
35.00,102.02,0
49.00,94.66,0
38.00,87.35,0
58.00,80.42,0
80.00,74.42,0
69.00,69.79,0
94.00,66.54,0
98.00,64.80,0
109.00,64.67,0
106.00,65.93,0
136.00,68.49,0
128.00,72.37,0
139.00,77.31,0
139.00,83.02,0
156.00,89.37,0
127.00,96.03,0
150.00,102.54,0
107.00,108.52,0
137.00,113.61,0
75.00,117.49,0
137.00,120.06,0
126.00,121.97,0
79.00,123.25,0
51.00,122.92,0
47.00,120.50,0
48.00,116.25,0
72.00,110.96,0
48.00,105.24,0
38.00,99.12,0
43.00,92.56,0
39.00,85.88,0
46.00,79.33,0
63.00,73.34,0
34.00,68.06,0
72.00,63.48,0
98.00,60.18,0
110.00,58.81,0
156.00,59.80,0
123.00,63.09,0
120.00,67.83,0
127.00,73.27,0
91.00,78.83,0
152.00,84.26,0
130.00,89.95,0
138.00,95.85,0
135.00,101.64,0
107.00,106.94,0
92.00,111.07,0
68.00,113.52,0
110.00,114.41,0
78.00,114.33,0
79.00,113.34,0
72.00,111.36,0
63.00,108.54,0
44.00,104.82,0
54.00,100.19,0
48.00,95.02,0
40.00,89.51,0
48.00,83.82,0
49.00,78.24,0
57.00,73.10,0
53.00,68.55,0
89.00,64.92,0
91.00,62.68,0
96.00,61.94,0
108.00,62.57,0
111.00,64.49,0
112.00,67.47,0
145.00,71.46,0
127.00,76.52,0
157.00,82.43,0
127.00,88.90,0
159.00,95.60,0
109.00,102.10,0
134.00,107.89,0
95.00,112.62,0
166.00,116.55,0
76.00,119.83,0
95.00,121.78,0
56.00,121.89,0
41.00,119.99,0
44.00,116.08,0
100.00,111.17,0
51.00,106.20,0
36.00,100.89,0
61.00,95.04,0
60.00,89.25,0
36.00,83.70,0
37.00,78.10,0
48.00,72.57,0
112.00,68.00,0
86.00,65.23,0
64.00,63.85,0
94.00,63.25,0
85.00,63.48,0
118.00,64.71,0
123.00,67.21,0
143.00,71.08,0
121.00,76.04,0
137.00,81.64,0
136.00,87.58,0
127.00,93.63,0
138.00,99.50,0
123.00,105.02,0
125.00,109.95,0
134.00,114.25,0
88.00,117.71,0
124.00,120.04,0
96.00,121.42,0
86.00,121.75,0
82.00,120.88,0
84.00,118.98,0
78.00,116.32,0
78.00,113.09,0
50.00,109.23,0
43.00,104.51,0
51.00,99.02,0
46.00,93.15,0
44.00,87.17,0
44.00,81.21,0
82.00,75.77,0
47.00,71.24,0
85.00,67.60,0
90.00,65.14,0
120.00,64.31,0
51.00,64.70,0
126.00,65.74,0
117.00,67.85,0
135.00,71.29,0
109.00,75.65,0
134.00,80.50,0
117.00,85.61,0
152.00,90.96,0
132.00,96.61,0
160.00,102.46,0
47.00,107.64,0
123.00,111.13,0
83.00,113.21,0
119.00,114.41,0
90.00,114.94,0
91.00,114.76,0
56.00,113.53,0
74.00,111.14,0
57.00,107.80,0
42.00,103.61,0
48.00,98.56,0
43.00,92.96,0
35.00,87.03,0
38.00,80.89,0
50.00,74.89,0
38.00,69.31,0
75.00,64.44,0
96.00,60.95,0
100.00,59.31,0
99.00,59.38,0
114.00,60.87,0
138.00,63.84,0
139.00,68.34,0
111.00,73.86,0
122.00,79.61,0
143.00,85.46,0
134.00,91.57,0
112.00,97.51,0
152.00,103.02,0
118.00,108.21,0
147.00,113.00,0
109.00,117.21,0
72.00,120.14,0
77.00,121.10,0
108.00,120.58,0
92.00,119.38,0
75.00,117.56,0
81.00,114.97,0
40.00,111.48,0
44.00,106.82,0
53.00,101.24,0
45.00,95.27,0
36.00,89.06,0
37.00,82.65,0
51.00,76.39,0
50.00,70.67,0
47.00,65.62,0
132.00,61.90,0
77.00,60.25,0
87.00,60.07,0
85.00,60.74,0
142.00,62.52,0
132.00,65.94,0
152.00,70.97,0
184.00,77.61,0
123.00,85.40,0
122.00,93.06,0
142.00,100.02,0
166.00,106.73,0
157.00,113.50,0
122.00,119.88,0
111.00,125.00,0
86.00,128.32,0
111.00,129.86,0
44.00,129.65,0
104.00,127.71,0
62.00,124.60,0
64.00,120.52,0
72.00,115.62,0
56.00,110.24,0
38.00,104.36,0
69.00,98.09,0
38.00,91.85,0
133.00,86.37,0
40.00,82.20,0
40.00,78.40,0
77.00,74.56,0
78.00,71.42,0
98.00,69.42,0
84.00,68.56,0
129.00,68.92,0
120.00,70.73,0
121.00,73.82,0
120.00,77.71,0
136.00,82.21,0
123.00,87.15,0
142.00,92.37,0
138.00,97.79,0
149.00,103.35,0
129.00,108.83,0
147.00,113.98,0
99.00,118.44,0
128.00,121.82,0
62.00,123.80,0
141.00,124.46,0
88.00,124.42,0
73.00,123.50,0
80.00,121.33,0
55.00,118.03,0
49.00,113.61,0
71.00,108.35,0
35.00,102.63,0
37.00,96.36,0
42.00,89.66,0
36.00,82.90,0
42.00,76.30,0
71.00,70.34,0
71.00,65.60,0
80.00,62.24,0
85.00,60.24,0
92.00,59.55,0
109.00,60.17,0
54.00,61.67,0
111.00,63.47,0
139.00,66.19,0
165.00,70.68,0
126.00,76.66,0
153.00,83.40,0
129.00,90.44,0
158.00,97.49,0
92.00,104.07,0
139.00,109.60,0
78.00,113.88,0
254.00,117.91,0
73.00,122.53,0
70.00,125.86,0
60.00,126.48,0
93.00,125.11,0
49.00,122.36,0
53.00,118.22,0
51.00,112.88,0
61.00,106.87,0
50.00,100.63,0
53.00,94.33,0
42.00,88.07,0
74.00,82.13,0
63.00,77.00,0
60.00,72.70,0
83.00,69.23,0
99.00,66.99,0
127.00,66.43,0
98.00,67.54,0
126.00,69.87,0
94.00,73.00,0
134.00,76.67,0
141.00,81.08,0
180.00,86.66,0
140.00,93.36,0
145.00,100.38,0
131.00,107.02,0
127.00,112.95,0
115.00,117.86,0
117.00,121.60,0
86.00,124.02,0
100.00,124.98,0
74.00,124.55,0
60.00,122.63,0
62.00,119.24,0
56.00,114.67,0
46.00,109.22,0
34.00,102.97,0
55.00,96.23,0
35.00,89.39,0
59.00,82.76,0
55.00,76.70,0
58.00,71.43,0
119.00,67.47,0
77.00,65.31,0
86.00,64.48,0
111.00,64.70,0
125.00,66.29,0
149.00,69.53,0
111.00,74.13,0
124.00,79.27,0
126.00,84.57,0
146.00,90.11,0
127.00,95.85,0
156.00,101.64,0
128.00,107.36,0
143.00,112.74,0
122.00,117.54,0
113.00,121.43,0
103.00,124.09,0
107.00,125.53,0
88.00,125.82,0
77.00,124.83,0
59.00,122.44,0
53.00,118.63,0
43.00,113.55,0
53.00,107.52,0
53.00,101.06,0
36.00,94.43,0
36.00,87.60,0
58.00,80.88,0
46.00,74.75,0
68.00,69.42,0
64.00,65.10,0
84.00,61.99,0
183.00,61.01,0
104.00,62.86,0
135.00,66.54,0
90.00,70.96,0
119.00,75.55,0
124.00,80.28,0
133.00,85.36,0
140.00,90.77,0
122.00,96.32,0
76.00,101.15,0
136.00,104.87,0
123.00,108.11,0
130.00,111.24,0
128.00,114.16,0
102.00,116.64,0
83.00,118.10,0
72.00,118.11,0
92.00,116.86,0
105.00,115.03,0
65.00,112.86,0
37.00,109.74,0
46.00,105.27,0
37.00,99.73,0
34.00,93.49,0
44.00,86.90,0
37.00,80.33,0
58.00,74.13,0
47.00,68.62,0
62.00,63.94,0
63.00,60.20,0
76.00,57.54,0
176.00,56.84,0
127.00,59.09,0
90.00,63.12,0
127.00,67.68,0
137.00,72.91,0
148.00,78.99,0
139.00,85.74,0
127.00,92.61,0
127.00,99.06,0
151.00,105.09,0
136.00,110.86,0
95.00,115.87,0
131.00,119.61,0
103.00,122.31,0
84.00,123.80,0
58.00,123.54,0
81.00,121.57,0
69.00,118.45,0
72.00,114.56,0
42.00,109.92,0
36.00,104.34,0
48.00,98.00,0
34.00,91.32,0
36.00,84.47,0
39.00,77.67,0
88.00,71.61,0
67.00,66.96,0
62.00,63.56,0
47.00,60.85,0
76.00,58.69,0
104.00,57.62,0
131.00,58.33,0
115.00,60.94,0
143.00,65.07,0
123.00,70.41,0
127.00,76.42,0
113.00,82.50,0
157.00,88.61,0
136.00,94.98,0
138.00,101.35,0
123.00,107.27,0
160.00,112.71,0
99.00,117.61,0
122.00,121.40,0
109.00,124.01,0
93.00,125.47,0
102.00,125.72,0
58.00,124.69,0
60.00,122.09,0
77.00,118.20,0
64.00,113.63,0
32.00,108.37,0
49.00,102.26,0
37.00,95.61,0
34.00,88.70,0
43.00,81.74,0
44.00,75.10,0
90.00,69.41,0
59.00,65.11,0
71.00,62.01,0
124.00,60.28,0
84.00,60.31,0
96.00,61.54,0
133.00,63.82,0
124.00,67.47,0
121.00,72.16,0
132.00,77.45,0
116.00,83.04,0
124.00,88.59,0
127.00,93.94,0
172.00,99.44,0
84.00,104.94,0
148.00,109.68,0
96.00,113.59,0
114.00,116.55,0
80.00,118.28,0
99.00,118.78,0
78.00,118.17,0
73.00,116.51,0
70.00,113.84,0
61.00,110.31,0
75.00,106.20,0
52.00,101.73,0
43.00,96.80,0
35.00,91.28,0
57.00,85.48,0
47.00,79.85,0
34.00,74.47,0
52.00,69.30,0
90.00,64.96,0
107.00,62.33,0
125.00,61.81,0
86.00,63.03,0
102.00,65.16,0
94.00,67.81,0
142.00,71.16,0
115.00,75.44,0
144.00,80.47,0
132.00,86.07,0
114.00,91.80,0
130.00,97.17,0
120.00,102.12,0
99.00,106.39,0
127.00,109.79,0
64.00,112.18,0
108.00,113.30,0
106.00,113.59,0
99.00,113.52,0
67.00,112.77,0
69.00,110.96,0
48.00,108.00,0
38.00,103.85,0
35.00,98.57,0
79.00,92.85,0
35.00,87.32,0
72.00,82.06,0
74.00,77.44,0
55.00,73.64,0
62.00,70.35,0
71.00,67.60,0
83.00,65.64,0
94.00,64.72,0
103.00,64.98,0
128.00,66.58,0
113.00,69.50,0
79.00,73.01,0
134.00,76.60,0
139.00,80.83,0
200.00,86.42,0
129.00,93.33,0
155.00,100.56,0
109.00,107.25,0
206.00,113.59,0
126.00,120.00,0
138.00,125.82,0
97.00,130.20,0
66.00,132.52,0
49.00,132.21,0
83.00,129.66,0
90.00,125.93,0
71.00,121.69,0
73.00,116.96,0
57.00,111.76,0
39.00,105.97,0
36.00,99.49,0
37.00,92.48,0
62.00,85.52,0
36.00,79.03,0
55.00,73.05,0
82.00,67.98,0
73.00,64.29,0
96.00,62.04,0
101.00,61.31,0
119.00,62.17,0
108.00,64.46,0
128.00,67.90,0
102.00,72.11,0
127.00,76.72,0
119.00,81.62,0
128.00,86.73,0
133.00,91.94,0
152.00,97.38,0
135.00,103.01,0
142.00,108.56,0
94.00,113.42,0
75.00,116.71,0
76.00,117.99,0
83.00,117.62,0
52.00,115.87,0
80.00,112.91,0
56.00,109.13,0
40.00,104.59,0
48.00,99.17,0
152.00,94.16,0
36.00,90.44,0
62.00,87.00,0
62.00,83.33,0
46.00,79.71,0
97.00,76.40,0
68.00,73.91,0
88.00,72.23,0
69.00,71.14,0
116.00,70.79,0
99.00,71.51,0
272.00,74.51,0
111.00,80.56,0
149.00,87.82,0
110.00,94.73,0
128.00,100.96,0
134.00,106.48,0
148.00,111.66,0
120.00,116.45,0
156.00,120.73,0
84.00,124.26,0
122.00,126.52,0
55.00,127.22,0
106.00,126.32,0
73.00,124.27,0
114.00,121.64,0
81.00,118.76,0
55.00,115.38,0
45.00,110.96,0
45.00,105.49,0
35.00,99.24,0
48.00,92.56,0
42.00,85.86,0
39.00,79.34,0
90.00,73.49,0
94.00,69.21,0
66.00,66.51,0
74.00,64.75,0
103.00,63.89,0
104.00,64.29,0
121.00,66.06,0
109.00,68.98,0
128.00,72.77,0
121.00,77.26,0
188.00,82.75,0
125.00,89.32,0
169.00,96.37,0
110.00,103.28,0
137.00,109.47,0
91.00,114.48,0
119.00,118.12,0
74.00,120.32,0
100.00,121.05,0
84.00,120.56,0
72.00,118.99,0
65.00,116.28,0
58.00,112.50,0
71.00,107.99,0
58.00,103.12,0
51.00,97.97,0
41.00,92.46,0
37.00,86.63,0
38.00,80.59,0
53.00,74.70,0
58.00,69.43,0
113.00,65.45,0
97.00,63.42,0
118.00,63.29,0
104.00,64.71,0
118.00,67.30,0
117.00,70.81,0
114.00,75.02,0
112.00,79.50,0
139.00,84.24,0
125.00,89.32,0
132.00,94.54,0
129.00,99.67,0
139.00,104.65,0
175.00,109.78,0
93.00,114.86,0
84.00,118.60,0
71.00,120.27,0
80.00,120.11,0
84.00,118.62,0
72.00,116.21,0
57.00,112.89,0
73.00,108.79,0
39.00,104.09,0
52.00,98.75,0
44.00,92.98,0
42.00,87.03,0
35.00,80.96,0
122.00,75.60,0
36.00,71.63,0
57.00,68.32,0
50.00,65.20,0
87.00,62.68,0
94.00,61.32,0
119.00,61.52,0
89.00,63.13,0
191.00,66.28,0
109.00,71.26,0
134.00,77.18,0
153.00,83.51,0
143.00,90.37,0
88.00,96.95,0
135.00,102.50,0
126.00,107.32,0
132.00,111.73,0
101.00,115.44,0
113.00,118.14,0
77.00,119.63,0
125.00,120.05,0
90.00,119.83,0
93.00,119.00,0
86.00,117.42,0
66.00,115.05,0
51.00,111.67,0
34.00,107.06,0
42.00,101.34,0
35.00,94.91,0
38.00,88.11,0
40.00,81.27,0
40.00,74.69,0
58.00,68.68,0
93.00,63.91,0
58.00,60.66,0
103.00,58.78,0
109.00,58.49,0
181.00,60.53,0
98.00,64.77,0
122.00,69.98,0
114.00,75.41,0
139.00,81.08,0
127.00,86.98,0
155.00,93.12,0
127.00,99.38,0
127.00,105.27,0
134.00,110.53,0
124.00,115.16,0
91.00,118.78,0
103.00,120.98,0
89.00,121.83,0
86.00,121.47,0
49.00,119.75,0
71.00,116.56,0
84.00,112.55,0
49.00,108.16,0
38.00,103.06,0
34.00,97.09,0
54.00,90.68,0
43.00,84.33,0
49.00,78.28,0
51.00,72.67,0
58.00,67.74,0
81.00,63.81,0
116.00,61.49,0
82.00,60.96,0
147.00,62.08,0
118.00,64.97,0
117.00,69.16,0
105.00,73.83,0
132.00,78.73,0
113.00,83.84,0
182.00,89.41,0
99.00,95.47,0
139.00,101.20,0
78.00,105.97,0
148.00,109.75,0
98.00,112.90,0
97.00,115.19,0
88.00,116.26,0
105.00,116.34,0
60.00,115.52,0
46.00,113.31,0
57.00,109.62,0
36.00,104.82,0
43.00,99.11,0
48.00,92.90,0
34.00,86.53,0
55.00,80.25,0
61.00,74.52,0
85.00,69.86,0
66.00,66.47,0
48.00,63.88,0
110.00,62.05,0
110.00,61.73,0
98.00,62.99,0
128.00,65.49,0
126.00,69.19,0
97.00,73.67,0
182.00,78.79,0
107.00,84.77,0
152.00,91.04,0
148.00,97.41,0
122.00,103.74,0
117.00,109.33,0
129.00,113.97,0
110.00,117.74,0
93.00,120.35,0
64.00,121.33,0
87.00,120.60,0
69.00,118.59,0
44.00,115.36,0
59.00,110.90,0
40.00,105.48,0
43.00,99.40,0
34.00,92.81,0
36.00,85.96,0
43.00,79.12,0
69.00,72.89,0
50.00,67.65,0
127.00,63.89,0
61.00,61.94,0
88.00,61.21,0
96.00,61.38,0
136.00,62.92,0
84.00,65.75,0
142.00,69.44,0
91.00,73.74,0
134.00,78.35,0
111.00,83.16,0
128.00,88.06,0
126.00,92.96,0
171.00,98.15,0
118.00,103.71,0
127.00,108.92,0
107.00,113.23,0
104.00,116.44,0
52.00,118.05,0
107.00,117.98,0
54.00,116.68,0
61.00,114.11,0
46.00,110.22,0
53.00,105.34,0
52.00,99.83,0
58.00,94.12,0
39.00,88.39,0
36.00,82.52,0
50.00,76.66,0
49.00,71.19,0
78.00,66.56,0
72.00,63.12,0
68.00,60.82,0
113.00,59.72,0
114.00,60.30,0
108.00,62.44,0
108.00,65.63,0
136.00,69.69,0
138.00,74.77,0
99.00,80.38,0
174.00,86.21,0
138.00,92.63,0
153.00,99.43,0
113.00,105.93,0
93.00,111.26,0
98.00,114.91,0
109.00,117.17,0
48.00,118.01,0
103.00,117.28,0
75.00,115.57,0
67.00,113.10,0
92.00,109.98,0
71.00,106.63,0
54.00,102.95,0
70.00,98.79,0
44.00,94.32,0
40.00,89.45,0
36.00,84.09,0
45.00,78.53,0
59.00,73.23,0
110.00,69.05,0
94.00,66.66,0
91.00,65.85,0
127.00,66.40,0
78.00,68.14,0
133.00,70.64,0
128.00,74.11,0
174.00,78.98,0
132.00,85.10,0
140.00,91.70,0
92.00,97.86,0
136.00,103.11,0
118.00,107.67,0
162.00,111.99,0
102.00,116.07,0
131.00,119.44,0
69.00,121.64,0
90.00,122.23,0
86.00,121.42,0
99.00,119.78,0
120.00,117.91,0
62.00,115.90,0
53.00,112.99,0
36.00,108.73,0
51.00,103.32,0
41.00,97.28,0
38.00,90.88,0
34.00,84.25,0
49.00,77.70,0
45.00,71.63,0
81.00,66.46,0
85.00,62.76,0
88.00,60.68,0
106.00,60.12,0
121.00,61.21,0
116.00,63.85,0
164.00,68.02,0
129.00,73.71,0
134.00,80.19,0
148.00,86.96,0
144.00,93.98,0
83.00,100.50,0
140.00,105.86,0
101.00,110.26,0
127.00,113.83,0
89.00,116.46,0
98.00,117.93,0
71.00,118.07,0
75.00,116.88,0
46.00,114.31,0
90.00,110.70,0
58.00,106.64,0
37.00,102.04,0
43.00,96.63,0
35.00,90.62,0
43.00,84.33,0
46.00,78.15,0
48.00,72.38,0
62.00,67.28,0
80.00,63.26,0
92.00,60.73,0
78.00,59.63,0
114.00,59.80,0
112.00,61.42,0
142.00,64.58,0
139.00,69.28,0
131.00,75.12,0
140.00,81.55,0
148.00,88.36,0
139.00,95.37,0
104.00,101.92,0
160.00,107.72,0
100.00,112.90,0
108.00,116.97,0
93.00,119.58,0
78.00,120.68,0
77.00,120.23,0
72.00,118.40,0
89.00,115.64,0
89.00,112.53,0
62.00,109.15,0
45.00,105.10,0
123.00,100.81,0
39.00,96.95,0
67.00,93.03,0
45.00,88.77,0
50.00,84.30,0
61.00,79.82,0
86.00,75.91,0
115.00,73.31,0
99.00,72.35,0
107.00,72.72,0
118.00,74.15,0
118.00,76.61,0
122.00,79.88,0
135.00,83.83,0
138.00,88.45,0
104.00,93.29,0
149.00,97.98,0
139.00,102.77,0
131.00,107.64,0
98.00,111.90,0
111.00,115.06,0
116.00,117.25,0
120.00,118.87,0
63.00,119.63,0
97.00,119.07,0
59.00,117.31,0
42.00,114.22,0
56.00,109.74,0
44.00,104.34,0
70.00,98.54,0
40.00,92.72,0
40.00,86.80,0
44.00,80.78,0
89.00,75.32,0
57.00,71.00,0
101.00,67.88,0
101.00,66.25,0
109.00,66.24,0
131.00,67.78,0
137.00,70.90,0
127.00,75.34,0
146.00,80.66,0
108.00,86.39,0
116.00,91.85,0
123.00,96.78,0
139.00,101.47,0
119.00,105.98,0
151.00,110.27,0
86.00,114.07,0
216.00,117.65,0
64.00,121.29,0
97.00,123.69,0
80.00,124.22,0
88.00,123.36,0
74.00,121.36,0
46.00,118.17,0
50.00,113.64,0
35.00,107.94,0
127.00,102.07,0
40.00,96.96,0
35.00,91.87,0
41.00,86.20,0
87.00,80.73,0
72.00,76.27,0
92.00,73.03,0
67.00,70.82,0
108.00,69.57,0
117.00,69.63,0
138.00,71.36,0
100.00,74.42,0
140.00,78.25,0
73.00,82.33,0
174.00,86.53,0
110.00,91.26,0
149.00,96.34,0
89.00,101.12,0
115.00,105.06,0
90.00,107.96,0
86.00,109.72,0
56.00,110.05,0
74.00,108.91,0
75.00,106.71,0
84.00,104.06,0
43.00,100.97,0
65.00,97.19,0
47.00,92.92,0
39.00,88.23,0
66.00,83.31,0
52.00,78.65,0
76.00,74.55,0
90.00,71.40,0
98.00,69.58,0
87.00,68.98,0
126.00,69.55,0
121.00,71.48,0
156.00,74.91,0
129.00,79.72,0
123.00,85.16,0
84.00,90.27,0
142.00,94.76,0
127.00,99.12,0
132.00,103.53,0
106.00,107.56,0
115.00,110.86,0
71.00,113.07,0
113.00,114.08,0
91.00,114.27,0
107.00,113.96,0
80.00,113.15,0
62.00,111.51,0
54.00,108.71,0
40.00,104.72,0
66.00,99.87,0
47.00,94.69,0
48.00,89.35,0
34.00,83.79,0
42.00,78.10,0
37.00,72.47,0
59.00,67.24,0
51.00,62.75,0
75.00,59.21,0
90.00,56.98,0
104.00,56.37,0
110.00,57.42,0
126.00,60.05,0
124.00,64.09,0
139.00,69.31,0
110.00,75.22,0
139.00,81.35,0
130.00,87.62,0
145.00,93.98,0
127.00,100.23,0
138.00,106.10,0
106.00,111.26,0
101.00,115.23,0
89.00,117.71,0
110.00,118.91,0
73.00,119.05,0
80.00,118.01,0
48.00,115.61,0
44.00,111.78,0
50.00,106.72,0
39.00,100.86,0
35.00,94.40,0
61.00,87.78,0
54.00,81.59,0
40.00,75.91,0
87.00,70.91,0
75.00,67.16,0
115.00,65.01,0
118.00,64.74,0
112.00,66.23,0
62.00,68.52,0
121.00,70.94,0
105.00,73.82,0
132.00,77.42,0
124.00,81.67,0
114.00,86.28,0
126.00,90.88,0
94.00,95.17,0
122.00,98.89,0
116.00,102.20,0
83.00,104.95,0
104.00,106.75,0
78.00,107.65,0
74.00,107.53,0
80.00,106.41,0
90.00,104.72,0
66.00,102.67,0
84.00,100.25,0
49.00,97.43,0
35.00,93.87,0
36.00,89.33,0
55.00,84.27,0
37.00,79.15,0
41.00,74.04,0
90.00,69.45,0
68.00,66.05,0
82.00,63.83,0
51.00,62.37,0
101.00,61.55,0
107.00,61.87,0
100.00,63.48,0
125.00,66.19,0
115.00,69.93,0
130.00,74.46,0
132.00,79.63,0
153.00,85.46,0
151.00,91.95,0
106.00,98.47,0
160.00,104.50,0
108.00,110.04,0
129.00,114.78,0
63.00,118.14,0
116.00,119.84,0
93.00,120.38,0
112.00,120.24,0
75.00,119.39,0
84.00,117.66,0
46.00,114.84,0
49.00,110.74,0
38.00,105.46,0
46.00,99.38,0
44.00,92.92,0
46.00,86.42,0
60.00,80.25,0
46.00,74.66,0
70.00,69.78,0
55.00,65.76,0
96.00,62.81,0
96.00,61.33,0
124.00,61.61,0
113.00,63.56,0
125.00,66.88,0
122.00,71.22,0
145.00,76.41,0
133.00,82.34,0
143.00,88.71,0
138.00,95.23,0
152.00,101.76,0
109.00,107.92,0
116.00,113.05,0
64.00,116.55,0
98.00,118.16,0
86.00,118.34,0
80.00,117.46,0
84.00,115.63,0
36.00,112.76,0
67.00,108.71,0
60.00,103.93,0
48.00,98.80,0
37.00,93.23,0
40.00,87.24,0
43.00,81.14,0
47.00,75.25,0
58.00,69.90,0
52.00,65.29,0
89.00,61.72,0
90.00,59.60,0
73.00,58.86,0
103.00,59.15,0
123.00,60.76,0
144.00,64.03,0
132.00,68.88,0
123.00,74.67,0
131.00,80.81,0
128.00,87.05,0
127.00,93.18,0
153.00,99.17,0
108.00,104.92,0
147.00,110.09,0
103.00,114.55,0
85.00,117.77,0
82.00,119.24,0
60.00,118.96,0
116.00,117.44,0
50.00,115.23,0
48.00,111.91,0
35.00,107.17,0
52.00,101.45,0
40.00,95.21,0
38.00,88.73,0
49.00,82.24,0
53.00,76.16,0
90.00,71.04,0
67.00,67.28,0
92.00,64.81,0
80.00,63.53,0
112.00,63.46,0
97.00,64.61,0
128.00,66.95,0
111.00,70.34,0
139.00,74.64,0
102.00,79.51,0
102.00,84.25,0
110.00,88.51,0
151.00,92.73,0
138.00,97.42,0
118.00,102.27,0
131.00,106.75,0
80.00,110.43,0
87.00,112.68,0
122.00,113.78,0
90.00,114.33,0
105.00,114.34,0
55.00,113.50,0
88.00,111.62,0
38.00,108.73,0
49.00,104.68,0
47.00,99.65,0
34.00,93.98,0
35.00,87.78,0
36.00,81.32,0
60.00,75.09,0
66.00,69.71,0
98.00,65.73,0
85.00,63.40,0
102.00,62.60,0
107.00,63.21,0
122.00,65.21,0
122.00,68.48,0
118.00,72.72,0
122.00,77.51,0
128.00,82.64,0
118.00,87.91,0
98.00,92.82,0
117.00,97.05,0
124.00,100.83,0
123.00,104.39,0
92.00,107.47,0
101.00,109.62,0
97.00,110.87,0
68.00,111.16,0
65.00,110.17,0
44.00,107.77,0
67.00,104.22,0
35.00,99.83,0
47.00,94.70,0
45.00,89.11,0
36.00,83.34,0
59.00,77.65,0
43.00,72.39,0
39.00,67.52,0
67.00,63.14,0
80.00,59.83,0
62.00,57.72,0
110.00,56.81,0
75.00,57.20,0
81.00,58.43,0
129.00,60.46,0
116.00,63.75,0
143.00,68.33,0
106.00,73.74,0
116.00,79.32,0
100.00,84.56,0
96.00,89.15,0
107.00,92.99,0
127.00,96.44,0
72.00,99.46,0
95.00,101.49,0
57.00,102.31,0
64.00,101.81,0
66.00,100.15,0
64.00,97.71,0
57.00,94.71,0
61.00,91.26,0
46.00,87.50,0
37.00,83.31,0
48.00,78.75,0
39.00,74.10,0
56.00,69.63,0
34.00,65.46,0
52.00,61.58,0
82.00,58.41,0
92.00,56.61,0
90.00,56.32,0
84.00,57.18,0
112.00,59.00,0
90.00,61.72,0
83.00,64.86,0
127.00,68.26,0
127.00,72.43,0
121.00,77.36,0
122.00,82.61,0
149.00,88.12,0
98.00,93.67,0
127.00,98.69,0
78.00,102.80,0
96.00,105.64,0
50.00,106.95,0
73.00,106.64,0
67.00,105.04,0
70.00,102.64,0
70.00,99.72,0
36.00,96.23,0
39.00,91.87,0
38.00,86.77,0
44.00,81.33,0
44.00,75.90,0
65.00,70.90,0
46.00,66.57,0
84.00,63.07,0
81.00,60.76,0
96.00,59.82,0
66.00,59.92,0
89.00,60.65,0
94.00,61.99,0
99.00,64.06,0
96.00,66.73,0
112.00,69.88,0
105.00,73.48,0
151.00,77.70,0
86.00,82.41,0
128.00,86.99,0
103.00,91.28,0
130.00,95.35,0
101.00,99.13,0
109.00,102.37,0
51.00,104.51,0
92.00,105.19,0
69.00,104.73,0
107.00,103.71,0
79.00,102.49,0
38.00,100.68,0
50.00,97.67,0
48.00,93.67,0
41.00,89.07,0
40.00,84.04,0
38.00,78.76,0
41.00,73.44,0
77.00,68.60,0
38.00,64.57,0
72.00,61.25,0
65.00,58.73,0
84.00,57.24,0
127.00,57.20,0
126.00,59.13,0
115.00,62.74,0
117.00,67.30,0
118.00,72.42,0
138.00,77.98,0
104.00,83.75,0
108.00,89.13,0
127.00,93.97,0
143.00,98.72,0
96.00,103.27,0
112.00,107.01,0
76.00,109.58,0
105.00,110.96,0
55.00,111.15,0
64.00,109.92,0
62.00,107.36,0
74.00,104.02,0
60.00,100.29,0
39.00,96.06,0
46.00,91.18,0
42.00,85.90,0
33.00,80.38,0
42.00,74.77,0
46.00,69.38,0
60.00,64.60,0
95.00,60.98,0
83.00,59.00,0
95.00,58.47,0
86.00,59.11,0
118.00,60.85,0
119.00,63.79,0
112.00,67.78,0
55.00,71.88,0
135.00,75.56,0
89.00,79.29,0
127.00,83.15,0
94.00,86.94,0
131.00,90.63,0
90.00,94.12,0
144.00,97.43,0
82.00,100.52,0
95.00,102.88,0
51.00,103.95,0
72.00,103.54,0
53.00,101.85,0
84.00,99.38,0
59.00,96.52,0
57.00,93.30,0
52.00,89.62,0
38.00,85.52,0
35.00,80.91,0
96.00,76.43,0
48.00,72.76,0
44.00,69.52,0
91.00,66.64,0
78.00,64.76,0
78.00,63.89,0
87.00,63.77,0
102.00,64.50,0
103.00,66.20,0
133.00,68.95,0
127.00,72.87,0
148.00,77.86,0
117.00,83.54,0
128.00,89.30,0
98.00,94.62,0
127.00,99.27,0
99.00,103.24,0
149.00,106.77,0
103.00,110.05,0
102.00,112.68,0
103.00,114.35,0
102.00,115.23,0
77.00,115.26,0
81.00,114.25,0
49.00,112.09,0
52.00,108.63,0
42.00,104.02,0
41.00,98.53,0
35.00,92.40,0
36.00,85.91,0
72.00,79.62,0
60.00,74.19,0
46.00,69.58,0
87.00,65.75,0
89.00,63.22,0
99.00,62.23,0
100.00,62.64,0
86.00,64.05,0
77.00,65.90,0
113.00,68.04,0
156.00,71.22,0
127.00,75.88,0
160.00,81.62,0
154.00,88.26,0
134.00,95.36,0
104.00,101.96,0
113.00,107.36,0
115.00,111.60,0
92.00,114.72,0
90.00,116.51,0
86.00,116.98,0
81.00,116.31,0
62.00,114.50,0
48.00,111.43,0
98.00,107.52,0
55.00,103.47,0
36.00,98.97,0
52.00,93.78,0
34.00,88.17,0
38.00,82.30,0
54.00,76.48,0
64.00,71.26,0
76.00,67.08,0
94.00,64.24,0
101.00,62.98,0
100.00,63.23,0
94.00,64.59,0
119.00,66.86,0
123.00,70.13,0
146.00,74.52,0
127.00,79.87,0
136.00,85.74,0
121.00,91.67,0
107.00,97.15,0
127.00,101.93,0
139.00,106.32,0
90.00,110.23,0
109.00,113.10,0
74.00,114.70,0
98.00,115.04,0
51.00,114.14,0
96.00,112.14,0
65.00,109.45,0
79.00,106.31,0
58.00,102.72,0
54.00,98.65,0
44.00,94.02,0
35.00,88.86,0
55.00,83.40,0
49.00,78.09,0
46.00,73.12,0
63.00,68.61,0
93.00,65.11,0
103.00,63.22,0
106.00,63.02,0
108.00,64.33,0
132.00,66.95,0
93.00,70.56,0
113.00,74.55,0
128.00,78.82,0
147.00,83.72,0
128.00,89.24,0
128.00,94.88,0
112.00,100.13,0
132.00,104.80,0
51.00,108.43,0
138.00,110.68,0
82.00,112.11,0
125.00,113.01,0
90.00,113.45,0
71.00,113.15,0
50.00,111.51,0
55.00,108.43,0
42.00,104.17,0
70.00,99.22,0
35.00,93.97,0
36.00,88.32,0
71.00,82.58,0
44.00,77.32,0
58.00,72.57,0
54.00,68.32,0
78.00,64.85,0
100.00,62.64,0
97.00,61.99,0
103.00,62.72,0
115.00,64.67,0
112.00,67.70,0
125.00,71.60,0
182.00,76.70,0
149.00,83.31,0
134.00,90.67,0
126.00,97.76,0
105.00,103.98,0
99.00,108.85,0
89.00,112.20,0
108.00,114.21,0
75.00,115.09,0
114.00,115.03,0
38.00,113.99,0
97.00,111.81,0
53.00,108.81,0
47.00,105.00,0
42.00,100.18,0
58.00,94.77,0
40.00,89.17,0
36.00,83.41,0
56.00,77.67,0
43.00,72.32,0
55.00,67.49,0
65.00,63.39,0
77.00,60.34,0
76.00,58.47,0
72.00,57.60,0
78.00,57.51,0
98.00,58.23,0
50.00,59.54,0
127.00,61.25,0
127.00,64.10,0
148.00,68.51,0
124.00,74.10,0
154.00,80.46,0
119.00,87.18,0
143.00,93.82,0
128.00,100.18,0
154.00,106.27,0
62.00,111.51,0
91.00,114.85,0
69.00,116.17,0
84.00,115.90,0
69.00,114.36,0
83.00,111.93,0
72.00,108.91,0
68.00,105.43,0
45.00,101.39,0
36.00,96.56,0
66.00,91.21,0
43.00,85.87,0
53.00,80.66,0
54.00,75.71,0
101.00,71.62,0
98.00,69.07,0
105.00,68.17,0
116.00,68.75,0
127.00,70.75,0
116.00,73.95,0
188.00,78.46,0
124.00,84.40,0
147.00,90.94,0
116.00,97.32,0
157.00,103.38,0
127.00,109.17,0
157.00,114.66,0
81.00,119.35,0
118.00,122.57,0
88.00,124.33,0
145.00,125.18,0
75.00,125.42,0
91.00,124.65,0
60.00,122.57,0
42.00,118.99,0
57.00,114.01,0
58.00,108.22,0
43.00,101.99,0
36.00,95.38,0
38.00,88.46,0
60.00,81.68,0
56.00,75.59,0
48.00,70.28,0
89.00,65.93,0
81.00,62.97,0
105.00,61.58,0
85.00,61.61,0
125.00,62.90,0
136.00,65.69,0
129.00,69.97,0
126.00,75.21,0
136.00,80.97,0
132.00,87.05,0
164.00,93.44,0
125.00,100.06,0
130.00,106.28,0
113.00,111.61,0
109.00,115.81,0
101.00,118.75,0
104.00,120.48,0
83.00,121.04,0
58.00,120.17,0
51.00,117.61,0
68.00,113.68,0
72.00,109.08,0
71.00,104.30,0
48.00,99.39,0
61.00,94.24,0
35.00,88.92,0
34.00,83.30,0
34.00,77.42,0
57.00,71.70,0
82.00,66.89,0
75.00,63.46,0
153.00,61.97,0
84.00,62.64,0
127.00,64.77,0
92.00,67.80,0
112.00,71.37,0
76.00,74.96,0
118.00,78.37,0
124.00,81.98,0
154.00,86.31,0
107.00,91.20,0
151.00,96.19,0
97.00,100.99,0
122.00,105.16,0
87.00,108.39,0
139.00,110.85,0
71.00,112.67,0
178.00,114.12,0
54.00,115.42,0
90.00,115.70,0
69.00,114.59,0
83.00,112.53,0
60.00,109.69,0
53.00,106.00,0
48.00,101.46,0
51.00,96.30,0
35.00,90.72,0
48.00,84.89,0
35.00,79.03,0
51.00,73.35,0
84.00,68.44,0
61.00,64.76,0
81.00,62.20,0
76.00,60.67,0
103.00,60.27,0
96.00,61.10,0
122.00,63.17,0
100.00,66.28,0
98.00,69.93,0
86.00,73.55,0
143.00,77.29,0
124.00,81.67,0
169.00,86.92,0
93.00,92.64,0
110.00,97.77,0
77.00,101.66,0
89.00,104.17,0
68.00,105.30,0
70.00,105.12,0
90.00,103.96,0
78.00,102.36,0
80.00,100.45,0
50.00,98.06,0
44.00,94.84,0
59.00,90.88,0
46.00,86.59,0
59.00,82.19,0
42.00,77.83,0
48.00,73.53,0
45.00,69.34,0
35.00,65.29,0
42.00,61.35,0
46.00,57.69,0
40.00,54.44,0
47.00,51.60,0
56.00,49.31,0
58.00,47.74,0
44.00,46.75,0
68.00,46.21,0
46.00,46.15,0
62.00,46.42,0
47.00,46.87,0
57.00,47.43,0
45.00,47.99,0
41.00,48.39,0
55.00,48.59,0
73.00,48.99,0
74.00,49.95,0
76.00,51.48,0
67.00,53.36,0
51.00,55.18,0
74.00,56.75,0
35.00,58.00,0
82.00,58.90,0
38.00,59.60,0
92.00,60.22,0
43.00,60.89,0
101.00,61.70,0
41.00,62.63,0
156.00,64.07,0
77.00,66.60,0
147.00,70.12,0
65.00,74.07,0
168.00,78.31,0
84.00,82.94,0
175.00,87.96,0
49.00,92.86,0
164.00,97.13,0
129.00,101.34,0
183.00,106.21,0
117.00,111.45,0
141.00,116.36,0
83.00,120.24,0
152.00,123.00,0
134.00,125.33,0
118.00,127.41,0
46.00,128.22,0
100.00,127.15,0
60.00,124.65,0
90.00,121.18,0
52.00,116.95,0
62.00,111.96,0
58.00,106.40,0
49.00,100.53,0
102.00,94.86,0
65.00,90.05,0
102.00,86.18,0
45.00,82.98,0
140.00,80.56,0
100.00,79.56,0
189.00,80.54,0
116.00,83.53,0
156.00,87.81,0
82.00,92.37,0
166.00,96.79,0
120.00,101.37,0
157.00,106.15,0
172.00,111.28,0
155.00,116.94,0
97.00,122.17,0
198.00,126.61,0
99.00,130.71,0
100.00,133.60,0
69.00,134.41,0
80.00,133.18,0
50.00,130.15,0
78.00,125.66,0
45.00,120.14,0
61.00,113.86,0
34.00,106.98,0
61.00,99.80,0
92.00,93.09,0
35.00,87.22,0
89.00,81.96,0
47.00,77.40,0
102.00,73.73,0
74.00,71.19,0
126.00,70.03,0
107.00,70.42,0
131.00,72.28,0
127.00,75.43,0
183.00,80.01,0
101.00,85.75,0
153.00,91.73,0
99.00,97.43,0
130.00,102.51,0
134.00,107.05,0
179.00,111.75,0
130.00,116.77,0
108.00,121.24,0
90.00,124.24,0
85.00,125.48,0
63.00,124.93,0
72.00,122.74,0
35.00,119.02,0
76.00,114.04,0
39.00,108.35,0
69.00,102.27,0
38.00,96.05,0
59.00,89.82,0
85.00,84.11,0
51.00,79.30,0
79.00,75.23,0
67.00,71.93,0
103.00,69.65,0
95.00,68.66,0
119.00,69.05,0
108.00,70.72,0
137.00,73.55,0
130.00,77.52,0
125.00,82.28,0
130.00,87.39,0
213.00,93.34,0
143.00,100.57,0
146.00,108.07,0
123.00,114.80,0
134.00,120.47,0
118.00,125.00,0
89.00,128.11,0
102.00,129.52,0
71.00,129.31,0
49.00,127.30,0
59.00,123.42,0
42.00,118.10,0
64.00,111.87,0
37.00,105.14,0
39.00,97.99,0
65.00,90.80,0
56.00,84.20,0
56.00,78.32,0
41.00,72.99,0
83.00,68.35,0
52.00,64.71,0
103.00,62.21,0
102.00,61.22,0
165.00,62.35,0
132.00,65.85,0
155.00,71.17,0
123.00,77.52,0
131.00,84.20,0
122.00,90.68,0
142.00,96.88,0
115.00,102.69,0
214.00,108.57,0
130.00,115.01,0
117.00,121.00,0
102.00,125.39,0
79.00,127.89,0
80.00,128.34,0
74.00,127.03,0
46.00,124.09,0
70.00,119.69,0
46.00,114.32,0
43.00,108.15,0
63.00,101.49,0
50.00,94.88,0
75.00,88.68,0
45.00,83.06,0
73.00,78.01,0
51.00,73.60,0
98.00,70.06,0
65.00,67.64,0
102.00,66.30,0
91.00,66.07,0
156.00,67.34,0
120.00,70.40,0
152.00,74.91,0
127.00,80.41,0
156.00,86.57,0
112.00,92.93,0
114.00,98.78,0
122.00,103.78,0
130.00,108.18,0
127.00,112.16,0
127.00,115.69,0
94.00,118.48,0
93.00,120.06,0
83.00,120.28,0
83.00,119.30,0
56.00,117.12,0
77.00,113.83,0
48.00,109.71,0
60.00,104.88,0
36.00,99.43,0
58.00,93.57,0
54.00,87.73,0
42.00,82.10,0
88.00,76.98,0
36.00,72.65,0
79.00,68.93,0
51.00,65.85,0
99.00,63.64,0
110.00,62.83,0
126.00,63.82,0
111.00,66.39,0
127.00,70.06,0
104.00,74.42,0
138.00,79.20,0
87.00,84.07,0
142.00,88.74,0
128.00,93.50,0
163.00,98.67,0
112.00,104.02,0
119.00,108.82,0
86.00,112.49,0
102.00,114.79,0
102.00,115.99,0
82.00,116.27,0
41.00,115.17,0
44.00,112.24,0
39.00,107.68,0
55.00,102.12,0
43.00,96.11,0
42.00,89.88,0
73.00,83.82,0
35.00,78.29,0
74.00,73.29,0
59.00,69.07,0
88.00,65.89,0
43.00,63.59,0
108.00,62.07,0
107.00,61.89,0
110.00,63.27,0
96.00,65.73,0
157.00,69.23,0
125.00,74.02,0
135.00,79.70,0
120.00,85.64,0
133.00,91.53,0
105.00,97.04,0
137.00,101.99,0
109.00,106.41,0
110.00,110.09,0
94.00,112.75,0
119.00,114.49,0
77.00,115.40,0
76.00,115.17,0
49.00,113.48,0
59.00,110.36,0
43.00,106.09,0
51.00,100.95,0
55.00,95.34,0
62.00,89.77,0
80.00,84.71,0
33.00,80.17,0
84.00,75.98,0
59.00,72.42,0
102.00,69.84,0
49.00,68.14,0
93.00,67.02,0
101.00,66.72,0
130.00,67.80,0
67.00,69.94,0
136.00,72.56,0
115.00,75.93,0
141.00,80.18,0
79.00,84.70,0
142.00,88.98,0
117.00,93.27,0
157.00,97.85,0
99.00,102.48,0
131.00,106.63,0
90.00,109.98,0
108.00,112.35,0
82.00,113.63,0
55.00,113.54,0
54.00,111.73,0
57.00,108.47,0
35.00,104.06,0
69.00,98.85,0
58.00,93.53,0
39.00,88.24,0
59.00,82.89,0
59.00,77.87,0
100.00,73.77,0
61.00,70.88,0
106.00,69.04,0
80.00,68.29,0
127.00,68.73,0
83.00,70.25,0
123.00,72.52,0
131.00,75.68,0
135.00,79.88,0
102.00,84.60,0
140.00,89.36,0
99.00,94.01,0
102.00,98.07,0
77.00,101.05,0
124.00,103.12,0
84.00,104.65,0
62.00,105.27,0
76.00,104.62,0
55.00,102.88,0
39.00,100.01,0
35.00,95.90,0
56.00,90.97,0
38.00,85.74,0
61.00,80.51,0
36.00,75.50,0
44.00,70.65,0
43.00,66.01,0
83.00,62.07,0
72.00,59.34,0
86.00,57.88,0
90.00,57.62,0
132.00,58.80,0
52.00,61.12,0
139.00,63.97,0
118.00,67.72,0
127.00,72.47,0
127.00,77.81,0
151.00,83.69,0
97.00,89.75,0
134.00,95.34,0
104.00,100.32,0
138.00,104.76,0
105.00,108.67,0
102.00,111.77,0
66.00,113.54,0
76.00,113.67,0
56.00,112.26,0
54.00,109.49,0
47.00,105.51,0
45.00,100.58,0
38.00,94.97,0
34.00,88.83,0
71.00,82.68,0
40.00,77.06,0
81.00,72.16,0
40.00,68.05,0
78.00,64.65,0
58.00,62.04,0
83.00,60.28,0
97.00,59.63,0
128.00,60.51,0
86.00,62.79,0
129.00,66.01,0
104.00,69.96,0
136.00,74.56,0
147.00,79.91,0
108.00,85.79,0
92.00,91.19,0
120.00,95.68,0
105.00,99.54,0
154.00,103.18,0
116.00,106.91,0
111.00,110.32,0
85.00,112.76,0
70.00,113.79,0
92.00,113.43,0
63.00,112.02,0
39.00,109.36,0
41.00,105.24,0
46.00,100.01,0
36.00,94.12,0
59.00,87.98,0
44.00,82.04,0
75.00,76.65,0
66.00,72.17,0
65.00,68.63,0
72.00,65.89,0
90.00,64.09,0
56.00,63.15,0
121.00,63.03,0
93.00,64.07,0
121.00,66.27,0
111.00,69.46,0
152.00,73.67,0
136.00,78.99,0
122.00,84.92,0
90.00,90.51,0
133.00,95.36,0
105.00,99.70,0
134.00,103.65,0
116.00,107.27,0
115.00,110.45,0
84.00,112.77,0
86.00,113.85,0
80.00,113.69,0
89.00,112.57,0
53.00,110.58,0
39.00,107.34,0
44.00,102.78,0
35.00,97.25,0
38.00,91.07,0
44.00,84.64,0
74.00,78.61,0
37.00,73.32,0
94.00,68.88,0
64.00,65.61,0
78.00,63.45,0
52.00,61.96,0
65.00,60.82,0
64.00,59.97,0
120.00,59.95,0
120.00,61.46,0
178.00,65.06,0
127.00,70.66,0
126.00,77.21,0
113.00,83.71,0
114.00,89.74,0
88.00,94.91,0
113.00,99.02,0
112.00,102.39,0
115.00,105.30,0
104.00,107.71,0
125.00,109.69,0
72.00,111.09,0
47.00,111.08,0
52.00,109.20,0
38.00,105.70,0
34.00,100.88,0
39.00,95.06,0
82.00,89.08,0
46.00,83.66,0
82.00,78.88,0
68.00,74.94,0
102.00,72.11,0
58.00,70.32,0
82.00,69.10,0
64.00,68.26,0
115.00,68.04,0
118.00,69.04,0
129.00,71.49,0
118.00,75.07,0
128.00,79.40,0
100.00,83.98,0
149.00,88.63,0
94.00,93.31,0
137.00,97.70,0
111.00,101.77,0
118.00,105.44,0
105.00,108.48,0
105.00,110.78,0
56.00,111.93,0
60.00,111.40,0
39.00,109.08,0
40.00,105.20,0
36.00,100.06,0
46.00,94.15,0
39.00,87.92,0
40.00,81.64,0
38.00,75.44,0
42.00,69.55,0
62.00,64.29,0
67.00,60.10,0
93.00,57.32,0
74.00,56.02,0
58.00,55.67,0
84.00,55.82,0
93.00,56.74,0
128.00,58.86,0
86.00,62.10,0
176.00,66.46,0
96.00,72.00,0
179.00,78.36,0
60.00,84.84,0
171.00,90.84,0
799.00,102.44,0
158.00,123.77,0
176.00,146.54,0
60.00,163.69,0
121.00,174.79,0
96.00,180.73,0
43.00,182.25,0
75.00,179.51,0
43.00,173.43,0
92.00,165.17,0
60.00,155.80,0
51.00,145.69,0
36.00,134.83,0
46.00,123.49,0
57.00,112.30,0
37.00,101.71,0
88.00,92.10,0
38.00,83.84,0
106.00,77.02,0
51.00,71.77,0
113.00,68.08,0
43.00,65.66,0
139.00,64.43,0
66.00,64.58,0
111.00,65.73,0
88.00,67.53,0
146.00,70.25,0
54.00,73.60,0
140.00,76.97,0
50.00,80.16,0
137.00,83.05,0
77.00,85.81,0
196.00,89.10,0
52.00,92.96,0
144.00,96.48,0
34.00,99.07,0
127.00,100.56,0
39.00,101.06,0
123.00,100.81,0
48.00,100.03,0
72.00,98.54,0
53.00,96.16,0
66.00,93.18,0
54.00,89.81,0
39.00,86.03,0
61.00,81.90,0
86.00,78.10,0
92.00,75.32,0
44.00,73.31,0
100.00,71.68,0
45.00,70.46,0
125.00,69.80,0
63.00,69.95,0
158.00,71.14,0
50.00,73.23,0
127.00,75.58,0
87.00,78.09,0
126.00,80.95,0
53.00,83.69,0
126.00,85.96,0
46.00,87.75,0
124.00,89.03,0
72.00,90.09,0
118.00,91.10,0
54.00,91.85,0
108.00,92.14,0
35.00,91.84,0
88.00,90.76,0
42.00,89.03,0
81.00,86.86,0
35.00,84.32,0
48.00,81.24,0
84.00,77.99,0
47.00,75.11,0
48.00,72.31,0
35.00,69.27,0
52.00,66.07,0
46.00,62.98,0
60.00,60.24,0
47.00,57.92,0
84.00,56.21,0
44.00,55.20,0
82.00,54.70,0
94.00,55.01,0
107.00,56.54,0
49.00,58.79,0
107.00,61.13,0
76.00,63.69,0
129.00,66.74,0
81.00,70.28,0
91.00,73.81,0
105.00,77.10,0
86.00,80.24,0
55.00,82.73,0
86.00,84.21,0
61.00,84.93,0
76.00,85.02,0
48.00,84.43,0
55.00,83.07,0
46.00,80.97,0
57.00,78.39,0
78.00,75.80,0
37.00,73.39,0
56.00,70.86,0
43.00,68.17,0
50.00,65.46,0
36.00,62.71,0
39.00,59.89,0
39.00,57.02,0
76.00,54.56,0
51.00,52.88,0
66.00,51.88,0
72.00,51.51,0
60.00,51.75,0
85.00,52.52,0
102.00,54.10,0
103.00,56.75,0
79.00,60.09,0
58.00,63.27,0
68.00,65.77,0
66.00,67.65,0
83.00,69.18,0
65.00,70.51,0
93.00,71.72,0
71.00,72.93,0
67.00,73.93,0
52.00,74.37,0
59.00,74.14,0
57.00,73.40,0
41.00,72.17,0
45.00,70.36,0
39.00,68.06,0
38.00,65.40,0
36.00,62.45,0
48.00,59.46,0
61.00,56.81,0
60.00,54.83,0
38.00,53.32,0
39.00,51.85,0
41.00,50.33,0
54.00,48.95,0
57.00,47.99,0
45.00,47.43,0
65.00,47.18,0
68.00,47.46,0
58.00,48.24,0
68.00,49.32,0
54.00,50.56,0
49.00,51.70,0
72.00,52.70,0
56.00,53.78,0
100.00,55.17,0
56.00,56.98,0
75.00,58.86,0
60.00,60.53,0
40.00,61.75,0
57.00,62.25,0
43.00,62.20,0
34.00,61.57,0
45.00,60.35,0
51.00,58.87,0
69.00,57.58,0
50.00,56.67,0
65.00,56.04,0
51.00,55.62,0
48.00,55.24,0
60.00,54.83,0
34.00,54.38,0
96.00,54.09,0
37.00,54.25,0
81.00,54.66,0
48.00,55.20,0
91.00,56.00,0
51.00,57.08,0
152.00,58.87,0
47.00,61.59,0
128.00,64.72,0
45.00,67.84,0
143.00,70.96,0
71.00,74.30,0
117.00,77.71,0
34.00,80.54,0
97.00,82.36,0
42.00,83.25,0
90.00,83.41,0
42.00,82.95,0
75.00,81.93,0
44.00,80.38,0
57.00,78.36,0
74.00,76.16,0
94.00,74.44,0
76.00,73.47,0
56.00,72.80,0
65.00,71.98,0
62.00,71.02,0
83.00,70.19,0
36.00,69.42,0
97.00,68.62,0
37.00,67.96,0
93.00,67.38,0
48.00,66.96,0
117.00,66.96,0
75.00,67.70,0
134.00,69.33,0
99.00,71.96,0
120.00,75.31,0
53.00,78.60,0
140.00,81.53,0
93.00,84.58,0
125.00,87.83,0
78.00,90.87,0
127.00,93.55,0
92.00,96.00,0
120.00,98.25,0
65.00,99.99,0
93.00,100.84,0
40.00,100.56,0
50.00,98.86,0
65.00,95.99,0
69.00,92.70,0
54.00,89.27,0
79.00,85.82,0
54.00,82.56,0
45.00,79.27,0
77.00,75.98,0
40.00,72.94,0
85.00,70.22,0
37.00,67.87,0
76.00,65.78,0
52.00,64.01,0
106.00,62.92,0
58.00,62.66,0
102.00,63.09,0
71.00,64.07,0
128.00,65.78,0
101.00,68.46,0
126.00,72.00,0
123.00,76.25,0
123.00,81.06,0
90.00,85.83,0
106.00,89.99,0
64.00,93.21,0
78.00,95.13,0
76.00,95.90,0
108.00,96.11,0
58.00,95.98,0
55.00,95.01,0
50.00,92.94,0
37.00,89.85,0
38.00,85.85,0
52.00,81.33,0
53.00,76.81,0
50.00,72.56,0
70.00,68.76,0
44.00,65.55,0
48.00,62.64,0
46.00,59.89,0
86.00,57.69,0
40.00,56.26,0
102.00,55.52,0
97.00,55.96,0
123.00,57.93,0
90.00,61.10,0
107.00,64.89,0
104.00,69.00,0
127.00,73.51,0
85.00,78.17,0
104.00,82.44,0
81.00,86.05,0
109.00,89.05,0
57.00,91.33,0
88.00,92.61,0
58.00,92.92,0
82.00,92.44,0
36.00,91.16,0
36.00,88.73,0
73.00,85.46,0
64.00,82.17,0
82.00,79.30,0
48.00,76.78,0
82.00,74.47,0
41.00,72.35,0
76.00,70.33,0
53.00,68.50,0
82.00,67.02,0
48.00,65.88,0
109.00,65.21,0
79.00,65.40,0
116.00,66.54,0
122.00,68.81,0
115.00,72.19,0
117.00,76.24,0
127.00,80.75,0
90.00,85.32,0
114.00,89.45,0
91.00,93.01,0
155.00,96.37,0
89.00,99.78,0
114.00,102.77,0
64.00,104.79,0
87.00,105.58,0
60.00,105.17,0
53.00,103.53,0
36.00,100.50,0
39.00,96.22,0
54.00,91.16,0
46.00,85.87,0
67.00,80.77,0
40.00,76.03,0
70.00,71.70,0
37.00,67.84,0
49.00,64.25,0
43.00,60.87,0
141.00,58.58,0
74.00,58.24,0
91.00,59.20,0
90.00,60.84,0
134.00,63.45,0
114.00,67.25,0
126.00,71.97,0
103.00,77.06,0
107.00,82.02,0
76.00,86.32,0
117.00,89.84,0
82.00,92.79,0
101.00,95.12,0
96.00,96.88,0
52.00,97.87,0
52.00,97.47,0
45.00,95.57,0
34.00,92.39,0
44.00,88.21,0
48.00,83.50,0
43.00,78.67,0
82.00,74.18,0
40.00,70.36,0
93.00,67.24,0
37.00,64.82,0
100.00,63.05,0
63.00,62.11,0
70.00,61.78,0
77.00,61.81,0
92.00,62.41,0
84.00,63.66,0
126.00,65.71,0
88.00,68.60,0
133.00,72.14,0
108.00,76.27,0
107.00,80.67,0
72.00,84.60,0
123.00,87.88,0
78.00,90.74,0
75.00,92.84,0
69.00,93.81,0
90.00,93.95,0
42.00,93.35,0
34.00,91.50,0
37.00,88.28,0
48.00,84.20,0
59.00,79.88,0
44.00,75.70,0
58.00,71.71,0
43.00,67.98,0
59.00,64.58,0
68.00,61.75,0
66.00,59.73,0
54.00,58.32,0
120.00,57.75,0
76.00,58.48,0
89.00,60.10,0
103.00,62.29,0
122.00,65.37,0
107.00,69.31,0
121.00,73.79,0
96.00,78.45,0
123.00,83.00,0
98.00,87.36,0
86.00,91.12,0
74.00,93.81,0
113.00,95.62,0
87.00,97.03,0
70.00,97.84,0
46.00,97.48,0
48.00,95.70,0
43.00,92.70,0
53.00,88.90,0
65.00,84.83,0
37.00,80.75,0
95.00,76.92,0
47.00,73.73,0
73.00,71.03,0
47.00,68.62,0
80.00,66.56,0
54.00,64.95,0
102.00,63.99,0
89.00,64.03,0
127.00,65.31,0
92.00,67.74,0
103.00,70.79,0
84.00,73.93,0
122.00,77.12,0
79.00,80.37,0
114.00,83.44,0
64.00,86.08,0
87.00,87.95,0
78.00,89.07,0
90.00,89.73,0
55.00,89.84,0
54.00,89.05,0
52.00,87.28,0
39.00,84.65,0
62.00,81.45,0
33.00,77.93,0
66.00,74.28,0
40.00,70.74,0
64.00,67.45,0
51.00,64.52,0
108.00,62.44,0
70.00,61.59,0
78.00,61.60,0
62.00,61.97,0
126.00,62.92,0
96.00,64.96,0
108.00,67.90,0
100.00,71.31,0
118.00,75.07,0
76.00,78.85,0
123.00,82.38,0
96.00,85.79,0
99.00,88.97,0
90.00,91.62,0
113.00,93.84,0
94.00,95.81,0
49.00,97.03,0
45.00,96.70,0
39.00,94.72,0
36.00,91.39,0
37.00,87.07,0
79.00,82.47,0
38.00,78.17,0
68.00,74.16,0
44.00,70.46,0
58.00,67.08,0
74.00,64.23,0
100.00,62.48,0
60.00,61.87,0
78.00,61.83,0
69.00,62.11,0
101.00,62.90,0
61.00,64.18,0
113.00,65.81,0
121.00,68.26,0
118.00,71.80,0
93.00,75.86,0
88.00,79.68,0
71.00,82.75,0
85.00,84.95,0
76.00,86.43,0
64.00,87.17,0
50.00,86.95,0
39.00,85.58,0
45.00,83.14,0
38.00,79.92,0
43.00,76.19,0
60.00,72.34,0
77.00,69.02,0
51.00,66.40,0
94.00,64.47,0
41.00,63.20,0
66.00,62.14,0
57.00,61.18,0
104.00,60.78,0
57.00,61.12,0
88.00,61.89,0
101.00,63.21,0
129.00,65.59,0
124.00,69.24,0
133.00,73.96,0
99.00,79.16,0
106.00,84.11,0
56.00,88.12,0
90.00,90.79,0
100.00,92.60,0
127.00,94.37,0
106.00,96.39,0
50.00,97.95,0
55.00,98.07,0
35.00,96.50,0
36.00,93.43,0
35.00,89.17,0
55.00,84.29,0
57.00,79.47,0
54.00,75.01,0
35.00,70.79,0
69.00,66.84,0
52.00,63.48,0
84.00,60.96,0
76.00,59.48,0
89.00,59.10,0
85.00,59.66,0
90.00,61.01,0
109.00,63.12,0
89.00,65.93,0
114.00,69.20,0
92.00,72.78,0
94.00,76.35,0
135.00,79.96,0
140.00,84.25,0
94.00,88.93,0
65.00,92.80,0
78.00,95.16,0
100.00,96.45,0
59.00,97.03,0
77.00,96.69,0
43.00,95.35,0
36.00,92.82,0
50.00,89.20,0
116.00,85.58,0
57.00,82.80,0
54.00,80.29,0
59.00,77.58,0
118.00,75.35,0
213.00,75.37,0
590.00,82.39,0
494.00,100.71,0
550.00,128.91,0
175.00,160.78,0
127.00,188.17,0
89.00,207.08,0
80.00,217.82,0
134.00,221.87,0
50.00,220.93,0
99.00,215.70,0
116.00,207.61,0
139.00,198.49,0
74.00,188.86,0
102.00,178.53,0
43.00,167.39,0
127.00,156.01,0
58.00,145.12,0
108.00,134.95,0
39.00,125.34,0
113.00,116.38,0
35.00,108.20,0
88.00,100.64,0
37.00,93.61,0
58.00,86.98,0
51.00,80.75,0
70.00,75.24,0
72.00,70.75,0
56.00,67.23,0
54.00,64.30,0
52.00,61.74,0
87.00,59.77,0
37.00,58.48,0
97.00,57.71,0
43.00,57.48,0
106.00,57.81,0
55.00,58.71,0
123.00,60.27,0
39.00,62.28,0
116.00,64.37,0
45.00,66.44,0
124.00,68.55,0
51.00,70.73,0
121.00,72.92,0
65.00,75.13,0
108.00,77.30,0
37.00,79.02,0
116.00,80.16,0
49.00,81.01,0
88.00,81.47,0
35.00,81.27,0
71.00,80.30,0
39.00,78.70,0
36.00,76.39,0
66.00,73.57,0
47.00,70.76,0
86.00,68.32,0
55.00,66.48,0
63.00,65.02,0
52.00,63.69,0
40.00,62.28,0
32.00,60.49,0
76.00,58.62,0
36.00,57.08,0
127.00,56.30,0
40.00,56.57,0
91.00,57.37,0
34.00,58.20,0
96.00,59.01,0
43.00,59.90,0
61.00,60.61,0
53.00,60.94,0
64.00,61.08,0
44.00,61.03,0
70.00,60.81,0
40.00,60.48,0
92.00,60.23,0
34.00,60.19,0
52.00,59.91,0
43.00,59.21,0
67.00,58.42,0
49.00,57.75,0
50.00,57.11,0
35.00,56.25,0
48.00,55.13,0
55.00,54.00,0
39.00,52.97,0
49.00,51.95,0
44.00,50.95,0
63.00,50.16,0
35.00,49.59,0
44.00,48.99,0
73.00,48.53,0
62.00,48.67,0
43.00,49.15,0
48.00,49.51,0
76.00,49.93,0
59.00,50.74,0
58.00,51.76,0
75.00,52.90,0
66.00,54.29,0
38.00,55.57,0
47.00,56.27,0
34.00,56.31,0
63.00,55.95,0
54.00,55.59,0
46.00,55.28,0
34.00,54.70,0
54.00,53.85,0
41.00,52.92,0
47.00,51.98,0
35.00,50.95,0
43.00,49.80,0
49.00,48.69,0
40.00,47.73,0
56.00,46.95,0
43.00,46.42,0
46.00,46.03,0
70.00,45.92,0
56.00,46.32,0
50.00,47.01,0
55.00,47.73,0
39.00,48.35,0
73.00,48.92,0
46.00,49.65,0
68.00,50.49,0
35.00,51.25,0
46.00,51.65,0
43.00,51.66,0
33.00,51.31,0
38.00,50.57,0
50.00,49.65,0
34.00,48.72,0
50.00,47.80,0
45.00,47.00,0
35.00,46.28,0
42.00,45.50,0
38.00,44.71,0
38.00,43.91,0
32.00,43.06,0
39.00,42.15,0
42.00,41.33,0
82.00,41.03,0
36.00,41.45,0
47.00,42.05,0
36.00,42.50,0
41.00,42.75,0
58.00,42.99,0
34.00,43.32,0
36.00,43.48,0
40.00,43.37,0
58.00,43.29,0
32.00,43.35,0
50.00,43.39,0
34.00,43.35,0
57.00,43.34,0
40.00,43.45,0
39.00,43.55,0
64.00,43.70,0
35.00,44.03,0
40.00,44.27,0
53.00,44.37,0
46.00,44.57,0
95.00,45.24,0
61.00,46.72,0
53.00,48.54,0
38.00,50.00,0
36.00,50.82,0
42.00,51.02,0
37.00,50.77,0
36.00,50.15,0
51.00,49.35,0
58.00,48.73,0
40.00,48.36,0
36.00,47.92,0
35.00,47.22,0
38.00,46.31,0
42.00,45.35,0
35.00,44.42,0
57.00,43.65,0
34.00,43.13,0
41.00,42.68,0
51.00,42.30,0
45.00,42.18,0
54.00,42.29,0
35.00,42.54,0
39.00,42.67,0
42.00,42.64,0
39.00,42.54,0
38.00,42.37,0
35.00,42.08,0
36.00,41.65,0
44.00,41.20,0
38.00,40.83,0
36.00,40.49,0
48.00,40.20,0
39.00,40.07,0
53.00,40.12,0
46.00,40.42,0
34.00,40.79,0
43.00,41.02,0
57.00,41.31,0
41.00,41.80,0
38.00,42.25,0
36.00,42.46,0
35.00,42.41,0
39.00,42.17,0
47.00,41.91,0
32.00,41.69,0
44.00,41.43,0
38.00,41.16,0
141.00,41.76,0
42.00,43.83,0
37.00,46.12,0
48.00,47.69,0
66.00,48.95,0
34.00,50.06,0
54.00,50.80,0
58.00,51.33,0
36.00,51.75,0
36.00,51.72,0
52.00,51.31,0
34.00,50.74,0
66.00,50.17,0
43.00,49.81,0
74.00,49.75,0
47.00,50.03,0
43.00,50.34,0
35.00,50.30,0
44.00,49.90,0
43.00,49.32,0
55.00,48.77,0
36.00,48.31,0
37.00,47.72,0
45.00,46.97,0
42.00,46.24,0
37.00,45.53,0
35.00,44.73,0
56.00,44.00,0
45.00,43.57,0
39.00,43.33,0
52.00,43.16,0
36.00,43.09,0
54.00,43.08,0
55.00,43.30,0
35.00,43.68,0
73.00,44.16,0
38.00,44.88,0
50.00,45.59,0
59.00,46.25,0
37.00,46.92,0
34.00,47.25,0
59.00,47.30,0
40.00,47.36,0
57.00,47.46,0
34.00,47.52,0
63.00,47.55,0
56.00,47.78,0
34.00,48.11,0
47.00,48.19,0
46.00,48.08,0
39.00,47.89,0
41.00,47.51,0
45.00,47.03,0
38.00,46.50,0
49.00,45.97,0
55.00,45.62,0
61.00,45.68,0
60.00,46.18,0
62.00,47.04,0
41.00,48.00,0
56.00,48.80,0
41.00,49.40,0
44.00,49.72,0
46.00,49.77,0
37.00,49.59,0
39.00,49.12,0
63.00,48.61,0
49.00,48.39,0
40.00,48.28,0
41.00,48.01,0
50.00,47.64,0
35.00,47.24,0
40.00,46.69,0
54.00,46.13,0
36.00,45.70,0
68.00,45.46,0
41.00,45.54,0
48.00,45.73,0
38.00,45.81,0
53.00,45.82,0
36.00,45.80,0
53.00,45.74,0
54.00,45.80,0
38.00,45.98,0
50.00,46.09,0
77.00,46.42,0
46.00,47.20,0
44.00,47.99,0
45.00,48.49,0
86.00,49.08,0
39.00,50.02,0
69.00,51.01,0
47.00,51.92,0
57.00,52.72,0
50.00,53.33,0
51.00,53.74,0
42.00,53.89,0
38.00,53.64,0
36.00,52.95,0
45.00,51.96,0
45.00,50.90,0
38.00,49.84,0
36.00,48.69,0
41.00,47.45,0
43.00,46.27,0
34.00,45.18,0
40.00,44.10,0
35.00,43.05,0
47.00,42.13,0
60.00,41.60,0
40.00,41.53,0
51.00,41.69,0
62.00,42.12,0
38.00,42.81,0
49.00,43.47,0
34.00,43.93,0
53.00,44.24,0
40.00,44.50,0
51.00,44.75,0
34.00,44.91,0
72.00,45.12,0
40.00,45.60,0
35.00,46.00,0
78.00,46.33,0
40.00,46.97,0
35.00,47.49,0
55.00,47.69,0
39.00,47.78,0
56.00,47.83,0
39.00,47.85,0
36.00,47.70,0
50.00,47.33,0
34.00,46.89,0
35.00,46.27,0
57.00,45.60,0
43.00,45.17,0
56.00,44.99,0
50.00,45.07,0
39.00,45.25,0
50.00,45.36,0
52.00,45.52,0
74.00,46.03,0
40.00,46.87,0
67.00,47.79,0
42.00,48.70,0
60.00,49.52,0
60.00,50.34,0
43.00,51.15,0
36.00,51.57,0
52.00,51.57,0
39.00,51.34,0
35.00,50.83,0
36.00,49.95,0
65.00,49.06,0
46.00,48.51,0
36.00,48.08,0
37.00,47.45,0
75.00,46.93,0
34.00,46.82,0
42.00,46.71,0
38.00,46.38,0
72.00,46.16,0
41.00,46.31,0
34.00,46.45,0
59.00,46.41,0
43.00,46.46,0
49.00,46.56,0
56.00,46.73,0
51.00,47.06,0
32.00,47.33,0
55.00,47.37,0
54.00,47.46,0
46.00,47.68,0
47.00,47.87,0
49.00,48.00,0
35.00,47.99,0
69.00,47.95,0
46.00,48.15,0
56.00,48.50,0
46.00,48.85,0
38.00,49.04,0
38.00,48.88,0
48.00,48.48,0
39.00,48.00,0
36.00,47.39,0
38.00,46.59,0
47.00,45.76,0
47.00,45.09,0
36.00,44.56,0
53.00,44.10,0
40.00,43.80,0
77.00,43.86,0
35.00,44.35,0
53.00,44.90,0
38.00,45.32,0
57.00,45.68,0
43.00,46.05,0
36.00,46.29,0
37.00,46.20,0
78.00,46.16,0
116.00,47.17,0
60.00,49.43,0
60.00,51.97,0
48.00,54.06,0
34.00,55.43,0
57.00,56.07,0
36.00,56.21,0
63.00,56.05,0
62.00,55.93,0
37.00,55.83,0
44.00,55.40,0
34.00,54.56,0
42.00,53.38,0
51.00,52.12,0
34.00,50.91,0
36.00,49.58,0
44.00,48.18,0
48.00,46.94,0
73.00,46.21,0
56.00,46.19,0
61.00,46.70,0
41.00,47.35,0
74.00,48.07,0
41.00,48.93,0
77.00,49.89,0
55.00,51.04,0
62.00,52.28,0
65.00,53.52,0
57.00,54.74,0
56.00,55.81,0
74.00,56.78,0
36.00,57.63,0
78.00,58.21,0
45.00,58.70,0
43.00,58.87,0
36.00,58.43,0
43.00,57.48,0
47.00,56.25,0
49.00,54.99,0
43.00,53.77,0
36.00,52.47,0
39.00,51.03,0
73.00,49.79,0
39.00,49.05,0
54.00,48.56,0
44.00,48.17,0
36.00,47.74,0
35.00,47.09,0
42.00,46.26,0
37.00,45.39,0
69.00,44.76,0
40.00,44.57,0
43.00,44.55,0
36.00,44.39,0
71.00,44.34,0
44.00,44.68,0
55.00,45.22,0
60.00,45.91,0
60.00,46.86,0
152.00,48.78,0
45.00,52.01,0
64.00,55.27,0
54.00,57.81,0
46.00,59.62,0
36.00,60.52,0
49.00,60.59,0
35.00,60.03,0
59.00,59.10,0
44.00,58.06,0
38.00,56.88,0
46.00,55.47,0
54.00,54.09,0
83.00,53.21,0
39.00,52.93,0
37.00,52.60,0
45.00,51.92,0
37.00,51.04,0
83.00,50.35,0
34.00,50.12,0
35.00,49.83,0
53.00,49.26,0
50.00,48.78,0
54.00,48.51,0
50.00,48.42,0
46.00,48.40,0
42.00,48.31,0
57.00,48.19,0
36.00,48.09,0
44.00,47.86,0
54.00,47.56,0
45.00,47.40,0
57.00,47.37,0
48.00,47.49,0
50.00,47.69,0
48.00,47.88,0
50.00,48.07,0
39.00,48.16,0
42.00,48.05,0
58.00,47.87,0
48.00,47.85,0
39.00,47.86,0
45.00,47.69,0
36.00,47.35,0
48.00,46.89,0
60.00,46.58,0
36.00,46.49,0
48.00,46.37,0
51.00,46.26,0
54.00,46.33,0
34.00,46.45,0
49.00,46.42,0
45.00,46.32,0
58.00,46.35,0
50.00,46.58,0
63.00,47.04,0
39.00,47.61,0
57.00,48.11,0
36.00,48.46,0
84.00,48.88,0
46.00,49.65,0
67.00,50.61,0
44.00,51.51,0
68.00,52.34,0
34.00,53.01,0
68.00,53.44,0
43.00,53.77,0
61.00,54.02,0
52.00,54.21,0
50.00,54.35,0
56.00,54.37,0
46.00,54.31,0
39.00,54.01,0
56.00,53.49,0
68.00,53.13,0
52.00,53.12,0
40.00,53.11,0
55.00,52.89,0
41.00,52.55,0
36.00,51.99,0
50.00,51.19,0
38.00,50.32,0
72.00,49.64,0
42.00,49.33,0
49.00,49.16,0
39.00,48.88,0
50.00,48.52,0
74.00,48.41,0
82.00,49.04,0
38.00,50.17,0
47.00,51.07,0
42.00,51.50,0
46.00,51.59,0
43.00,51.41,0
63.00,51.19,0
37.00,51.04,0
51.00,50.78,0
43.00,50.41,0
55.00,50.05,0
43.00,49.74,0
45.00,49.40,0
54.00,49.06,0
42.00,48.78,0
51.00,48.52,0
45.00,48.28,0
64.00,48.20,0
42.00,48.32,0
40.00,48.37,0
53.00,48.25,0
99.00,48.59,0
50.00,49.72,0
46.00,50.97,0
69.00,51.97,0
45.00,52.91,0
66.00,53.74,0
51.00,54.47,0
41.00,54.95,0
35.00,54.89,0
39.00,54.27,0
51.00,53.35,0
43.00,52.42,0
45.00,51.47,0
49.00,50.56,0
40.00,49.71,0
47.00,48.87,0
38.00,48.04,0
51.00,47.25,0
34.00,46.53,0
36.00,45.73,0
40.00,44.81,0
36.00,43.89,0
57.00,43.13,0
46.00,42.76,0
40.00,42.62,0
48.00,42.54,0
39.00,42.52,0
36.00,42.44,0
40.00,42.23,0
62.00,42.14,0
50.00,42.44,0
34.00,42.90,0
53.00,43.23,0
37.00,43.52,0
59.00,43.84,0
41.00,44.25,0
60.00,44.77,0
46.00,45.39,0
74.00,46.23,0
39.00,47.27,0
124.00,48.78,0
94.00,51.46,0
74.00,55.01,0
44.00,58.26,0
57.00,60.61,0
34.00,61.98,0
50.00,62.41,0
50.00,62.20,0
36.00,61.51,0
59.00,60.45,0
39.00,59.24,0
38.00,57.81,0
39.00,56.08,0
48.00,54.27,0
34.00,52.49,0
37.00,50.67,0
34.00,48.78,0
46.00,46.98,0
39.00,45.42,0
52.00,44.19,0
48.00,43.37,0
77.00,43.18,0
43.00,43.63,0
64.00,44.40,0
61.00,45.44,0
70.00,46.85,0
42.00,48.37,0
76.00,49.83,0
46.00,51.28,0
126.00,53.12,0
69.00,55.80,0
73.00,58.78,0
43.00,61.24,0
53.00,62.83,0
36.00,63.49,0
84.00,63.62,0
50.00,63.72,0
46.00,63.59,0
45.00,62.93,0
51.00,61.89,0
42.00,60.62,0
35.00,59.05,0
47.00,57.21,0
44.00,55.35,0
41.00,53.56,0
35.00,51.75,0
71.00,50.18,0
32.00,49.05,0
54.00,48.13,0
42.00,47.35,0
47.00,46.72,0
59.00,46.30,0
43.00,46.18,0
66.00,46.30,0
73.00,46.92,0
47.00,47.98,0
94.00,49.35,0
62.00,51.21,0
69.00,53.30,0
118.00,55.76,0
42.00,58.65,0
53.00,61.01,0
48.00,62.42,0
37.00,62.96,0
70.00,62.88,0
51.00,62.63,0
46.00,62.17,0
67.00,61.49,0
38.00,60.75,0
34.00,59.64,0
53.00,58.14,0
44.00,56.59,0
130.00,55.79,0
41.00,56.20,0
38.00,56.72,0
40.00,56.53,0
39.00,55.81,0
50.00,54.81,0
37.00,53.69,0
40.00,52.42,0
88.00,51.41,0
94.00,51.51,0
70.00,52.74,0
62.00,54.38,0
47.00,55.82,0
78.00,57.01,0
46.00,58.08,0
94.00,59.16,0
51.00,60.38,0
72.00,61.53,0
42.00,62.32,0
66.00,62.70,0
34.00,62.64,0
36.00,61.91,0
37.00,60.50,0
49.00,58.74,0
32.00,56.84,0
38.00,54.75,0
75.00,52.88,0
36.00,51.55,0
38.00,50.37,0
52.00,49.17,0
60.00,48.29,0
34.00,47.74,0
45.00,47.16,0
39.00,46.51,0
45.00,45.87,0
45.00,45.31,0
82.00,45.17,0
45.00,45.68,0
118.00,46.94,0
55.00,49.12,0
56.00,51.50,0
48.00,53.38,0
66.00,54.84,0
59.00,56.11,0
85.00,57.45,0
47.00,58.86,0
71.00,60.04,0
42.00,60.87,0
91.00,61.51,0
46.00,62.20,0
56.00,62.64,0
61.00,62.71,0
54.00,62.61,0
47.00,62.25,0
64.00,61.67,0
37.00,60.94,0
42.00,59.85,0
41.00,58.39,0
36.00,56.67,0
37.00,54.73,0
55.00,52.81,0
43.00,51.17,0
40.00,49.74,0
74.00,48.63,0
77.00,48.37,0
65.00,49.00,0
58.00,50.05,0
81.00,51.36,0
68.00,53.04,0
106.00,55.23,0
68.00,57.96,0
81.00,60.79,0
67.00,63.38,0
85.00,65.74,0
49.00,67.72,0
76.00,69.13,0
57.00,70.04,0
59.00,70.48,0
42.00,70.28,0
70.00,69.56,0
40.00,68.54,0
61.00,67.25,0
32.00,65.64,0
40.00,63.61,0
52.00,61.31,0
34.00,59.01,0
40.00,56.63,0
42.00,54.24,0
72.00,52.25,0
35.00,50.84,0
54.00,49.70,0
52.00,48.81,0
61.00,48.32,0
52.00,48.24,0
63.00,48.46,0
36.00,48.79,0
67.00,49.10,0
62.00,49.64,0
81.00,50.64,0
99.00,52.42,0
77.00,54.99,0
70.00,57.78,0
52.00,60.22,0
58.00,61.99,0
62.00,63.19,0
48.00,63.92,0
55.00,64.11,0
35.00,63.73,0
93.00,63.14,0
45.00,62.80,0
46.00,62.36,0
46.00,61.48,0
52.00,60.34,0
35.00,59.01,0
50.00,57.46,0
36.00,55.80,0
34.00,53.98,0
39.00,51.99,0
39.00,50.01,0
64.00,48.34,0
52.00,47.29,0
72.00,46.91,0
52.00,47.13,0
64.00,47.72,0
76.00,48.71,0
109.00,50.53,0
64.00,53.21,0
67.00,56.01,0
64.00,58.44,0
72.00,60.57,0
55.00,62.36,0
54.00,63.60,0
57.00,64.26,0
101.00,64.86,0
41.00,65.65,0
78.00,66.23,0
49.00,66.52,0
48.00,66.40,0
40.00,65.63,0
65.00,64.48,0
45.00,63.24,0
38.00,61.80,0
47.00,60.05,0
54.00,58.27,0
45.00,56.64,0
37.00,55.03,0
57.00,53.44,0
69.00,52.28,0
67.00,51.84,0
45.00,51.84,0
43.00,51.78,0
54.00,51.55,0
70.00,51.50,0
62.00,51.88,0
99.00,52.87,0
65.00,54.58,0
108.00,56.87,0
36.00,59.35,0
70.00,61.33,0
62.00,62.78,0
98.00,64.22,0
33.00,65.59,0
70.00,66.40,0
53.00,66.68,0
72.00,66.74,0
58.00,66.69,0
47.00,66.39,0
43.00,65.57,0
66.00,64.42,0
35.00,63.15,0
99.00,62.04,0
36.00,61.37,0
40.00,60.57,0
41.00,59.26,0
48.00,57.70,0
69.00,56.32,0
41.00,55.28,0
58.00,54.39,0
94.00,53.99,0
66.00,54.48,0
57.00,55.39,0
89.00,56.47,0
58.00,57.85,0
86.00,59.39,0
62.00,61.01,0
73.00,62.56,0
72.00,63.99,0
93.00,65.52,0
65.00,67.18,0
82.00,68.75,0
38.00,69.87,0
82.00,70.40,0
48.00,70.54,0
64.00,70.31,0
40.00,69.60,0
68.00,68.52,0
48.00,67.28,0
58.00,65.96,0
38.00,64.44,0
35.00,62.56,0
47.00,60.33,0
36.00,58.01,0
45.00,55.69,0
68.00,53.68,0
52.00,52.31,0
36.00,51.26,0
44.00,50.15,0
124.00,49.70,0
54.00,50.58,0
40.00,51.82,0
52.00,52.58,0
55.00,53.07,0
108.00,53.92,0
58.00,55.52,0
78.00,57.39,0
84.00,59.38,0
64.00,61.48,0
85.00,63.51,0
218.00,66.69,0
48.00,71.63,0
121.00,76.62,0
57.00,80.75,0
80.00,83.82,0
46.00,85.55,0
64.00,85.99,0
37.00,85.23,0
44.00,83.35,0
47.00,80.59,0
50.00,77.39,0
115.00,74.56,0
39.00,72.58,0
38.00,70.59,0
47.00,68.08,0
47.00,65.41,0
34.00,62.66,0
36.00,59.76,0
45.00,56.82,0
57.00,54.22,0
45.00,52.15,0
69.00,50.63,0
68.00,49.88,0
86.00,50.08,0
56.00,51.03,0
68.00,52.27,0
54.00,53.51,0
97.00,54.95,0
73.00,56.89,0
95.00,59.28,0
71.00,61.91,0
92.00,64.57,0
48.00,66.97,0
67.00,68.68,0
56.00,69.67,0
56.00,70.06,0
44.00,69.79,0
54.00,68.90,0
34.00,67.48,0
44.00,65.54,0
35.00,63.19,0
39.00,60.57,0
59.00,58.00,0
37.00,55.72,0
73.00,53.86,0
34.00,52.46,0
37.00,51.13,0
60.00,49.81,0
64.00,48.99,0
46.00,48.69,0
76.00,48.77,0
59.00,49.35,0
97.00,50.55,0
76.00,52.53,0
75.00,54.98,0
82.00,57.57,0
77.00,60.25,0
75.00,62.87,0
81.00,65.32,0
82.00,67.67,0
70.00,69.82,0
50.00,71.39,0
46.00,72.02,0
47.00,71.66,0
44.00,70.55,0
46.00,68.87,0
37.00,66.74,0
40.00,64.24,0
36.00,61.48,0
44.00,58.64,0
81.00,56.23,0
39.00,54.57,0
38.00,53.13,0
49.00,51.63,0
35.00,50.20,0
52.00,48.87,0
50.00,47.81,0
69.00,47.24,0
66.00,47.35,0
48.00,47.92,0
69.00,48.69,0
52.00,49.62,0
80.00,50.79,0
56.00,52.21,0
77.00,53.79,0
74.00,55.56,0
78.00,57.57,0
83.00,59.79,0
82.00,62.19,0
63.00,64.52,0
52.00,66.31,0
62.00,67.36,0
59.00,67.87,0
74.00,68.12,0
38.00,68.08,0
40.00,67.37,0
44.00,65.94,0
40.00,64.06,0
40.00,61.86,0
49.00,59.54,0
36.00,57.25,0
46.00,55.00,0
47.00,52.92,0
54.00,51.19,0
38.00,49.78,0
46.00,48.52,0
51.00,47.45,0
61.00,46.80,0
50.00,46.61,0
95.00,47.04,0
42.00,48.15,0
72.00,49.47,0
51.00,50.81,0
49.00,51.98,0
87.00,53.11,0
78.00,54.70,0
78.00,56.75,0
47.00,58.76,0
44.00,60.12,0
65.00,60.83,0
46.00,61.16,0
47.00,61.08,0
55.00,60.61,0
53.00,59.98,0
44.00,59.22,0
48.00,58.24,0
41.00,57.07,0
62.00,55.88,0
34.00,54.77,0
36.00,53.50,0
47.00,52.02,0
39.00,50.58,0
63.00,49.36,0
81.00,48.83,0
65.00,49.23,0
75.00,50.28,0
58.00,51.66,0
84.00,53.29,0
52.00,55.06,0
86.00,56.84,0
67.00,58.72,0
89.00,60.77,0
68.00,62.91,0
77.00,64.95,0
48.00,66.58,0
77.00,67.69,0
38.00,68.27,0
94.00,68.50,0
51.00,68.70,0
36.00,68.49,0
50.00,67.51,0
64.00,66.18,0
48.00,64.86,0
35.00,63.32,0
49.00,61.44,0
36.00,59.38,0
46.00,57.23,0
48.00,55.17,0
43.00,53.30,0
35.00,51.51,0
68.00,49.95,0
53.00,48.96,0
37.00,48.33,0
43.00,47.66,0
62.00,47.10,0
68.00,47.07,0
46.00,47.50,0
48.00,47.97,0
94.00,48.70,0
77.00,50.24,0
36.00,52.10,0
72.00,53.62,0
81.00,55.15,0
71.00,57.03,0
71.00,59.00,0
44.00,60.67,0
72.00,61.84,0
60.00,62.73,0
71.00,63.51,0
42.00,64.02,0
38.00,63.89,0
38.00,62.97,0
49.00,61.54,0
35.00,59.82,0
40.00,57.85,0
35.00,55.69,0
34.00,53.38,0
36.00,51.02,0
46.00,48.79,0
35.00,46.83,0
40.00,45.09,0
49.00,43.62,0
44.00,42.57,0
51.00,41.92,0
56.00,41.71,0
38.00,41.83,0
44.00,41.99,0
62.00,42.28,0
48.00,42.89,0
82.00,43.92,0
64.00,45.54,0
52.00,47.43,0
36.00,48.99,0
55.00,50.03,0
75.00,50.99,0
87.00,52.44,0
69.00,54.45,0
99.00,56.86,0
62.00,59.52,0
67.00,61.98,0
48.00,63.81,0
36.00,64.74,0
50.00,64.71,0
52.00,64.10,0
38.00,63.10,0
64.00,61.83,0
43.00,60.56,0
34.00,59.10,0
38.00,57.27,0
40.00,55.22,0
37.00,53.12,0
46.00,51.09,0
38.00,49.23,0
61.00,47.71,0
71.00,46.89,0
73.00,46.99,0
79.00,47.96,0
56.00,49.48,0
77.00,51.22,0
79.00,53.23,0
82.00,55.63,0
82.00,58.29,0
87.00,61.15,0
54.00,63.85,0
213.00,67.17,0
71.00,72.02,0
114.00,77.20,0
34.00,81.33,0
49.00,83.69,0
44.00,84.17,0
59.00,83.38,0
39.00,81.68,0
67.00,79.37,0
35.00,76.71,0
44.00,73.65,0
58.00,70.38,0
48.00,67.29,0
42.00,64.32,0
37.00,61.34,0
38.00,58.33,0
46.00,55.42,0
47.00,52.85,0
88.00,51.03,0
73.00,50.40,0
58.00,50.69,0
74.00,51.40,0
52.00,52.37,0
94.00,53.63,0
80.00,55.45,0
127.00,58.15,0
56.00,61.51,0
88.00,64.74,0
44.00,67.33,0
92.00,69.29,0
74.00,70.98,0
95.00,72.69,0
35.00,74.06,0
74.00,74.61,0
37.00,74.39,0
191.00,74.57,0
44.00,76.07,0
99.00,77.83,0
39.00,78.90,0
50.00,78.98,0
43.00,77.94,0
36.00,75.98,0
77.00,73.57,0
40.00,71.21,0
42.00,68.70,0
49.00,65.95,0
63.00,63.35,0
66.00,61.28,0
38.00,59.60,0
103.00,58.39,0
122.00,58.55,0
64.00,60.14,0
72.00,62.01,0
80.00,63.77,0
77.00,65.55,0
83.00,67.35,0
88.00,69.23,0
75.00,71.14,0
88.00,72.93,0
42.00,74.30,0
61.00,74.80,0
48.00,74.47,0
60.00,73.55,0
35.00,72.09,0
42.00,70.02,0
43.00,67.47,0
39.00,64.69,0
35.00,61.72,0
42.00,58.67,0
54.00,55.84,0
39.00,53.41,0
69.00,51.45,0
48.00,50.13,0
67.00,49.39,0
53.00,49.14,0
71.00,49.35,0
58.00,49.97,0
36.00,50.64,0
52.00,50.97,0
102.00,51.54,0
78.00,53.04,0
61.00,55.08,0
78.00,57.11,0
72.00,59.16,0
59.00,61.09,0
36.00,62.39,0
61.00,62.91,0
55.00,62.97,0
46.00,62.73,0
51.00,62.10,0
35.00,61.08,0
38.00,59.59,0
90.00,58.15,0
41.00,57.28,0
40.00,56.48,0
50.00,55.41,0
44.00,54.29,0
53.00,53.22,0
51.00,52.31,0
43.00,51.52,0
79.00,51.01,0
61.00,51.10,0
65.00,51.68,0
90.00,52.73,0
112.00,54.74,0
78.00,57.73,0
57.00,60.77,0
52.00,63.10,0
73.00,64.71,0
62.00,65.94,0
122.00,67.34,0
59.00,69.18,0
76.00,70.91,0
44.00,71.98,0
89.00,72.51,0
34.00,72.63,0
53.00,72.05,0
38.00,70.71,0
53.00,68.85,0
41.00,66.69,0
36.00,64.26,0
40.00,61.56,0
44.00,58.80,0
47.00,56.20,0
46.00,53.88,0
44.00,51.85,0
33.00,49.98,0
49.00,48.22,0
60.00,46.86,0
71.00,46.27,0
81.00,46.64,0
45.00,47.67,0
70.00,48.86,0
64.00,50.21,0
47.00,51.60,0
62.00,52.77,0
35.00,53.62,0
119.00,54.57,0
70.00,56.32,0
102.00,58.77,0
59.00,61.44,0
43.00,63.61,0
52.00,64.79,0
77.00,65.40,0
62.00,65.91,0
51.00,66.20,0
43.00,65.95,0
35.00,65.01,0
44.00,63.44,0
53.00,61.60,0
40.00,59.73,0
40.00,57.77,0
38.00,55.69,0
39.00,53.53,0
42.00,51.44,0
60.00,49.65,0
60.00,48.49,0
57.00,47.96,0
64.00,47.94,0
45.00,48.25,0
57.00,48.63,0
51.00,49.04,0
79.00,49.70,0
95.00,51.07,0
96.00,53.44,0
52.00,56.28,0
72.00,58.82,0
60.00,60.93,0
86.00,62.81,0
75.00,64.70,0
98.00,66.76,0
68.00,68.92,0
61.00,70.72,0
86.00,72.03,0
62.00,73.09,0
46.00,73.59,0
90.00,73.55,0
39.00,73.29,0
46.00,72.43,0
40.00,70.78,0
38.00,68.54,0
38.00,65.83,0
56.00,63.00,0
38.00,60.32,0
36.00,57.68,0
36.00,54.96,0
36.00,52.27,0
174.00,50.82,0
47.00,51.59,0
48.00,53.09,0
48.00,54.04,0
77.00,54.81,0
65.00,55.79,0
76.00,57.04,0
71.00,58.48,0
52.00,59.87,0
56.00,60.86,0
47.00,61.34,0
60.00,61.42,0
77.00,61.46,0
76.00,61.85,0
61.00,62.50,0
58.00,63.04,0
76.00,63.46,0
52.00,63.85,0
61.00,64.02,0
39.00,63.79,0
79.00,63.31,0
52.00,62.91,0
45.00,62.41,0
36.00,61.44,0
37.00,59.94,0
56.00,58.19,0
41.00,56.51,0
86.00,55.22,0
52.00,54.60,0
57.00,54.37,0
56.00,54.23,0
61.00,54.23,0
51.00,54.34,0
60.00,54.46,0
61.00,54.68,0
121.00,55.53,0
41.00,57.19,0
72.00,58.84,0
58.00,60.15,0
72.00,61.31,0
68.00,62.39,0
117.00,63.84,0
43.00,65.68,0
60.00,67.07,0
52.00,67.70,0
65.00,67.83,0
59.00,67.68,0
130.00,67.92,0
46.00,68.87,0
47.00,69.55,0
46.00,69.30,0
42.00,68.31,0
36.00,66.67,0
42.00,64.50,0
38.00,62.03,0
39.00,59.39,0
48.00,56.78,0
40.00,54.37,0
56.00,52.25,0
58.00,50.65,0
58.00,49.67,0
50.00,49.13,0
43.00,48.76,0
42.00,48.34,0
63.00,47.99,0
104.00,48.38,0
79.00,49.97,0
67.00,52.24,0
78.00,54.64,0
66.00,57.06,0
107.00,59.63,0
87.00,62.64,0
63.00,65.71,0
51.00,68.05,0
75.00,69.57,0
57.00,70.55,0
90.00,71.27,0
36.00,71.71,0
79.00,71.67,0
125.00,71.91,0
50.00,72.85,0
43.00,73.37,0
36.00,72.76,0
36.00,71.13,0
44.00,68.79,0
36.00,66.06,0
51.00,63.18,0
41.00,60.38,0
53.00,57.79,0
66.00,55.68,0
53.00,54.20,0
74.00,53.32,0
57.00,53.01,0
68.00,53.15,0
57.00,53.57,0
78.00,54.26,0
87.00,55.48,0
67.00,57.21,0
53.00,58.90,0
93.00,60.43,0
65.00,62.12,0
74.00,63.80,0
62.00,65.24,0
74.00,66.43,0
56.00,67.33,0
63.00,67.84,0
52.00,67.92,0
36.00,67.41,0
149.00,67.05,0
35.00,67.61,0
39.00,67.94,0
36.00,67.16,0
46.00,65.63,0
36.00,63.65,0
37.00,61.32,0
37.00,58.73,0
83.00,56.42,0
61.00,55.00,0
38.00,54.11,0
37.00,53.08,0
74.00,52.07,0
78.00,51.76,0
105.00,52.59,0
80.00,54.55,0
89.00,57.16,0
66.00,59.93,0
69.00,62.46,0
42.00,64.35,0
70.00,65.50,0
50.00,66.13,0
70.00,66.40,0
41.00,66.31,0
81.00,65.98,0
70.00,65.81,0
49.00,65.73,0
37.00,65.19,0
36.00,63.94,0
35.00,62.07,0
37.00,59.78,0
37.00,57.27,0
36.00,54.68,0
53.00,52.24,0
39.00,50.16,0
73.00,48.61,0
47.00,47.74,0
48.00,47.28,0
48.00,46.95,0
61.00,46.84,0
55.00,47.06,0
76.00,47.72,0
75.00,48.98,0
68.00,50.75,0
63.00,52.68,0
76.00,54.64,0
73.00,56.70,0
87.00,58.95,0
52.00,61.18,0
55.00,62.89,0
52.00,63.88,0
72.00,64.42,0
58.00,64.81,0
78.00,65.16,0
63.00,65.56,0
37.00,65.69,0
46.00,65.13,0
47.00,64.00,0
36.00,62.46,0
45.00,60.59,0
34.00,58.49,0
49.00,56.29,0
43.00,54.21,0
43.00,52.30,0
86.00,50.90,0
50.00,50.35,0
56.00,50.27,0
49.00,50.29,0
57.00,50.39,0
50.00,50.55,0
64.00,50.84,0
72.00,51.45,0
98.00,52.74,0
79.00,54.85,0
118.00,57.74,0
57.00,61.10,0
89.00,64.28,0
70.00,67.10,0
94.00,69.69,0
79.00,72.14,0
71.00,74.29,0
70.00,75.87,0
50.00,76.72,0
45.00,76.61,0
55.00,75.60,0
53.00,74.05,0
35.00,72.04,0
127.00,70.21,0
36.00,69.18,0
64.00,68.28,0
39.00,67.02,0
36.00,65.31,0
56.00,63.24,0
52.00,61.22,0
53.00,59.43,0
57.00,57.88,0
56.00,56.63,0
75.00,55.83,0
78.00,55.72,0
63.00,56.22,0
60.00,56.93,0
99.00,57.92,0
59.00,59.38,0
83.00,61.01,0
42.00,62.44,0
72.00,63.43,0
66.00,64.17,0
80.00,64.96,0
54.00,65.73,0
135.00,66.81,0
45.00,68.46,0
58.00,69.79,0
46.00,70.21,0
50.00,69.86,0
44.00,68.84,0
40.00,67.26,0
38.00,65.17,0
37.00,62.70,0
36.00,59.97,0
38.00,57.12,0
39.00,54.32,0
37.00,51.65,0
37.00,49.16,0
73.00,47.17,0
170.00,47.03,0
38.00,49.09,0
35.00,51.36,0
59.00,52.77,0
65.00,53.90,0
65.00,55.07,0
141.00,56.92,0
83.00,60.01,0
96.00,63.71,0
52.00,67.12,0
49.00,69.55,0
78.00,70.98,0
70.00,71.99,0
80.00,72.85,0
36.00,73.28,0
53.00,72.88,0
52.00,71.78,0
40.00,70.19,0
53.00,68.19,0
44.00,65.99,0
40.00,63.63,0
59.00,61.25,0
46.00,59.10,0
40.00,57.09,0
63.00,55.24,0
35.00,53.66,0
62.00,52.31,0
51.00,51.28,0
66.00,50.71,0
46.00,50.49,0
66.00,50.51,0
43.00,50.68,0
88.00,51.12,0
46.00,51.95,0
88.00,53.09,0
39.00,54.36,0
91.00,55.65,0
43.00,56.98,0
75.00,58.18,0
60.00,59.27,0
74.00,60.36,0
45.00,61.28,0
64.00,61.84,0
58.00,62.13,0
62.00,62.30,0
46.00,62.25,0
80.00,62.09,0
54.00,62.07,0
57.00,62.02,0
58.00,61.80,0
35.00,61.31,0
74.00,60.57,0
42.00,59.87,0
66.00,59.21,0
52.00,58.61,0
98.00,58.44,0
60.00,58.92,0
66.00,59.69,0
38.00,60.20,0
113.00,60.71,0
44.00,61.64,0
88.00,62.69,0
48.00,63.63,0
76.00,64.39,0
54.00,64.94,0
72.00,65.33,0
74.00,65.71,0
86.00,66.36,0
35.00,66.98,0
57.00,67.01,0
41.00,66.38,0
71.00,65.44,0
46.00,64.46,0
66.00,63.48,0
40.00,62.43,0
44.00,61.14,0
41.00,59.53,0
57.00,57.86,0
40.00,56.28,0
33.00,54.63,0
54.00,52.89,0
38.00,51.30,0
45.00,49.85,0
36.00,48.45,0
69.00,47.32,0
47.00,46.73,0
49.00,46.49,0
49.00,46.37,0
89.00,46.71,0
68.00,47.86,0
64.00,49.55,0
61.00,51.32,0
92.00,53.27,0
53.00,55.46,0
80.00,57.58,0
84.00,59.75,0
41.00,61.81,0
60.00,63.20,0
80.00,64.16,0
57.00,65.06,0
53.00,65.62,0
62.00,65.74,0
55.00,65.58,0
49.00,65.11,0
32.00,64.13,0
35.00,62.49,0
38.00,60.33,0
36.00,57.91,0
45.00,55.44,0
53.00,53.20,0
34.00,51.27,0
38.00,49.43,0
65.00,47.84,0
48.00,46.83,0
39.00,46.17,0
54.00,45.63,0
64.00,45.45,0
40.00,45.65,0
58.00,45.96,0
59.00,46.46,0
61.00,47.26,0
38.00,48.12,0
50.00,48.72,0
40.00,49.04,0
116.00,49.70,0
37.00,51.10,0
77.00,52.69,0
52.00,54.17,0
64.00,55.52,0
56.00,56.67,0
83.00,57.80,0
37.00,58.90,0
81.00,59.75,0
49.00,60.47,0
34.00,60.78,0
49.00,60.38,0
45.00,59.54,0
43.00,58.44,0
129.00,57.82,0
36.00,58.21,0
35.00,58.54,0
48.00,58.11,0
45.00,57.32,0
54.00,56.41,0
44.00,55.48,0
72.00,54.71,0
62.00,54.39,0
84.00,54.65,0
45.00,55.33,0
62.00,55.96,0
54.00,56.44,0
92.00,57.10,0
87.00,58.40,0
115.00,60.62,0
41.00,63.26,0
94.00,65.58,0
66.00,67.61,0
105.00,69.66,0
52.00,71.62,0
73.00,73.08,0
89.00,74.14,0
94.00,75.35,0
36.00,76.37,0
70.00,76.57,0
54.00,76.09,0
43.00,75.05,0
42.00,73.27,0
40.00,70.88,0
41.00,68.05,0
51.00,65.09,0
82.00,62.54,0
38.00,60.63,0
67.00,59.03,0
42.00,57.64,0
73.00,56.52,0
50.00,55.78,0
100.00,55.63,0
46.00,56.12,0
97.00,57.03,0
56.00,58.28,0
90.00,59.78,0
56.00,61.35,0
110.00,63.10,0
66.00,65.17,0
120.00,67.58,0
88.00,70.43,0
110.00,73.64,0
54.00,76.63,0
88.00,78.89,0
68.00,80.47,0
100.00,81.68,0
45.00,82.49,0
75.00,82.57,0
87.00,82.23,0
60.00,81.81,0
35.00,80.79,0
46.00,78.79,0
68.00,76.27,0
35.00,73.63,0
37.00,70.63,0
42.00,67.27,0
44.00,63.85,0
56.00,60.69,0
70.00,58.14,0
35.00,56.20,0
52.00,54.45,0
63.00,52.99,0
87.00,52.32,0
66.00,52.58,0
99.00,53.68,0
105.00,55.79,0
104.00,58.97,0
97.00,62.82,0
111.00,67.07,0
77.00,71.35,0
112.00,75.37,0
70.00,78.99,0
127.00,82.27,0
100.00,85.55,0
102.00,88.76,0
81.00,91.45,0
83.00,93.34,0
58.00,94.21,0
74.00,94.02,0
50.00,92.88,0
80.00,91.03,0
42.00,88.71,0
50.00,85.77,0
47.00,82.26,0
46.00,78.42,0
35.00,74.35,0