42,41.04,0
32,40.45,0
37,39.85,0
35,39.24,0
37,38.66,0
36,38.15,0
31,37.65,0
40,37.17,0
31,36.75,0
42,36.41,0
31,36.15,0
42,35.96,0
34,35.87,0
46,35.9,0
34,36.06,0
52,36.36,0
33,36.8,0
55,37.35,0
32,37.98,0
51,38.6,0
33,39.18,0
56,39.76,0
31,40.34,0
53,40.86,0
28,41.27,0
48,41.51,0
32,41.61,0
44,41.6,0
30,41.46,0
39,41.16,0
33,40.74,0
39,40.27,0
34,39.77,0
34,39.25,0
34,38.67,0
33,38.07,0
40,37.52,0
32,37.05,0
50,36.75,0
34,36.68,0
44,36.75,0
33,36.87,0
49,37.06,0
33,37.33,0
55,37.71,0
34,38.22,0
53,38.8,0
34,39.39,0
57,40.02,0
32,40.65,0
56,41.26,0
34,41.82,0
56,42.36,0
31,42.83,0
60,43.24,0
33,43.65,0
42,43.9,0
36,43.9,0
36,43.69,0
35,43.27,0
35,42.67,0
35,41.97,0
31,41.17,0
39,40.32,0
31,39.5,0
50,38.82,0
32,38.37,0
47,38.09,0
35,37.95,0
49,37.96,0
34,38.09,0
55,38.36,0
33,38.75,0
56,39.23,0
34,39.78,0
66,40.46,0
34,41.29,0
67,42.21,0
32,43.17,0
53,44,0
32,44.57,0
54,44.95,0
31,45.17,0
58,45.28,0
33,45.35,0
45,45.3,0
34,45.07,0
39,44.66,0
35,44.08,0
35,43.38,0
32,42.54,0
30,41.56,0
43,40.56,0
31,39.67,0
44,38.92,0
36,38.34,0
45,37.96,0
34,37.74,0
42,37.61,0
31,37.49,0
49,37.43,0
36,37.51,0
62,37.84,0
34,38.45,0
59,39.2,0
33,40,0
54,40.76,0
34,41.44,0
58,42.08,0
33,42.68,0
49,43.16,0
31,43.43,0
59,43.61,0
30,43.79,0
54,43.9,0
31,43.93,0
45,43.84,0
31,43.57,0
39,43.13,0
32,42.54,0
37,41.84,0
34,41.09,0
36,40.32,0
32,39.54,0
34,38.75,0
34,37.98,0
30,37.23,0
48,36.6,0
34,36.23,0
46,36.1,0
32,36.11,0
47,36.22,0
35,36.43,0
54,36.81,0
34,37.34,0
55,37.97,0
37,38.7,0
66,39.58,0
37,40.65,0
66,41.82,0
34,43.01,0
66,44.14,0
36,45.22,0
57,46.15,0
31,46.83,0
45,47.15,0
32,47.1,0
58,46.89,0
31,46.65,0
37,46.23,0
35,45.54,0
41,44.73,0
35,43.9,0
38,43.05,0
36,42.19,0
32,41.32,0
43,40.47,0
36,39.77,0
47,39.25,0
34,38.92,0
50,38.74,0
34,38.72,0
76,39.02,0
38,39.82,0
54,40.81,0
35,41.71,0
62,42.55,0
35,43.38,0
60,44.17,0
34,44.87,0
61,45.48,0
32,46,0
60,46.4,0
33,46.7,0
55,46.87,0
33,46.92,0
68,46.96,0
31,47.09,0
54,47.16,0
32,47.06,0
44,46.77,0
33,46.27,0
35,45.56,0
31,44.62,0
32,43.49,0
36,42.28,0
30,41.07,0
42,39.93,0
33,38.96,0
48,38.22,0
34,37.74,0
44,37.46,0
36,37.31,0
54,37.36,0
40,37.7,0
62,38.32,0
39,39.2,0
56,40.19,0
38,41.18,0
62,42.17,0
36,43.17,0
65,44.15,0
34,45.08,0
60,45.9,0
33,46.54,0
56,47,0
35,47.29,0
56,47.44,0
30,47.46,0
47,47.25,0
30,46.8,0
46,46.18,0
34,45.47,0
36,44.67,0
32,43.72,0
32,42.65,0
33,41.5,0
31,40.32,0
40,39.2,0
32,38.24,0
50,37.52,0
32,37.08,0
42,36.82,0
36,36.66,0
52,36.69,0
41,37,0
57,37.59,0
41,38.42,0
65,39.46,0
39,40.68,0
66,41.99,0
38,43.32,0
68,44.64,0
35,45.89,0
64,46.99,0
36,47.92,0
69,48.74,0
32,49.45,0
56,49.92,0
35,50.11,0
53,50.07,0
30,49.8,0
48,49.29,0
31,48.56,0
71,47.9,0
32,47.51,0
36,47.06,0
32,46.28,0
30,45.24,0
35,44.01,0
32,42.7,0
38,41.43,0
32,40.26,0
47,39.26,0
32,38.52,0
48,37.99,0
41,37.73,0
52,37.78,0
38,38.09,0
64,38.65,0
40,39.5,0
60,40.52,0
34,41.57,0
64,42.57,0
38,43.58,0
63,44.58,0
37,45.53,0
63,46.4,0
38,47.19,0
75,48,0
35,48.86,0
57,49.58,0
34,50,0
57,50.17,0
31,50.12,0
52,49.84,0
33,49.37,0
38,48.67,0
31,47.69,0
34,46.47,0
36,45.12,0
35,43.77,0
36,42.47,0
37,41.27,0
46,40.29,0
38,39.58,0
57,39.22,0
37,39.21,0
48,39.39,0
41,39.66,0
58,40.11,0
42,40.77,0
69,41.67,0
35,42.75,0
66,43.85,0
38,44.94,0
72,46.04,0
40,47.19,0
64,48.29,0
41,49.26,0
56,50.04,0
34,50.52,0
68,50.81,0
33,51.02,0
59,51.09,0
30,50.95,0
58,50.63,0
31,50.17,0
37,49.46,0
36,48.45,0
35,47.28,0
34,45.98,0
31,44.58,0
32,43.11,0
30,41.6,0
43,40.19,0
35,39.04,0
47,38.19,0
35,37.64,0
54,37.4,0
42,37.5,0
54,37.92,0
43,38.59,0
60,39.47,0
48,40.58,0
70,41.95,0
47,43.55,0
80,45.34,0
38,47.22,0
88,49.11,0
39,51.01,0
72,52.73,0
41,54.15,0
74,55.32,0
37,56.25,0
73,56.93,0
34,57.35,0
55,57.4,0
31,56.98,0
48,56.15,0
31,54.96,0
44,53.52,0
37,51.95,0
30,50.26,0
34,48.4,0
31,46.45,0
36,44.53,0
37,42.75,0
44,41.26,0
41,40.14,0
54,39.45,0
44,39.22,0
60,39.43,0
42,39.98,0
66,40.82,0
42,41.9,0
69,43.14,0
45,44.53,0
81,46.09,0
42,47.81,0
72,49.5,0
39,51.01,0
68,52.27,0
38,53.26,0
66,53.99,0
35,54.45,0
63,54.65,0
33,54.6,0
55,54.27,0
32,53.68,0
54,52.89,0
31,51.95,0
34,50.76,0
38,49.31,0
33,47.76,0
35,46.16,0
32,44.53,0
44,43,0
39,41.74,0
57,40.87,0
37,40.44,0
56,40.31,0
40,40.45,0
60,40.83,0
32,41.37,0
71,42.01,0
42,42.9,0
78,44.08,0
44,45.53,0
77,47.13,0
45,48.8,0
85,50.53,0
41,52.3,0
90,54.03,0
39,55.72,0
72,57.13,0
35,58.13,0
70,58.71,0
34,58.94,0
50,58.73,0
30,57.98,0
43,56.76,0
30,55.17,0
33,53.27,0
33,51.12,0
33,48.9,0
34,46.69,0
35,44.59,0
50,42.8,0
35,41.43,0
50,40.42,0
38,39.74,0
55,39.41,0
42,39.43,0
59,39.78,0
52,40.47,0
67,41.57,0
51,42.98,0
74,44.64,0
55,46.52,0
75,48.55,0
48,50.58,0
87,52.58,0
38,54.51,0
76,56.15,0
45,57.48,0
88,58.69,0
46,59.88,0
73,60.89,0
37,61.54,0
56,61.68,0
36,61.28,0
58,60.49,0
33,59.42,0
37,57.97,0
36,56.15,0
34,54.09,0
33,51.87,0
32,49.55,0
38,47.28,0
35,45.17,0
53,43.4,0
38,42.1,0
51,41.21,0
43,40.68,0
54,40.51,0
42,40.65,0
62,41.05,0
48,41.77,0
68,42.8,0
59,44.18,0
91,46.04,0
50,48.35,0
80,50.73,0
44,52.97,0
75,54.93,0
44,56.56,0
92,58.05,0
38,59.45,0
75,60.56,0
37,61.27,0
70,61.59,0
35,61.55,0
60,61.14,0
32,60.36,0
53,59.23,0
31,57.82,0
44,56.15,0
30,54.25,0
30,52.13,0
39,49.85,0
34,47.65,0
48,45.69,0
38,44.07,0
47,42.8,0
38,41.82,0
59,41.2,0
43,41.01,0
72,41.3,0
52,42.13,0
80,43.48,0
60,45.31,0
74,47.48,0
52,49.71,0
78,51.88,0
38,53.84,0
82,55.51,0
49,57.01,0
82,58.43,0
41,59.68,0
85,60.72,0
38,61.55,0
78,62.13,0
36,62.42,0
62,62.32,0
32,61.78,0
53,60.81,0
33,59.48,0
40,57.82,0
31,55.84,0
32,53.58,0
33,51.16,0
36,48.74,0
34,46.43,0
37,44.31,0
52,42.56,0
30,41.23,0
52,40.22,0
40,39.55,0
61,39.33,0
55,39.66,0
64,40.53,0
52,41.79,0
64,43.29,0
58,44.96,0
58,46.7,0
43,48.28,0
73,49.68,0
47,51.05,0
84,52.48,0
45,53.98,0
94,55.54,0
42,57.17,0
77,58.63,0
38,59.73,0
73,60.46,0
37,60.84,0
68,60.9,0
32,60.63,0
49,59.91,0
49,58.87,0
34,57.63,0
31,56,0
36,54.01,0
32,51.83,0
37,49.58,0
49,47.52,0
36,45.8,0
51,44.4,0
46,43.38,0
52,42.8,0
50,42.59,0
62,42.79,0
43,43.32,0
69,44.08,0
54,45.14,0
74,46.53,0
50,48.13,0
90,49.93,0
47,51.94,0
80,53.92,0
64,55.89,0
84,57.95,0
40,59.85,0
101,61.5,0
42,63.07,0
85,64.41,0
37,65.35,0
77,65.87,0
36,65.96,0
53,65.52,0
34,64.47,0
36,62.84,0
32,60.66,0
44,58.18,0
34,55.64,0
34,53.08,0
38,50.53,0
35,48.12,0
49,46,0
44,44.33,0
53,43.17,0
51,42.52,0
64,42.44,0
53,42.89,0
71,43.81,0
60,45.17,0
80,46.96,0
53,49.02,0
87,51.22,0
70,53.66,0
98,56.42,0
45,59.22,0
88,61.68,0
40,63.66,0
81,65.13,0
44,66.12,0
83,66.77,0
44,67.16,0
61,67.16,0
34,66.59,0
53,65.47,0
31,63.86,0
32,61.75,0
33,59.17,0
32,56.33,0
34,53.4,0
34,50.52,0
36,47.79,0
39,45.34,0
47,43.31,0
41,41.77,0
55,40.74,0
51,40.27,0
60,40.38,0
65,41.08,0
62,42.34,0
57,43.92,0
82,45.81,0
58,48.03,0
97,50.56,0
57,53.37,0
90,56.22,0
53,58.93,0
94,61.43,0
55,63.75,0
100,65.92,0
47,67.88,0
98,69.54,0
32,70.78,0
68,71.28,0
41,71.03,0
60,70.24,0
33,68.92,0
43,67.04,0
32,64.65,0
39,61.9,0
32,58.94,0
36,55.88,0
39,52.9,0
51,50.24,0
40,48.06,0
45,46.26,0
75,45.06,0
45,44.64,0
72,44.81,0
61,45.51,0
70,46.73,0
52,48.2,0
78,49.81,0
66,51.64,0
94,53.84,0
58,56.3,0
86,58.76,0
55,61.05,0
95,63.17,0
59,65.2,0
97,67.16,0
61,69.02,0
80,70.62,0
56,71.79,0
96,72.69,0
42,73.37,0
83,73.63,0
41,73.45,0
70,72.83,0
38,71.76,0
49,70.2,0
32,68.08,0
32,65.42,0
32,62.3,0
39,58.99,0
32,55.7,0
50,52.62,0
54,50.08,0
41,48.14,0
72,46.79,0
48,46.13,0
60,46,0
65,46.32,0
71,47.18,0
72,48.58,0
96,50.61,0
50,53.09,0
99,55.66,0
62,58.33,0
115,61.23,0
61,64.33,0
116,67.47,0
58,70.53,0
91,73.2,0
49,75.19,0
85,76.48,0
46,77.13,0
70,77.12,0
38,76.41,0
64,75.09,0
36,73.28,0
58,71.08,0
44,68.69,0
32,66.07,0
43,63.15,0
38,60.13,0
34,57.12,0
45,54.19,0
56,51.66,0
48,49.73,0
75,48.48,0
54,48.02,0
72,48.18,0
72,48.94,0
91,50.43,0
58,52.47,0
94,54.78,0
86,57.45,0
98,60.59,0
85,64,0
106,67.57,0
71,71.08,0
110,74.36,0
76,77.43,0
146,80.57,0
62,83.84,0
116,86.75,0
56,88.99,0
103,90.47,0
57,91.25,0
88,91.35,0
45,90.7,0
58,89.16,0
35,86.67,0
40,83.31,0
39,79.27,0
34,74.85,0
32,70.16,0
37,65.38,0
45,60.83,0
50,56.83,0
62,53.62,0
58,51.33,0
68,49.93,0
86,49.54,0
78,50.23,0
69,51.67,0
91,53.6,0
86,56.07,0
104,59.12,0
84,62.6,0
116,66.38,0
67,70.23,0
118,73.87,0
60,77.19,0
118,80.1,0
70,82.69,0
142,85.23,0
67,87.82,0
99,89.99,0
59,91.33,0
85,91.84,0
49,91.49,0
82,90.39,0
38,88.64,0
49,86.11,0
36,82.75,0
44,78.83,0
32,74.54,0
33,69.99,0
45,65.4,0
55,61.22,0
48,57.7,0
60,54.86,0
68,52.84,0
71,51.77,0
70,51.55,0
62,51.94,0
80,52.78,0
74,54.11,0
93,55.99,0
73,58.32,0
110,61.06,0
88,64.28,0
120,67.96,0
46,71.6,0
111,74.67,0
67,77.3,0
125,79.81,0
69,82.26,0
111,84.5,0
53,86.25,0
90,87.26,0
54,87.51,0
81,87.12,0
48,86.11,0
67,84.51,0
33,82.27,0
39,79.25,0
44,75.63,0
44,71.79,0
43,67.94,0
67,64.39,0
80,61.69,0
70,60.07,0
71,59.25,0
83,59.11,0
104,59.88,0
108,61.79,0
108,64.74,0
99,68.34,0
120,72.35,0
84,76.49,0
155,80.77,0
73,85.22,0
122,89.28,0
61,92.54,0
112,94.9,0
69,96.48,0
128,97.63,0
62,98.46,0
88,98.66,0
55,97.97,0
79,96.5,0
43,94.31,0
66,91.44,0
38,88,0
35,83.94,0
32,79.24,0
39,74.19,0
31,69.07,0
52,64.17,0
62,59.94,0
63,56.74,0
72,54.57,0
70,53.4,0
76,53.13,0
85,53.7,0
98,55.2,0
75,57.46,0
109,60.23,0
76,63.39,0
122,66.86,0
83,70.62,0
136,74.65,0
81,78.85,0
123,82.91,0
65,86.5,0
127,89.51,0
74,92.08,0
112,94.19,0
72,95.74,0
114,96.82,0
59,97.4,0
82,97.21,0
57,96.17,0
55,94.27,0
34,91.38,0
39,87.48,0
33,82.84,0
35,77.73,0
32,72.4,0
54,67.22,0
71,62.81,0
63,59.51,0
62,57.19,0
63,55.6,0
78,54.74,0
86,54.8,0
108,56,0
94,58.32,0
92,61.36,0
90,64.67,0
111,68.22,0
91,71.99,0
118,75.86,0
82,79.68,0
124,83.3,0
73,86.63,0
158,89.82,0
75,93.12,0
122,96.11,0
62,98.35,0
111,99.75,0
64,100.39,0
106,100.41,0
62,99.9,0
73,98.71,0
38,96.57,0
40,93.3,0
32,88.99,0
48,84.02,0
34,78.82,0
32,73.49,0
46,68.2,0
64,63.48,0
68,59.79,0
52,57.1,0
78,55.23,0
82,54.38,0
93,54.7,0
84,56.05,0
95,58.16,0
85,60.8,0
101,63.82,0
101,67.21,0
140,71.24,0
99,75.9,0
131,80.82,0
72,85.47,0
133,89.55,0
79,93.13,0
121,96.19,0
83,98.66,0
112,100.59,0
71,101.85,0
117,102.51,0
50,102.55,0
75,101.62,0
47,99.6,0
56,96.62,0
42,92.82,0
43,88.38,0
38,83.47,0
39,78.28,0
43,73.07,0
58,68.2,0
74,64.18,0
82,61.37,0
85,59.89,0
79,59.52,0
81,59.95,0
99,61.1,0
86,62.97,0
73,65.14,0
122,67.57,0
104,70.67,0
142,74.58,0
97,79.12,0
136,83.85,0
81,88.4,0
126,92.44,0
70,95.78,0
120,98.35,0
86,100.32,0
106,101.79,0
65,102.55,0
115,102.64,0
57,102.23,0
84,101.13,0
38,99.13,0
58,96.14,0
42,92.3,0
37,87.81,0
35,82.76,0
40,77.41,0
46,72.11,0
70,67.37,0
56,63.54,0
70,60.61,0
113,58.93,0
86,58.88,0
69,59.82,0
105,61.28,0
119,63.65,0
108,67.06,0
118,71.2,0
94,75.61,0
142,80.16,0
92,84.85,0
134,89.41,0
104,93.75,0
128,97.83,0
85,101.38,0
136,104.31,0
91,106.8,0
121,108.78,0
70,110.03,0
101,110.33,0
73,109.77,0
118,108.73,0
38,107.21,0
66,104.65,0
44,101.02,0
35,96.48,0
32,91.04,0
64,85.25,0
33,79.62,0
53,74.23,0
74,69.44,0
84,65.86,0
68,63.52,0
81,62.14,0
91,61.69,0
96,62.26,0
104,63.83,0
89,66.16,0
118,69.05,0
117,72.6,0
125,76.84,0
108,81.45,0
127,86.12,0
90,90.56,0
148,94.69,0
96,98.69,0
168,102.66,0
101,106.68,0
133,110.37,0
86,113.26,0
131,115.32,0
79,116.61,0
108,117,0
63,116.38,0
67,114.54,0
41,111.31,0
42,106.76,0
40,101.12,0
38,94.8,0
34,88.09,0
66,81.5,0
70,75.75,0
101,71.42,0
98,68.82,0
104,67.91,0
108,68.4,0
87,69.89,0
124,72.07,0
108,75.01,0
142,78.76,0
106,83.14,0
156,87.93,0
96,92.91,0
152,97.77,0
86,102.24,0
129,106,0
72,108.8,0
133,110.67,0
86,111.93,0
129,112.78,0
67,113.08,0
60,112.23,0
56,109.88,0
37,106.15,0
42,101.22,0
40,95.46,0
35,89.19,0
54,82.84,0
60,76.96,0
69,71.95,0
110,68.31,0
83,66.37,0
88,65.72,0
105,66.06,0
133,67.7,0
116,70.73,0
134,74.81,0
116,79.56,0
140,84.71,0
70,89.68,0
140,93.95,0
105,97.86,0
148,101.71,0
102,105.42,0
142,108.84,0
81,111.71,0
130,113.78,0
74,115.03,0
127,115.52,0
82,115.47,0
90,114.77,0
70,113.18,0
90,110.89,0
61,108.06,0
54,104.54,0
44,100.17,0
34,94.98,0
34,89.11,0
43,82.9,0
43,76.79,0
69,71.25,0
86,66.88,0
79,64,0
87,62.42,0
106,62.12,0
114,63.26,0
112,65.71,0
156,69.49,0
142,74.73,0
149,81.1,0
109,87.82,0
154,94.33,0
111,100.52,0
186,106.55,0
96,112.39,0
172,117.66,0
100,122.24,0
145,125.95,0
81,128.49,0
110,129.62,0
88,129.39,0
98,128.11,0
48,125.65,0
94,122.03,0
67,117.74,0
46,112.85,0
47,107.11,0
34,100.64,0
42,93.69,0
43,86.64,0
45,79.86,0
67,73.72,0
92,68.85,0
83,65.64,0
131,64.27,0
112,64.88,0
134,67.23,0
84,70.63,0
127,74.42,0
135,78.75,0
176,84.17,0
118,90.51,0
165,97.09,0
114,103.53,0
158,109.55,0
100,114.88,0
104,118.96,0
94,121.46,0
124,122.78,0
84,123.25,0
132,123.04,0
92,122.45,0
111,121.49,0
55,119.79,0
84,117.07,0
56,113.45,0
65,109.11,0
42,104.08,0
35,98.33,0
40,91.96,0
55,85.47,0
37,79.26,0
47,73.37,0
90,68.31,0
118,65.04,0
96,63.88,0
94,64.23,0
112,65.64,0
127,68.22,0
119,71.92,0
120,76.35,0
149,81.41,0
124,87.04,0
153,92.99,0
94,98.78,0
165,104.1,0
98,109.01,0
188,113.68,0
111,118.31,0
150,122.54,0
87,125.82,0
116,127.78,0
82,128.36,0
137,128,0
53,126.87,0
65,124.38,0
44,120.26,0
34,114.71,0
46,108,0
43,100.72,0
38,93.28,0
49,85.92,0
73,79.22,0
67,73.67,0
76,69.35,0
90,66.34,0
123,64.99,0
107,65.49,0
127,67.55,0
113,70.8,0
133,74.94,0
125,79.76,0
148,85.2,0
116,90.95,0
157,96.75,0
115,102.47,0
162,107.96,0
81,112.86,0
163,116.88,0
110,120.34,0
150,123.4,0
94,125.81,0
137,127.41,0
80,128.12,0
117,127.85,0
68,126.57,0
71,124.1,0
52,120.29,0
36,115.17,0
53,108.95,0
44,102.17,0
42,95.14,0
39,88.05,0
54,81.19,0
52,74.93,0
85,69.7,0
62,65.77,0
88,63.06,0
93,61.65,0
114,61.73,0
118,63.38,0
137,66.55,0
119,70.98,0
152,76.35,0
136,82.51,0
170,89.37,0
109,96.46,0
164,103.22,0
118,109.54,0
175,115.47,0
111,120.94,0
154,125.66,0
86,129.26,0
137,131.56,0
96,132.72,0
139,133.08,0
82,132.71,0
128,131.6,0
46,129.57,0
66,126.13,0
52,121.22,0
43,115.26,0
35,108.34,0
44,100.79,0
42,93.07,0
73,85.79,0
91,79.72,0
157,75.88,0
111,74.73,0
72,75.12,0
119,76.03,0
127,77.81,0
132,80.75,0
112,84.49,0
155,88.76,0
108,93.45,0
156,98.27,0
131,103.24,0
201,108.71,0
112,114.6,0
163,120.15,0
111,124.94,0
152,128.88,0
113,131.98,0
146,134.31,0
70,135.57,0
99,135.22,0
67,133.25,0
85,129.99,0
63,125.69,0
44,120.39,0
50,114.04,0
35,106.94,0
40,99.33,0
52,91.64,0
79,84.61,0
73,78.8,0
105,74.51,0
86,71.83,0
79,70.36,0
99,69.75,0
118,70.23,0
122,72.06,0
164,75.41,0
137,80.3,0
151,86.22,0
116,92.46,0
166,98.68,0
124,104.87,0
194,111.15,0
110,117.39,0
149,122.91,0
115,127.36,0
151,130.91,0
114,133.67,0
131,135.56,0
87,136.34,0
119,135.94,0
73,134.43,0
102,131.88,0
52,128.3,0
55,123.51,0
41,117.47,0
43,110.49,0
60,103.09,0
48,95.81,0
65,88.93,0
45,82.6,0
116,77.3,0
74,73.62,0
118,71.53,0
111,71.06,0
106,72.03,0
128,74.1,0
166,77.58,0
137,82.63,0
145,88.56,0
145,94.88,0
181,101.65,0
112,108.55,0
199,115.19,0
116,121.61,0
159,127.33,0
123,132.08,0
191,136.25,0
113,140.02,0
131,142.79,0
91,144.02,0
115,143.73,0
94,142.2,0
75,139.46,0
96,135.59,0
59,130.85,0
49,125.12,0
34,118.22,0
48,110.43,0
48,102.34,0
35,94.3,0
42,86.39,0
78,79.16,0
142,73.86,0
86,71.08,0
58,69.69,0
111,68.91,0
126,69.4,0
118,71.44,0
132,74.7,0
137,78.99,0
91,83.75,0
161,88.56,0
122,93.71,0
197,99.51,0
122,105.9,0
107,111.77,0
106,116.2,0
153,119.61,0
106,122.53,0
145,124.92,0
118,126.85,0
147,128.49,0
65,129.43,0
93,128.94,0
66,126.91,0
52,123.48,0
59,118.7,0
50,112.96,0
48,106.57,0
37,99.7,0
41,92.54,0
54,85.48,0
50,78.93,0
79,73.27,0
117,69.22,0
82,67.12,0
117,66.59,0
108,67.49,0
130,69.76,0
126,73.26,0
127,77.69,0
127,82.69,0
200,88.58,0
116,95.44,0
181,102.56,0
124,109.55,0
176,116.24,0
83,122.1,0
169,126.75,0
108,130.46,0
168,133.54,0
110,136.04,0
165,138.01,0
99,139.4,0
94,139.63,0
42,137.92,0
105,134.42,0
55,129.86,0
45,124.26,0
41,117.44,0
39,109.77,0
34,101.58,0
55,93.34,0
68,85.75,0
48,79.12,0
83,73.5,0
136,69.69,0
96,68.23,0
118,68.57,0
128,70.36,0
123,73.49,0
134,77.64,0
120,82.44,0
153,87.71,0
122,93.34,0
206,99.51,0
123,106.36,0
200,113.43,0
109,120.27,0
165,126.31,0
114,131.29,0
154,135.27,0
147,138.51,0
126,141.15,0
83,142.47,0
120,142.18,0
83,140.62,0
87,137.88,0
53,133.79,0
64,128.4,0
39,121.88,0
38,114.39,0
48,106.27,0
59,98.19,0
46,90.56,0
67,83.56,0
74,77.59,0
51,72.68,0
111,68.92,0
102,66.89,0
120,66.73,0
132,68.35,0
146,71.69,0
138,76.49,0
153,82.36,0
143,88.96,0
202,96.33,0
127,104.3,0
176,112.15,0
109,119.27,0
158,125.29,0
124,130.27,0
140,134.25,0
124,137.2,0
194,139.71,0
121,142.24,0
89,143.79,0
71,143.25,0
61,140.51,0
44,135.74,0
33,129.1,0
41,121.03,0
42,112.17,0
60,103.27,0
72,95.02,0
109,88.19,0
87,83.21,0
88,79.75,0
97,77.46,0
147,76.7,0
131,77.93,0
133,80.77,0
119,84.52,0
157,88.92,0
127,93.96,0
165,99.43,0
126,105.12,0
214,111.18,0
130,117.76,0
162,124.12,0
115,129.56,0
148,133.87,0
100,136.94,0
118,138.6,0
110,138.96,0
110,138.33,0
56,136.47,0
86,133.09,0
59,128.48,0
63,122.93,0
46,116.57,0
40,109.51,0
44,101.93,0
49,94.26,0
53,86.94,0
73,80.39,0
95,75.18,0
87,71.62,0
105,69.63,0
74,68.88,0
102,68.97,0
127,70.12,0
150,72.86,0
134,77.2,0
174,82.86,0
127,89.45,0
168,96.45,0
81,103.08,0
170,108.84,0
125,114.13,0
181,119.35,0
122,124.4,0
152,128.89,0
81,132.23,0
122,134.01,0
82,134.29,0
120,133.43,0
109,131.93,0
96,130.01,0
83,127.44,0
54,123.89,0
49,119.07,0
34,112.99,0
48,106,0
52,98.67,0
57,91.58,0
74,85.15,0
107,80.02,0
154,77.12,0
113,76.72,0
91,77.76,0
103,79.27,0
89,80.99,0
138,83.07,0
127,85.96,0
170,89.97,0
115,94.84,0
158,100.01,0
129,105.27,0
183,110.75,0
135,116.44,0
171,122.08,0
125,127.31,0
161,131.88,0
104,135.55,0
150,138.15,0
117,139.87,0
168,141.11,0
93,141.91,0
92,141.51,0
78,139.47,0
80,136.04,0
68,131.47,0
35,125.72,0
48,118.72,0
47,110.95,0
37,102.85,0
50,94.71,0
60,87.02,0
76,80.33,0
124,75.37,0
86,72.49,0
141,71.51,0
130,72.5,0
130,75.25,0
140,79.26,0
160,84.39,0
134,90.4,0
163,96.86,0
145,103.56,0
168,110.37,0
125,116.9,0
170,122.85,0
101,127.99,0
155,132.03,0
122,135.13,0
178,137.79,0
116,140.17,0
132,141.82,0
86,142.22,0
84,141.03,0
46,137.92,0
58,132.92,0
44,126.4,0
49,118.87,0
37,110.66,0
48,102.16,0
73,94.03,0
68,86.9,0
137,81.46,0
86,78.17,0
98,76.45,0
99,75.75,0
131,76.25,0
152,78.32,0
163,82.26,0
145,87.68,0
160,93.96,0
122,100.48,0
159,106.77,0
134,112.77,0
176,118.59,0
126,124.15,0
159,129.13,0
103,133.17,0
148,136.06,0
100,137.89,0
146,138.81,0
85,138.86,0
102,137.76,0
54,135.22,0
63,131.07,0
67,125.63,0
46,119.35,0
56,112.41,0
37,105.04,0
39,97.37,0
57,89.74,0
64,82.78,0
83,76.96,0
100,72.73,0
138,70.57,0
112,70.64,0
84,72.03,0
126,74.08,0
134,77.05,0
150,81.25,0
129,86.41,0
160,92.17,0
110,98.12,0
166,103.9,0
134,109.63,0
192,115.53,0
121,121.47,0
36,125.83,0
86,127.29,0
210,127.66,0
208,129.61,0
38,132.3,0
131,133.41,0
57,132.79,0
50,130.37,0
61,126.03,0
62,120.52,0
51,114.3,0
46,107.51,0
42,100.33,0
48,93.04,0
92,86.32,0
137,81.41,0
143,79.18,0
101,79.19,0
46,79.8,0
86,79.93,0
182,80.69,0
136,83.43,0
130,87.59,0
171,92.52,0
121,98.11,0
175,103.96,0
135,109.98,0
140,115.75,0
271,121.97,0
187,129.83,0
124,137.87,0
171,144.43,0
108,149.39,0
147,152.63,0
114,154.29,0
162,154.87,0
109,154.72,0
133,153.71,0
81,151.63,0
180,148.96,0
75,146.26,0
45,142.49,0
108,137.15,0
65,131.23,0
36,124.66,0
108,117.55,0
115,111.29,0
131,106.74,0
75,103.49,0
113,100.85,0
86,98.71,0
135,97.29,0
144,97.13,0
105,98.16,0
422,102.09,0
57,109.99,0
142,117.95,0
224,124.76,0
175,132.15,0
127,139.18,0
157,144.76,0
114,148.81,0
135,151.27,0
119,152.3,0
147,152.35,0
97,151.57,0
100,149.62,0
104,146.52,0
108,142.74,0
94,138.57,0
60,133.77,0
81,128.15,0
90,122.22,0
86,116.54,0
42,110.89,0
53,104.76,0
41,98.21,0
98,91.92,0
87,86.77,0
67,82.79,0
108,79.75,0
66,77.68,0
127,76.57,0
163,77.19,0
127,79.9,0
115,83.7,0
126,87.81,0
151,92.32,0
179,97.71,0
181,104.26,0
119,111.23,0
199,117.97,0
147,124.66,0
204,131.4,0
126,137.79,0
183,143.38,0
82,147.63,0
126,149.9,0
103,150.24,0
129,149.34,0
109,147.61,0
93,145.06,0
53,141.21,0
70,135.85,0
60,129.39,0
59,122.26,0
56,114.75,0
61,107.16,0
62,99.85,0
92,93.27,0
64,87.75,0
58,82.96,0
106,78.93,0
87,76.22,0
94,74.74,0
125,74.44,0
155,75.91,0
122,79.11,0
184,83.75,0
86,89.3,0
216,95.28,0
106,101.83,0
211,108.73,0
122,115.75,0
162,122.36,0
96,127.8,0
148,131.87,0
111,134.76,0
149,136.79,0
105,138.05,0
87,138.14,0
248,137.99,0
60,138.64,0
99,138.41,0
36,136.08,0
51,131.66,0
40,125.4,0
76,118.2,0
78,111.05,0
80,104.52,0
46,98.44,0
91,92.75,0
123,88.26,0
124,85.73,0
57,84.51,0
147,83.98,0
109,84.61,0
166,86.68,0
160,90.35,0
188,95.73,0
78,101.73,0
160,107.09,0
121,111.92,0
160,116.53,0
114,120.77,0
154,124.48,0
103,127.52,0
117,129.56,0
123,130.63,0
114,131.07,0
51,130.4,0
54,127.8,0
87,123.62,0
48,118.64,0
52,112.87,0
67,106.54,0
114,100.68,0
114,96.29,0
78,93.24,0
89,90.81,0
104,88.93,0
48,87.41,0
115,85.98,0
124,85.36,0
164,86.41,0
144,89.28,0
145,93.44,0
177,98.57,0
182,104.84,0
40,110.93,0
181,115.55,0
131,119.65,0
174,123.9,0
137,128.14,0
174,132.26,0
97,135.83,0
146,138.3,0
86,139.52,0
116,139.42,0
58,137.81,0
84,134.63,0
59,130.12,0
82,124.71,0
44,118.68,0
36,111.89,0
55,104.44,0
50,96.93,0
112,90.23,0
80,85.08,0
96,81.4,0
113,79.09,0
163,78.74,0
224,81.39,0
159,87.05,0
168,94.35,0
174,102.32,0
97,110.05,0
224,117.19,0
130,124.31,0
211,131.35,0
140,138.09,0
168,144.08,0
101,148.65,0
138,151.39,0
120,152.58,0
169,152.95,0
43,152.31,0
123,149.92,0
106,146.41,0
92,142.41,0
80,137.74,0
53,132.14,0
70,125.65,0
38,118.45,0
122,111.28,0
59,104.97,0
73,99.29,0
73,93.99,0
136,89.79,0
116,87.45,0
152,87.09,0
104,88.26,0
123,90.22,0
142,92.79,0
203,96.71,0
141,102.18,0
208,108.69,0
138,115.79,0
205,123.06,0
147,130.25,0
178,137,0
142,142.94,0
158,147.84,0
153,151.73,0
161,154.84,0
127,157.06,0
145,158.18,0
110,158.15,0
111,156.84,0
90,154.13,0
98,150.16,0
54,144.98,0
33,138.22,0
46,129.85,0
48,120.61,0
53,111.2,0
34,101.92,0
107,93.38,0
118,86.82,0
110,82.73,0
127,80.73,0
291,81.96,0
102,86.93,0
157,93.25,0
188,99.96,0
182,107.68,0
135,115.69,0
186,123.22,0
142,130.23,0
163,136.49,0
135,141.71,0
156,145.87,0
90,148.64,0
146,149.83,0
122,149.94,0
140,149.45,0
128,148.52,0
93,146.94,0
48,143.88,0
46,138.73,0
62,131.87,0
81,124.38,0
60,116.92,0
35,109.32,0
81,101.67,0
63,94.65,0
115,88.84,0
88,84.64,0
99,81.88,0
126,80.48,0
136,80.79,0
149,82.88,0
166,86.69,0
136,91.85,0
170,97.77,0
118,103.94,0
210,110.3,0
176,117.4,0
205,125.25,0
144,133.12,0
147,139.99,0
91,144.96,0
147,147.88,0
123,149.4,0
132,149.97,0
61,149.14,0
70,146.26,0
54,141.37,0
36,134.75,0
64,126.82,0
130,119.03,0
37,112.16,0
50,105.32,0
71,98.36,0
82,92.09,0
111,87.13,0
84,83.68,0
91,81.36,0
169,80.49,0
178,82.17,0
123,86.07,0
159,91.01,0
144,96.58,0
153,102.58,0
134,108.58,0
196,114.65,0
99,120.63,0
182,125.95,0
133,130.75,0
198,135.42,0
150,140.09,0
178,144.6,0
123,148.44,0
167,151.34,0
156,153.6,0
112,155.13,0
106,155.17,0
77,153.4,0
62,149.61,0
49,143.85,0
50,136.45,0
36,127.8,0
40,118.34,0
43,108.55,0
124,99.58,0
51,92.29,0
94,86.35,0
98,81.76,0
107,78.87,0
122,77.64,0
133,78.13,0
127,80.17,0
171,83.68,0
122,88.48,0
173,94.05,0
125,100.09,0
181,106.36,0
153,112.91,0
204,119.86,0
124,126.83,0
164,133.03,0
109,137.97,0
166,141.69,0
79,144.14,0
173,145.33,0
111,145.86,0
100,145.53,0
72,143.63,0
52,139.87,0
53,134.27,0
34,127.13,0
40,118.79,0
39,109.78,0
114,101.21,0
56,94.03,0
90,88.07,0
112,83.51,0
227,81.8,0
163,83.84,0
153,88.46,0
157,94.26,0
151,100.66,0
166,107.37,0
184,114.46,0
148,121.71,0
176,128.63,0
146,134.98,0
168,140.59,0
120,145.19,0
159,148.56,0
113,150.75,0
127,151.66,0
82,151.02,0
48,148.33,0
80,143.53,0
43,137.19,0
39,129.52,0
52,120.82,0
75,112.01,0
128,104.34,0
68,98.36,0
68,93.31,0
84,88.77,0
102,85.18,0
123,83.03,0
139,82.69,0
178,84.48,0
160,88.47,0
160,94.01,0
145,100.27,0
186,106.99,0
134,113.95,0
209,120.95,0
150,128.08,0
164,134.82,0
120,140.43,0
165,144.75,0
129,148.04,0
252,151.22,0
130,154.94,0
109,157.78,0
91,158.32,0
63,156.44,0
52,152.04,0
46,145.44,0
52,137.2,0
55,128.09,0
36,118.58,0
154,109.76,0
81,102.93,0
84,97.64,0
112,93.38,0
107,90.5,0
135,89.12,0
127,89.28,0
174,91.11,0
42,93.77,0
134,95.92,0
117,97.92,0
180,100.73,0
108,104.38,0
212,108.72,0
134,113.94,0
211,119.85,0
148,126.18,0
150,132.25,0
110,137.1,0
188,140.86,0
134,144.19,0
125,146.75,0
95,147.81,0
77,146.97,0
93,144.3,0
65,140.22,0
53,134.77,0
40,127.91,0
39,119.88,0
61,111.29,0
39,102.73,0
42,94.33,0
127,86.89,0
83,81.51,0
133,78.24,0
126,77.14,0
137,78.09,0
117,80.51,0
145,83.98,0
121,88.2,0
186,93.24,0
90,98.81,0
232,104.72,0
140,111.49,0
192,118.77,0
146,125.91,0
160,132.5,0
130,138.05,0
132,142.26,0
123,145.04,0
112,146.39,0
86,146.17,0
68,144.08,0
97,140.38,0
86,135.82,0
38,130.4,0
67,123.86,0
48,116.61,0
38,108.92,0
38,100.78,0
51,92.63,0
121,85.53,0
86,80.44,0
117,77.29,0
146,76.2,0
126,77.31,0
172,80.29,0
107,84.68,0
131,89.49,0
201,94.92,0
134,101.43,0
179,108.37,0
131,115.22,0
184,121.77,0
111,127.78,0
170,132.87,0
156,137.37,0
172,141.65,0
119,145.34,0
123,147.74,0
97,148.49,0
81,147.45,0
88,144.63,0
54,140.27,0
72,134.52,0
41,127.65,0
63,119.98,0
73,112.17,0
131,105.33,0
117,100.39,0
85,97.03,0
61,94.14,0
94,91.32,0
147,89.43,0
133,89.35,0
151,91.02,0
269,95.09,0
161,102.11,0
215,110.73,0
95,119.28,0
195,126.8,0
148,133.56,0
179,139.81,0
142,145.3,0
148,149.71,0
110,152.65,0
129,153.95,0
96,153.68,0
132,152.14,0
76,149.54,0
88,145.69,0
74,140.62,0
49,134.48,0
69,127.38,0
46,119.7,0
40,111.56,0
45,103.12,0
56,94.82,0
69,87.25,0
81,80.88,0
122,76.29,0
136,74.1,0
133,74.33,0
132,76.45,0
148,80.02,0
162,84.97,0
148,91.04,0
187,97.98,0
152,105.6,0
189,113.52,0
156,121.47,0
287,130.02,0
132,139.38,0
161,147.77,0
70,153.58,0
158,156.7,0
115,158.02,0
127,158.06,0
87,156.62,0
103,153.67,0
93,149.55,0
45,144.21,0
53,137.35,0
38,129.15,0
52,120.13,0
69,111.04,0
75,102.65,0
246,96.74,0
111,94.66,0
115,94.76,0
92,95.28,0
130,96.07,0
144,97.6,0
93,99.76,0
209,102.55,0
142,106.69,0
172,111.82,0
131,117.12,0
182,122.37,0
128,127.46,0
189,132.31,0
145,137,0
155,141.27,0
132,144.71,0
172,147.42,0
120,149.53,0
121,150.6,0
106,150.31,0
115,148.81,0
174,146.96,0
80,145.19,0
63,142.32,0
54,137.57,0
47,131.23,0
54,123.74,0
65,115.77,0
70,107.99,0
125,101.23,0
98,96.2,0
83,92.55,0
112,89.83,0
143,88.5,0
82,88.55,0
165,89.56,0
161,92.11,0
167,96.41,0
123,101.59,0
190,107.15,0
147,113.21,0
230,120,0
148,127.42,0
188,134.75,0
123,141.21,0
153,146.3,0
132,149.97,0
163,152.6,0
112,154.26,0
154,154.89,0
69,154.3,0
52,151.61,0
71,146.51,0
54,139.84,0
60,132.11,0
43,123.64,0
77,114.96,0
40,106.52,0
114,98.83,0
78,92.57,0
96,87.79,0
103,84.33,0
117,82.39,0
137,82.11,0
275,84.7,0
201,91.19,0
174,100.17,0
158,109.55,0
175,118.55,0
142,126.85,0
217,134.56,0
141,141.89,0
302,149.4,0
104,157.2,0
143,163.32,0
140,166.94,0
134,168.79,0
112,168.91,0
115,167.29,0
92,164.13,0
37,159.09,0
60,151.87,0
39,142.99,0
48,133.07,0
48,122.64,0
89,112.58,0
64,103.62,0
111,96.09,0
64,90.09,0
92,85.29,0
138,82.01,0
121,80.84,0
127,81.51,0
141,83.58,0
151,87.02,0
171,91.86,0
118,97.56,0
182,103.53,0
156,109.92,0
204,116.9,0
137,124.12,0
168,130.85,0
105,136.41,0
178,140.72,0
131,144.23,0
154,147.04,0
91,148.69,0
116,148.75,0
101,147.37,0
76,144.71,0
68,140.54,0
61,134.99,0
51,128.27,0
48,120.66,0
43,112.45,0
52,104,0
114,96.3,0
108,90.48,0
93,86.57,0
86,83.89,0
125,82.3,0
132,82.25,0
158,84.02,0
123,87.3,0
236,92.21,0
121,98.79,0
186,106.01,0
133,113.17,0
186,120.15,0
126,126.7,0
227,132.98,0
138,139.3,0
127,144.7,0
99,148.08,0
123,149.45,0
81,149.05,0
80,146.85,0
91,143.05,0
69,138.15,0
41,132.09,0
38,124.66,0
45,116.22,0
60,107.53,0
39,99.07,0
46,90.88,0
115,83.69,0
98,78.54,0
60,75.1,0
127,72.86,0
171,72.78,0
111,75.11,0
141,78.85,0
43,82.69,0
180,86.24,0
143,90.59,0
205,96.45,0
134,103.38,0
178,110.61,0
136,117.61,0
210,124.5,0
142,131.39,0
251,138.43,0
52,144.96,0
127,149.13,0
85,150.61,0
116,150.18,0
84,148.2,0
72,144.74,0
107,140.08,0
51,134.68,0
71,128.44,0
51,121.47,0
155,114.86,0
62,109.53,0
114,105.11,0
62,101.19,0
85,97.53,0
111,94.36,0
139,92.52,0
107,92.17,0
169,93.18,0
147,95.78,0
211,100.16,0
162,106.24,0
178,113.25,0
130,120.2,0
209,126.86,0
114,133.2,0
170,138.63,0
135,143.04,0
146,146.5,0
96,148.62,0
122,149.1,0
84,148.03,0
100,145.56,0
82,141.86,0
71,137.13,0
51,131.29,0
48,124.3,0
40,116.4,0
53,108.03,0
64,99.82,0
62,92.29,0
89,85.8,0
83,80.71,0
107,77.17,0
135,75.5,0
198,76.49,0
136,80.24,0
174,85.77,0
132,92.22,0
183,99.21,0
156,106.63,0
161,114.17,0
135,121.19,0
155,127.36,0
130,132.59,0
194,137.22,0
145,141.68,0
188,145.93,0
111,149.56,0
144,151.95,0
84,152.73,0
89,151.59,0
114,148.82,0
77,145.04,0
100,140.41,0
37,134.84,0
52,127.98,0
42,120.06,0
42,111.54,0
85,103.12,0
110,95.97,0
150,91.14,0
75,88.45,0
109,86.87,0
153,86.49,0
137,87.92,0
150,90.9,0
145,94.98,0
205,100.27,0
156,106.87,0
175,114.08,0
136,121.09,0
181,127.6,0
142,133.63,0
173,139.07,0
88,143.36,0
87,145.47,0
125,145.46,0
136,144.56,0
133,143.47,0
119,142.21,0
52,140.05,0
46,136.01,0
64,130.17,0
53,123.3,0
42,115.75,0
64,107.83,0
91,100.41,0
54,93.93,0
144,88.74,0
47,85.08,0
131,82.54,0
153,81.72,0
165,83.36,0
135,86.96,0
178,91.89,0
141,97.85,0
168,104.33,0
110,110.66,0
183,116.54,0
126,122.13,0
212,127.68,0
162,133.58,0
166,139.45,0
127,144.43,0
113,147.83,0
126,149.49,0
114,149.77,0
134,149.07,0
69,147.3,0
143,144.52,0
46,140.94,0
60,136,0
37,129.42,0
46,121.62,0
91,113.48,0
52,105.85,0
53,98.6,0
71,91.71,0
125,86.1,0
125,82.67,0
127,81.47,0
167,82.38,0
127,85.19,0
194,89.58,0
169,95.63,0
208,103.19,0
119,111.34,0
192,119.13,0
162,126.61,0
187,133.93,0
84,140.18,0
192,144.81,0
116,148.37,0
144,150.86,0
87,151.81,0
132,151.24,0
98,149.51,0
99,146.79,0
88,143.03,0
35,138,0
68,131.5,0
36,123.91,0
72,115.79,0
57,107.75,0
52,100.03,0
82,92.86,0
80,86.78,0
106,82.19,0
155,79.67,0
98,79.39,0
146,80.64,0
129,83.23,0
177,87.25,0
146,92.62,0
202,99.21,0
144,106.67,0
197,114.5,0
133,122.22,0
161,129.21,0
128,135.06,0
151,139.74,0
141,143.39,0
154,146.28,0
107,148.23,0
92,148.61,0
72,147,0
60,143.37,0
91,138.19,0
55,132.13,0
90,125.55,0
34,118.61,0
66,111.27,0
157,104.68,0
73,99.96,0
71,96.16,0
96,92.67,0
120,90.11,0
132,89.06,0
184,90.01,0
153,93.12,0
116,97.43,0
170,102.08,0
137,107.14,0
205,112.8,0
145,119.09,0
127,125.07,0
148,130,0
139,134.09,0
123,137.31,0
195,140.01,0
168,143.06,0
155,146.31,0
83,148.58,0
130,149.12,0
112,148.36,0
116,146.75,0
84,144.22,0
74,140.47,0
60,135.4,0
45,129.05,0
37,121.51,0
54,113.19,0
58,104.79,0
34,96.64,0
108,89.19,0
101,83.48,0
120,79.94,0
101,78.25,0
156,78.33,0
146,80.42,0
183,84.55,0
139,90.26,0
181,96.91,0
126,103.95,0
201,111.1,0
148,118.45,0
170,125.63,0
124,131.99,0
185,137.44,0
159,142.44,0
200,147.34,0
146,152.03,0
162,155.96,0
75,158.29,0
115,158.36,0
62,156.22,0
69,151.96,0
87,146.05,0
45,139.11,0
49,131.09,0
35,122.12,0
41,112.59,0
38,102.9,0
118,94.07,0
86,87.23,0
150,82.8,0
86,80.61,0
141,80.11,0
132,81.23,0
177,84.2,0
166,89.07,0
182,95.54,0
144,102.87,0
187,110.48,0
158,118.21,0
182,125.84,0
172,133.22,0
174,140.21,0
127,146.24,0
154,150.79,0
93,153.61,0
122,154.5,0
119,153.84,0
116,152.17,0
90,149.52,0
159,146.31,0
86,143.12,0
34,138.99,0
41,132.87,0
71,125.35,0
73,117.61,0
84,110.34,0
129,104.22,0
99,99.77,0
127,96.84,0
67,94.88,0
118,93.38,0
141,92.84,0
181,94.15,0
147,97.41,0
187,102.16,0
127,107.74,0
178,113.54,0
138,119.32,0
228,125.4,0
173,132.21,0
184,139.27,0
116,145.47,0
149,150.03,0
106,152.83,0
175,154.34,0
104,155.01,0
127,154.59,0
86,152.83,0
92,149.66,0
81,145.19,0
42,139.45,0
48,132.2,0
64,124,0
39,115.43,0
46,106.64,0
118,98.5,0
101,92.22,0
102,87.88,0
65,84.75,0
127,82.53,0
153,82.02,0
153,83.8,0
144,87.35,0
180,92.28,0
150,98.39,0
193,105.36,0
151,112.85,0
183,120.41,0
130,127.53,0
195,134,0
130,139.85,0
168,144.83,0
154,148.94,0
155,152.36,0
125,154.78,0
121,155.84,0
88,155.25,0
74,152.73,0
54,148.13,0
66,141.78,0
79,134.45,0
57,126.74,0
45,118.66,0
73,110.41,0
110,102.98,0
72,96.94,0
56,91.71,0
110,87.14,0
157,84.37,0
171,84.37,0
163,87.05,0
156,91.65,0
148,97.26,0
134,103.16,0
164,109.03,0
114,114.65,0
165,119.73,0
162,124.64,0
164,129.64,0
112,134.13,0
183,137.83,0
81,140.7,0
226,142.95,0
101,145.17,0
156,146.89,0
74,147.35,0
85,146.06,0
49,142.66,0
38,137.15,0
53,129.89,0
50,121.68,0
55,113.11,0
66,104.74,0
125,97.49,0
85,92.07,0
72,87.95,0
122,84.82,0
137,83.36,0
158,84.12,0
157,86.96,0
165,91.5,0
347,98.82,0
159,109.52,0
191,121.1,0
105,131.24,0
166,139.28,0
146,145.6,0
211,151.12,0
145,156.21,0
127,160.11,0
127,162.13,0
118,162.42,0
86,160.97,0
88,157.65,0
104,152.92,0
80,147.38,0
54,140.93,0
39,133.23,0
42,124.42,0
56,115.1,0
43,105.83,0
58,96.94,0
107,89.17,0
84,83.28,0
124,79.35,0
110,77.39,0
180,77.69,0
107,80.1,0
165,83.92,0
130,88.75,0
161,94.32,0
135,100.3,0
215,106.87,0
152,114.26,0
92,121.15,0
64,125.68,0
168,128.18,0
138,130.28,0
162,132.59,0
123,134.79,0
116,136.33,0
73,136.53,0
84,135.04,0
94,132.21,0
78,128.57,0
90,124.36,0
57,119.67,0
53,114.28,0
38,108.05,0
49,101.2,0
55,94.24,0
114,88.08,0
97,83.64,0
98,80.86,0
140,79.67,0
115,80.2,0
142,82.17,0
148,85.48,0
120,89.8,0
169,94.72,0
134,100.21,0
215,106.48,0
157,113.68,0
181,121.27,0
122,128.32,0
264,135.13,0
157,142.49,0
188,149.72,0
130,155.73,0
154,160.14,0
85,162.51,0
112,162.51,0
98,160.49,0
42,156.53,0
58,150.29,0
38,142.19,0
42,132.78,0
35,122.54,0
108,112.52,0
67,103.81,0
96,96.55,0
74,90.6,0
115,86.05,0
147,83.47,0
170,83.53,0
156,86.14,0
174,90.71,0
127,96.42,0
188,102.67,0
127,109.24,0
195,115.88,0
152,122.62,0
189,129.38,0
153,135.88,0
186,141.95,0
123,147.23,0
184,151.47,0
141,154.91,0
100,157.06,0
125,157.36,0
97,156.07,0
99,153.36,0
72,149.27,0
83,143.91,0
71,137.64,0
55,130.63,0
50,122.89,0
55,114.68,0
54,106.4,0
84,98.63,0
76,91.93,0
116,86.71,0
129,83.49,0
170,82.76,0
142,84.55,0
176,88.31,0
149,93.57,0
205,100.1,0
138,107.53,0
196,115.23,0
152,122.9,0
217,130.6,0
151,138.24,0
186,145.29,0
136,151.3,0
152,155.9,0
43,158.22,0
119,157.67,0
64,154.9,0
64,150.25,0
54,143.81,0
70,136.16,0
68,128.03,0
54,119.77,0
44,111.34,0
40,102.75,0
56,94.32,0
51,86.46,0
99,79.76,0
48,74.49,0
122,70.63,0
78,68.41,0
133,67.87,0
152,69.31,0
157,73.01,0
107,78.15,0
181,84.04,0
157,90.9,0
213,98.95,0
160,107.95,0
172,117.06,0
148,125.5,0
185,133.17,0
136,140,0
200,145.99,0
108,151.04,0
168,154.71,0
93,156.82,0
109,157.04,0
86,155.29,0
71,151.72,0
54,146.28,0
48,139.2,0
89,131.17,0
77,123.22,0
83,115.8,0
61,108.85,0
75,102.28,0
95,96.43,0
94,91.77,0
113,88.47,0
141,86.86,0
180,87.52,0
186,90.81,0
138,96.03,0
175,102.1,0
73,107.97,0
171,112.93,0
166,117.77,0
200,123.36,0
156,129.49,0
164,135.46,0
133,140.62,0
148,144.67,0
122,147.51,0
123,149.05,0
123,149.35,0
95,148.47,0
73,146.09,0
72,142.04,0
56,136.52,0
39,129.67,0
38,121.6,0
67,112.97,0
59,104.57,0
73,96.86,0
70,90.08,0
101,84.53,0
101,80.63,0
102,78.34,0
146,77.74,0
161,79.36,0
191,83.39,0
119,89.17,0
200,95.85,0
135,103.16,0
193,110.78,0
159,118.53,0
180,126.23,0
133,133.3,0
193,139.55,0
132,145.06,0
156,149.52,0
109,152.54,0
124,153.91,0
134,153.92,0
109,152.99,0
77,150.78,0
42,146.59,0
53,140.32,0
35,132.4,0
74,123.6,0
132,115.43,0
49,108.6,0
53,102.15,0
135,96.27,0
119,92.27,0
122,90.29,0
138,89.95,0
171,91.44,0
142,94.73,0
208,99.6,0
163,105.96,0
198,113.39,0
154,121.19,0
174,128.73,0
143,135.54,0
192,141.63,0
119,146.91,0
129,150.67,0
107,152.55,0
86,152.47,0
80,150.3,0
82,146.38,0
77,141.21,0
268,136.78,0
68,134.53,0
43,132.06,0
75,127.71,0
62,122.27,0
126,116.77,0
84,112.02,0
111,108.06,0
88,104.73,0
131,102.2,0
103,100.64,0
252,101.01,0
146,104.16,0
182,109.13,0
111,114.43,0
218,119.82,0
158,125.78,0
225,132.41,0
140,139.26,0
194,145.63,0
130,151.1,0
197,155.64,0
134,159.39,0
169,162.2,0
125,163.91,0
103,164.1,0
73,162.17,0
65,157.91,0
94,151.92,0
59,144.92,0
46,136.9,0
42,127.88,0
56,118.32,0
55,108.86,0
77,100.09,0
90,92.59,0
95,86.74,0
128,82.81,0
134,81.08,0
136,81.47,0
144,83.63,0
138,87.16,0
179,91.9,0
112,97.48,0
192,103.43,0
132,109.72,0
185,116.18,0
151,122.66,0
200,129.2,0
126,135.49,0
153,140.79,0
150,144.97,0
153,148.36,0
108,150.69,0
81,151.18,0
92,149.54,0
60,146.02,0
79,140.93,0
51,134.63,0
43,127.23,0
37,118.83,0
60,109.99,0
56,101.39,0
56,93.38,0
85,86.3,0
102,80.78,0
102,77.14,0
140,75.5,0
154,76.2,0
178,79.37,0
158,84.67,0
211,91.75,0
140,100.05,0
201,108.77,0
178,117.77,0
191,126.9,0
164,135.63,0
206,143.78,0
104,150.83,0
176,156.09,0
172,160.12,0
147,163.4,0
132,165.44,0
126,165.95,0
98,164.85,0
93,162,0
91,157.59,0
62,151.82,0
43,144.55,0
39,135.8,0
41,126,0
51,115.82,0
78,106.09,0
139,98.05,0
80,92.3,0
83,88.03,0
149,85.14,0
96,84.08,0
98,84.12,0
139,84.93,0
157,87.17,0
170,91.14,0
182,96.78,0
152,103.54,0
196,110.9,0
141,118.49,0
196,125.92,0
239,133.77,0
179,142.38,0
187,150.69,0
177,158.06,0
104,163.77,0
133,166.95,0
94,167.66,0
94,166.09,0
88,162.45,0
81,157.2,0
85,150.77,0
34,143.25,0
54,134.49,0
41,124.92,0
105,115.51,0
159,107.93,0
84,102.83,0
107,99.14,0
158,96.83,0
146,96.6,0
146,98.15,0
86,100.42,0
205,103.15,0
155,107.2,0
195,112.61,0
148,118.75,0
170,124.96,0
143,130.76,0
201,136.28,0
120,141.47,0
149,145.61,0
140,148.55,0
208,151.14,0
114,153.65,0
119,155.05,0
101,154.73,0
90,152.77,0
52,148.97,0
47,143.11,0
56,135.6,0
36,127.01,0
39,117.68,0
50,108.06,0
78,98.97,0
117,91.46,0
96,86.12,0
79,82.41,0
121,79.97,0
127,79.19,0
169,80.5,0
148,83.89,0
183,89.03,0
167,95.65,0
185,103.35,0
149,111.44,0
184,119.4,0
157,127.09,0
218,134.65,0
137,141.97,0
181,148.41,0
144,153.71,0
170,157.93,0
113,160.85,0
123,162.03,0
50,160.97,0
87,157.39,0
98,152.11,0
61,145.92,0
60,138.68,0
36,130.34,0
37,121.08,0
58,111.43,0
81,102.34,0
57,94.34,0
83,87.43,0
111,82.06,0
127,78.85,0
136,77.96,0
165,79.39,0
156,83.02,0
210,88.72,0
150,96.17,0
223,104.74,0
162,114.07,0
173,123.35,0
156,131.82,0
187,139.45,0
150,146.27,0
196,152.25,0
100,157.08,0
136,159.93,0
85,160.59,0
82,158.96,0
71,155.1,0
58,149.38,0
65,142.18,0
41,133.89,0
40,124.71,0
60,115.11,0
124,106.37,0
60,99.24,0
120,93.56,0
109,89.54,0
116,87.28,0
169,86.91,0
148,88.71,0
139,92.13,0
164,96.58,0
128,101.68,0
217,107.46,0
124,113.96,0
217,120.79,0
158,127.9,0
146,134.69,0
157,140.41,0
175,145.37,0
142,149.69,0
156,153.11,0
135,155.51,0
64,156.23,0
99,154.63,0
92,151.2,0
90,146.67,0
66,141.17,0
43,134.5,0
34,126.51,0
58,117.66,0
43,108.62,0
140,100.5,0
68,94.25,0
90,89.41,0
73,85.43,0
145,82.72,0
110,81.86,0
184,83.05,0
127,86.21,0
166,90.74,0
118,95.95,0
143,101.26,0
155,106.56,0
208,112.55,0
164,119.48,0
198,126.86,0
141,134.09,0
158,140.42,0
105,145.23,0
152,148.4,0
99,150.08,0
137,150.42,0
83,149.49,0
86,147.07,0
168,143.85,0
69,140.71,0
71,136.78,0
50,131.42,0
37,124.73,0
63,117.08,0
127,109.79,0
46,103.62,0
77,97.96,0
106,92.95,0
133,89.57,0
133,88.22,0
135,88.68,0
117,90.4,0
167,93.15,0
112,96.83,0
216,101.45,0
164,107.48,0
229,114.88,0
154,123.13,0
188,131.35,0
152,138.88,0
140,145.24,0
140,150.01,0
173,153.57,0
102,156.06,0
108,156.81,0
112,155.76,0
76,153.19,0
110,149.27,0
85,144.5,0
79,139.06,0
41,132.65,0
77,125.37,0
41,117.62,0
125,110.19,0
64,103.83,0
59,98.15,0
110,93,0
209,90.04,0
135,90.27,0
158,92.78,0
131,96.42,0
158,100.79,0
132,105.57,0
206,110.89,0
156,117.05,0
193,123.74,0
153,130.48,0
172,136.84,0
129,142.31,0
194,146.93,0
115,150.8,0
125,153.29,0
127,154.18,0
127,153.94,0
99,152.65,0
80,149.98,0
108,146.01,0
51,141.03,0
80,134.98,0
41,128,0
56,120.26,0
50,112.07,0
120,104.42,0
74,98.16,0
78,93.01,0
102,88.78,0
137,86.09,0
126,85.35,0
123,86.19,0
136,88.17,0
131,91.11,0
187,95.18,0
178,100.77,0
147,107.39,0
200,114.41,0
123,121.49,0
206,128.25,0
121,134.57,0
192,140.22,0
172,145.47,0
160,150.4,0
126,154.29,0
130,156.62,0
100,157.21,0
101,156.02,0
128,153.5,0
94,150.23,0
52,145.81,0
43,139.64,0
49,131.89,0
37,123.08,0
115,114.27,0
60,106.5,0
75,99.64,0
78,93.52,0
126,88.72,0
135,85.98,0
127,85.38,0
62,85.82,0
122,86.4,0
161,87.86,0
193,91.33,0
146,96.66,0
214,103.28,0
133,110.73,0
198,118.34,0
139,125.73,0
194,132.73,0
118,139,0
203,144.39,0
127,149.1,0
150,152.77,0
118,155.01,0
127,155.84,0
86,155.11,0
100,152.71,0
55,148.65,0
49,142.79,0
69,135.41,0
45,127.25,0
37,118.47,0
60,109.32,0
100,100.89,0
104,94.15,0
101,89.31,0
103,86.05,0
178,84.73,0
142,85.9,0
146,88.96,0
158,93.24,0
173,98.67,0
138,104.85,0
187,111.35,0
142,118,0
226,124.92,0
190,132.55,0
206,140.68,0
155,148.46,0
166,155.11,0
132,160.15,0
149,163.46,0
196,165.75,0
133,167.58,0
137,168.38,0
77,167.38,0
78,164.13,0
57,158.59,0
52,151.12,0
39,142.11,0
83,132.33,0
49,122.62,0
73,113.28,0
96,104.85,0
97,97.96,0
119,92.88,0
134,89.82,0
142,88.92,0
152,90.03,0
65,92.12,0
190,94.57,0
151,98.26,0
214,103.66,0
171,110.54,0
204,118.43,0
141,126.46,0
172,133.82,0
150,140.24,0
150,145.62,0
133,149.71,0
152,152.57,0
84,153.99,0
62,153.11,0
89,149.83,0
42,144.68,0
53,137.85,0
40,129.67,0
61,120.75,0
32,111.58,0
116,102.91,0
103,95.97,0
130,91.24,0
119,88.63,0
142,87.95,0
127,88.91,0
150,91.21,0
153,94.74,0
187,99.64,0
149,105.66,0
199,112.41,0
134,119.47,0
189,126.3,0
146,132.75,0
174,138.68,0
151,143.93,0
191,148.68,0
145,152.98,0
162,156.5,0
123,158.89,0
146,160.04,0
105,159.92,0
84,158.19,0
83,154.6,0
43,149.18,0
53,141.94,0
45,133.36,0
62,124.12,0
50,114.8,0
110,106.18,0
91,99.1,0
116,93.82,0
66,89.93,0
172,87.47,0
127,87.14,0
163,88.9,0
115,92,0
183,96.09,0
147,101.22,0
211,107.46,0
124,114.36,0
202,121.28,0
148,128.12,0
214,134.96,0
158,141.76,0
182,148.14,0
127,153.45,0
50,156.43,0
123,156.43,0
125,154.74,0
114,152.36,0
112,149.36,0
111,145.85,0
38,141.43,0
81,135.59,0
42,128.69,0
65,121.08,0
52,113.14,0
126,105.8,0
81,99.92,0
78,95.17,0
94,91.15,0
130,88.35,0
150,87.46,0
146,88.65,0
104,91.12,0
187,94.46,0
167,99.2,0
187,105.38,0
127,112.1,0
188,118.7,0
122,124.96,0
191,130.74,0
141,136.14,0
165,141.02,0
140,145.12,0
166,148.48,0
128,151.09,0
161,152.89,0
115,153.88,0
86,153.46,0
80,151.11,0
39,146.67,0
77,140.4,0
55,133.05,0
41,124.94,0
64,116.28,0
111,108.17,0
77,101.43,0
100,95.98,0
116,91.91,0
117,89.5,0
152,88.86,0
177,90.4,0
139,93.92,0
220,99.08,0
143,105.7,0
186,112.96,0
160,120.32,0
184,127.65,0
274,135.63,0
171,144.67,0
160,153.17,0
181,160.11,0
140,165.56,0
158,169.34,0
128,171.43,0
118,171.74,0
101,170.11,0
80,166.54,0
83,161.17,0
36,154.11,0
47,145.33,0
37,135.22,0
45,124.45,0
47,113.59,0
129,103.79,0
66,95.98,0
124,90.05,0
145,86.38,0
120,85.14,0
116,85.52,0
168,87.28,0
154,90.77,0
200,96,0
127,102.42,0
203,109.37,0
121,116.44,0
207,123.36,0
142,130.14,0
212,136.8,0
146,143.23,0
237,149.51,0
140,155.62,0
176,160.85,0
107,164.45,0
90,165.69,0
76,164.15,0
54,160.02,0
85,153.75,0
78,146.38,0
37,138.23,0
44,129.07,0
84,119.58,0
84,110.86,0
85,103.35,0
73,96.93,0
97,91.56,0
79,87.31,0
142,84.49,0
156,83.85,0
167,85.72,0
130,89.44,0
204,94.54,0
162,101.08,0
223,108.91,0
110,117.19,0
194,124.87,0
189,132.26,0
215,140,0
173,147.8,0
190,155.05,0
124,161.02,0
151,165.11,0
117,167.25,0
129,167.6,0
98,166.21,0
75,162.98,0
76,157.79,0
44,150.87,0
52,142.4,0
109,133.35,0
36,124.6,0
48,115.71,0
94,106.99,0
91,99.53,0
110,93.76,0
128,89.91,0
178,88.53,0
157,89.91,0
185,93.61,0
141,98.85,0
212,105.21,0
124,112.27,0
204,119.41,0
149,126.53,0
251,133.98,0
191,142.17,0
173,150.36,0
118,157.03,0
154,161.56,0
121,164.17,0
154,165.27,0
131,165.27,0
92,164.01,0
103,161.05,0
99,156.78,0
58,151.32,0
46,144.34,0
58,135.95,0
102,127.24,0
54,119.03,0
70,111.16,0
120,104.1,0
107,98.74,0
103,95.03,0
113,92.58,0
128,91.43,0
117,91.56,0
194,93.24,0
144,96.82,0
215,102.08,0
134,108.58,0
192,115.5,0
70,121.79,0
190,126.86,0
257,132.37,0
171,139.41,0
131,146.2,0
138,151.24,0
86,154.15,0
118,154.78,0
89,153.53,0
212,151.71,0
92,150.31,0
164,148.9,0
56,146.85,0
42,143.07,0
36,136.92,0
127,129.69,0
64,122.83,0
88,116.4,0
140,110.8,0
108,106.82,0
126,104.25,0
128,102.88,0
165,102.96,0
152,104.68,0
228,108.28,0
158,113.8,0
234,120.67,0
171,128.5,0
213,136.73,0
124,144.43,0
210,151.05,0
149,156.82,0
145,161.41,0
99,164,0
140,164.54,0
127,163.69,0
101,161.73,0
108,158.51,0
98,154.23,0
74,149,0
35,142.41,0
45,134.24,0
35,124.89,0
79,115.25,0
152,106.97,0
88,101.05,0
63,96.43,0
110,92.41,0
131,89.73,0
150,89.04,0
134,90.23,0
214,93.42,0
155,98.68,0
172,105.17,0
139,111.92,0
235,119.01,0
184,127.01,0
220,135.72,0
191,144.58,0
192,153.09,0
146,160.45,0
166,166.11,0
137,170,0
174,172.41,0
105,173.41,0
80,172.24,0
100,168.68,0
82,163.34,0
56,156.51,0
46,148.13,0
54,138.49,0
49,128.28,0
58,118.01,0
73,108.27,0
239,100.95,0
124,97.64,0
132,97.04,0
116,97.54,0
151,98.94,0
149,101.43,0
187,105.24,0
152,110.24,0
199,116.1,0
189,122.86,0
184,130.22,0
127,137.16,0
187,143.07,0
164,148.32,0
210,153.4,0
128,158.07,0
138,161.39,0
110,162.82,0
237,163.45,0
115,164.3,0
83,164.07,0
100,161.61,0
56,157.2,0
54,150.86,0
38,142.73,0
66,133.47,0
46,123.81,0
76,114.31,0
97,105.75,0
110,98.88,0
84,93.72,0
103,89.84,0
129,87.39,0
130,86.69,0
139,87.65,0
196,90.45,0
158,95.28,0
199,101.71,0
139,108.98,0
211,116.6,0
164,124.54,0
193,132.49,0
140,139.86,0
172,146.17,0
160,151.45,0
164,155.88,0
119,159.11,0
136,160.73,0
125,160.91,0
94,159.69,0
136,157.18,0
44,153.47,0
61,147.93,0
36,140.45,0
35,131.52,0
46,121.63,0
68,111.69,0
53,102.38,0
74,93.97,0
113,87.07,0
94,82.21,0
110,79.19,0
147,78.09,0
150,79.27,0
168,82.64,0
130,87.56,0
220,93.78,0
140,101.25,0
210,109.45,0
171,118.09,0
221,127.14,0
179,136.34,0
198,145.26,0
142,153.16,0
149,159.31,0
108,163.23,0
127,164.89,0
127,164.73,0
82,163.01,0
89,159.46,0
68,154.22,0
91,147.74,0
40,140.33,0
38,131.79,0
34,122.2,0
44,112.11,0
147,102.96,0
56,95.85,0
99,90.24,0
103,85.95,0
134,83.47,0
165,83.23,0
144,85.36,0
161,89.22,0
127,94.11,0
196,99.77,0
184,106.56,0
220,114.68,0
116,123.16,0
248,131.33,0
134,139.36,0
199,146.76,0
156,153.21,0
182,158.78,0
143,163.25,0
159,166.42,0
60,167.62,0
125,166.31,0
106,163.23,0
64,158.77,0
59,152.53,0
81,144.92,0
46,136.55,0
34,127.37,0
65,117.66,0
155,109.03,0
85,102.67,0
118,98.11,0
175,95.52,0
95,95.04,0
150,95.79,0
143,97.63,0
175,100.85,0
150,105.28,0
184,110.61,0
155,116.55,0
176,122.77,0
157,128.91,0
222,135.2,0
152,141.73,0
192,147.94,0
153,153.46,0
192,158.28,0
157,162.45,0
170,165.83,0
128,168.08,0
74,168.37,0
115,166.27,0
97,162.5,0
84,157.53,0
71,151.33,0
60,143.98,0
35,135.52,0
138,126.84,0
37,118.92,0
50,111.15,0
58,103.17,0
102,95.92,0
106,90.28,0
111,86.51,0
127,84.54,0
158,84.56,0
126,86.48,0
163,89.8,0
130,94.15,0
212,99.62,0
153,106.31,0
205,113.85,0
146,121.68,0
210,129.45,0
135,136.87,0
217,143.74,0
167,150.29,0
202,156.52,0
159,162.11,0
136,166.43,0
128,168.84,0
151,169.57,0
122,169.1,0
104,167.28,0
58,163.59,0
64,157.73,0
80,150.25,0
132,142.56,0
48,135.24,0
40,127.43,0
47,118.74,0
37,109.62,0
90,100.8,0
78,93.2,0
98,87.2,0
115,82.96,0
120,80.7,0
172,80.65,0
172,83.18,0
154,87.89,0
181,94.02,0
158,101.12,0
180,108.76,0
134,116.36,0
205,123.69,0
157,130.96,0
212,138.18,0
133,145.01,0
171,150.77,0
153,155.35,0
164,159,0
139,161.64,0
144,163.15,0
133,163.54,0
128,162.87,0
90,160.94,0
99,157.51,0
96,152.88,0
72,147.3,0
63,140.68,0
34,132.93,0
88,124.47,0
97,116.46,0
56,109.32,0
80,102.66,0
107,96.87,0
117,92.68,0
140,90.41,0
134,90.13,0
157,91.59,0
119,94.35,0
176,98.05,0
154,102.78,0
210,108.7,0
152,115.61,0
210,123.01,0
178,130.77,0
221,138.85,0
157,146.81,0
182,153.94,0
156,159.86,0
166,164.52,0
90,167.38,0
120,167.85,0
112,166.3,0
81,163.11,0
57,158.02,0
78,151.17,0
45,143.04,0
46,133.89,0
71,124.21,0
128,115.36,0
125,108.56,0
102,103.8,0
120,100.46,0
123,98.46,0
143,97.92,0
121,98.65,0
225,101.01,0
148,105.45,0
212,111.4,0
144,118.16,0
231,125.47,0
155,133.17,0
195,140.72,0
151,147.56,0
166,153.36,0
146,157.89,0
125,160.94,0
137,162.35,0
97,162.15,0
116,160.33,0
52,156.76,0
56,151.15,0
49,143.62,0
37,134.7,0
48,124.87,0
124,115.4,0
74,107.44,0
106,100.97,0
89,95.81,0
116,92.02,0
109,89.65,0
143,88.83,0
133,89.62,0
165,91.99,0
64,95.1,0
186,98.28,0
148,102.26,0
207,107.6,0
173,114.19,0
179,121.47,0
134,128.48,0
185,134.78,0
156,140.57,0
187,145.97,0
238,151.59,0
151,157.58,0
115,162.33,0
167,165.12,0
123,166.51,0
106,166.35,0
76,164.13,0
61,159.68,0
84,153.36,0
56,145.85,0
57,137.4,0
173,129.27,0
44,122.51,0
149,116.71,0
46,111.65,0
94,106.89,0
91,102.42,0
119,98.9,0
146,96.87,0
138,96.69,0
171,98.26,0
161,101.51,0
178,106.18,0
188,112.04,0
225,119.21,0
144,127.17,0
206,134.96,0
143,142.19,0
205,148.74,0
139,154.52,0
192,159.39,0
140,163.29,0
177,166.23,0
131,168.13,0
118,168.61,0
127,167.49,0
41,164.53,0
94,159.3,0
71,152.52,0
68,144.82,0
40,136.19,0
43,126.71,0
127,117.4,0
85,109.6,0
88,103.24,0
112,98.08,0
46,93.88,0
102,90.11,0
133,87.43,0
174,87.01,0
155,89.07,0
198,93.34,0
184,99.6,0
227,107.61,0
150,116.68,0
193,125.67,0
167,134.16,0
212,142.28,0
145,149.83,0
156,156.05,0
155,160.68,0
134,163.84,0
111,165.25,0
70,164.4,0
104,161.26,0
70,156.41,0
76,150.21,0
63,142.9,0
60,134.78,0
36,125.96,0
49,116.6,0
181,108.23,0
60,102.2,0
49,97.13,0
84,92.06,0
119,87.94,0
192,86.15,0
158,87.4,0
159,90.95,0
122,95.58,0
170,100.66,0
160,106.37,0
246,113.26,0
148,121.35,0
295,130.41,0
128,140.13,0
195,149.05,0
165,156.54,0
203,163.08,0
156,168.66,0
170,172.99,0
108,175.55,0
126,175.94,0
115,174.35,0
102,171.16,0
92,166.48,0
65,160.33,0
91,152.94,0
64,144.86,0
72,136.33,0
39,127.39,0
49,118.05,0
44,108.54,0
122,99.86,0
102,93.2,0
44,88.1,0
99,83.71,0
137,80.72,0
137,79.99,0
152,81.43,0
128,84.55,0
183,89.02,0
149,94.79,0
213,101.82,0
149,109.77,0
200,118.07,0
191,126.61,0
146,134.93,0
162,142.12,0
169,148.17,0
142,153.17,0
168,157.04,0
93,159.52,0
130,160.14,0
116,159.17,0
47,156.56,0
90,151.88,0
78,145.83,0
56,138.91,0
40,130.98,0
40,122.09,0
45,112.66,0
127,103.9,0
65,96.82,0
94,91.13,0
89,86.63,0
202,84.25,0
161,85.03,0
131,88.22,0
122,92.23,0
174,96.76,0
169,102.27,0
212,109.05,0
118,116.5,0
194,123.62,0
146,130.34,0
203,136.83,0
154,143.07,0
209,149.03,0
177,154.81,0
201,160.4,0
164,165.49,0
181,169.75,0
121,172.73,0
147,174,0
85,173.35,0
123,170.78,0
84,166.63,0
73,160.98,0
102,154.12,0
84,146.81,0
58,139.12,0
39,130.66,0
52,121.48,0
101,112.5,0
67,104.62,0
72,97.7,0
127,92.01,0
106,88.22,0
96,86.04,0
134,85.1,0
152,85.83,0
85,87.86,0
165,90.52,0
164,94.35,0
196,99.83,0
126,106.37,0
204,113.21,0
125,120.1,0
202,126.8,0
155,133.35,0
202,139.81,0
157,146.01,0
212,151.92,0
134,157.29,0
171,161.56,0
143,164.57,0
110,166.11,0
114,165.73,0
83,163.43,0
93,159.39,0
64,153.81,0
91,147.07,0
37,139.45,0
54,130.86,0
36,121.51,0
180,112.92,0
79,106.6,0
87,101.78,0
137,97.97,0
124,95.85,0
127,95.29,0
231,96.75,0
144,100.69,0
180,106.12,0
162,112.23,0
208,119.05,0
110,125.98,0
215,132.39,0
64,137.87,0
243,142.33,0
127,146.6,0
184,150.63,0
147,154.02,0
189,157.01,0
164,159.79,0
178,162.37,0
135,164.37,0
111,165.08,0
91,163.86,0
84,160.64,0
100,155.86,0
119,150.42,0
73,144.71,0
46,138.16,0
42,130.35,0
44,121.55,0
50,112.35,0
157,104.13,0
92,98.2,0
88,93.98,0
81,90.56,0
114,87.97,0
134,86.75,0
147,87.32,0
151,89.64,0
144,93.34,0
211,98.43,0
142,104.9,0
204,112.13,0
156,119.75,0
208,127.57,0
172,135.44,0
206,143.22,0
160,150.54,0
203,157.15,0
165,163.02,0
176,167.94,0
106,171.3,0
136,172.52,0
89,171.62,0
127,168.92,0
107,164.99,0
73,159.97,0
93,153.71,0
43,146.35,0
64,137.92,0
38,128.65,0
40,118.82,0
65,108.93,0
81,99.88,0
109,92.48,0
151,87.52,0
144,85.45,0
142,85.88,0
164,88.26,0
180,92.53,0
138,98.2,0
220,104.86,0
143,112.41,0
218,120.43,0
168,128.73,0
325,138.05,0
137,148.49,0
197,158.09,0
162,165.89,0
174,172.08,0
131,176.39,0
152,178.71,0
130,179.22,0
108,177.99,0
80,174.7,0
65,169.19,0
126,162.19,0
36,154.4,0
42,145.37,0
36,135,0
36,123.91,0
62,112.8,0
80,102.6,0
72,93.89,0
78,86.67,0
103,81.04,0
160,77.77,0
136,77.34,0
198,79.66,0
154,84.47,0
260,91.68,0
156,101,0
211,111.21,0
164,121.41,0
224,131.45,0
164,141.16,0
192,150.02,0
161,157.65,0
172,163.91,0
143,168.6,0
164,171.74,0
97,173.15,0
126,172.47,0
85,169.84,0
85,165.36,0
118,159.58,0
69,153.12,0
76,145.9,0
68,137.98,0
38,129.44,0
36,120.14,0
128,111.07,0
62,103.43,0
84,96.98,0
108,91.67,0
127,88.12,0
136,86.62,0
155,87.22,0
154,89.73,0
179,93.98,0
152,99.58,0
193,106.12,0
165,113.38,0
232,121.39,0
130,129.72,0
235,137.77,0
156,145.58,0
226,153.1,0
157,160.07,0
183,166.05,0
140,170.59,0
143,173.41,0
96,174.13,0
123,172.72,0
114,169.73,0
108,165.64,0
103,160.63,0
44,154.47,0
66,146.78,0
38,137.85,0
36,127.98,0
48,117.56,0
82,107.52,0
97,98.9,0
80,92.01,0
98,86.68,0
116,83,0
135,81.29,0
161,81.82,0
154,84.56,0
196,89.33,0
157,95.79,0
210,103.47,0
162,111.99,0
194,120.77,0
46,128.38,0
192,133.87,0
172,138.6,0
193,143.63,0
156,148.6,0
187,153.18,0
170,157.39,0
146,160.94,0
154,163.42,0
123,164.66,0
88,164.21,0
119,161.91,0
111,158.43,0
48,153.75,0
77,147.48,0
39,139.84,0
49,131.1,0
56,121.72,0
39,112.24,0
90,103.17,0
92,95.43,0
111,89.59,0
127,85.84,0
150,84.39,0
147,85.26,0
141,87.93,0
226,92.45,0
162,99.1,0
194,107.03,0
58,114.54,0
208,120.74,0
135,126.49,0
214,132.4,0
133,138.26,0
204,143.8,0
173,149.15,0
163,154.18,0
145,158.22,0
155,161.09,0
130,162.78,0
127,163.16,0
84,161.92,0
88,158.8,0
89,154.07,0
76,148.22,0
56,141.3,0
36,133.24,0
42,124.12,0
116,115.04,0
127,107.65,0
54,101.98,0
101,97.07,0
124,93.28,0
122,91.21,0
100,90.5,0
143,90.81,0
127,92.31,0
174,95.12,0
148,99.27,0
296,105.53,0
130,113.98,0
243,123.24,0
161,132.62,0
196,141.64,0
127,149.44,0
189,155.71,0
152,160.76,0
154,164.63,0
160,167.26,0
163,168.99,0
130,169.81,0
105,169.18,0
100,166.76,0
92,162.7,0
75,157.21,0
73,150.46,0
74,142.79,0
48,134.48,0
37,125.44,0
58,115.92,0
54,106.58,0
119,98.31,0
74,91.79,0
100,86.84,0
125,83.5,0
140,82.24,0
141,83.06,0
145,85.62,0
123,89.3,0
127,93.42,0
197,98.2,0
137,104.01,0
201,110.53,0
39,116.61,0
214,121.45,0
161,126.3,0
190,131.8,0
160,137.43,0
181,142.87,0
158,147.91,0
207,152.66,0
146,157.16,0
156,160.79,0
117,162.99,0
111,163.42,0
116,162.11,0
47,158.96,0
75,153.64,0
36,146.4,0
39,137.58,0
82,127.93,0
73,118.64,0
100,110.37,0
81,103.36,0
82,97.46,0
119,92.77,0
133,89.88,0
153,89.2,0
166,90.75,0
187,94.51,0
160,100.05,0
197,106.77,0
152,114.19,0
190,121.77,0
147,129.12,0
224,136.28,0
130,143.2,0
175,149.18,0
192,154.34,0
174,159.22,0
119,163.11,0
121,165.08,0
108,165,0
100,163.1,0
136,159.95,0
118,156.31,0
98,152.26,0
35,147.05,0
50,140.03,0
36,131.49,0
61,122.18,0
67,112.93,0
103,104.64,0
63,97.65,0
116,91.97,0
122,88.05,0
128,86.19,0
110,85.96,0
164,87.16,0
271,91.09,0
192,98.49,0
146,107.45,0
184,116.23,0
152,124.57,0
201,132.48,0
176,140.14,0
219,147.7,0
163,154.99,0
179,161.38,0
139,166.37,0
185,169.97,0
144,172.48,0
147,173.82,0
101,173.55,0
103,171.31,0
109,167.4,0
94,162.32,0
93,156.31,0
76,149.52,0
55,141.91,0
44,133.35,0
38,123.94,0
56,114.15,0
59,104.67,0
74,96.05,0
99,88.86,0
88,83.43,0
111,79.72,0
136,77.97,0
182,78.77,0
153,82.17,0
176,87.5,0
143,94.02,0
197,101.31,0
166,109.29,0
333,118.85,0
181,130.55,0
202,142.56,0
148,153.03,0
199,161.69,0
154,168.71,0
202,174.32,0
142,178.61,0
114,180.92,0
116,180.73,0
106,178.36,0
96,174.15,0
90,168.4,0
86,161.47,0
48,153.41,0
50,144.13,0
38,133.86,0
41,123,0
127,112.73,0
68,104.2,0
79,97.1,0
190,91.93,0
116,89.71,0
160,89.86,0
108,91.49,0
152,94.06,0
177,97.77,0
171,102.95,0
152,109.01,0
201,115.59,0
168,122.74,0
214,130.31,0
155,137.97,0
229,145.44,0
152,152.65,0
188,159.04,0
167,164.38,0
212,169.07,0
136,173.05,0
142,175.53,0
108,175.98,0
111,174.39,0
112,171.08,0
110,166.58,0
72,161,0
35,153.81,0
47,144.84,0
36,134.61,0
41,123.69,0
51,112.71,0
110,102.73,0
86,94.7,0
102,88.65,0
135,84.63,0
120,82.84,0
127,82.91,0
167,84.68,0
150,88.26,0
236,93.87,0
135,101.31,0
204,109.47,0
127,117.58,0
224,125.52,0
152,133.42,0
197,141,0
156,147.9,0
186,154,0
130,158.98,0
170,162.61,0
135,164.98,0
137,166.1,0
148,166.06,0
37,164.44,0
75,160.23,0
62,153.81,0
92,146.24,0
57,138.16,0
42,129.51,0
41,120.14,0
119,111.07,0
57,103.28,0
76,96.5,0
71,90.47,0
112,85.62,0
127,82.59,0
137,81.71,0
62,82.15,0
162,83.27,0
171,85.96,0
194,90.91,0
142,97.45,0
194,104.75,0
150,112.44,0
252,120.73,0
162,129.76,0
238,139.06,0
151,148.05,0
197,156.07,0
171,162.93,0
166,168.58,0
130,172.54,0
170,174.78,0
126,175.64,0
100,174.78,0
129,172.12,0
109,168.28,0
74,163.29,0
48,156.59,0
57,148.22,0
39,138.62,0
52,128.25,0
122,118.33,0
122,110.33,0
48,104.03,0
118,98.58,0
113,94.46,0
120,92.03,0
118,91.03,0
156,91.49,0
143,93.55,0
171,97.08,0
146,101.78,0
206,107.52,0
146,114.14,0
217,121.29,0
171,128.92,0
206,136.77,0
160,144.36,0
189,151.25,0
184,157.46,0
179,163.06,0
146,167.61,0
148,170.63,0
123,171.95,0
89,171.27,0
114,168.54,0
81,164.15,0
84,158.33,0
68,151.29,0
47,143.11,0
76,134.12,0
57,124.96,0
67,115.98,0
72,107.5,0
108,100.14,0
127,94.68,0
113,91.33,0
163,90.02,0
134,90.83,0
198,93.63,0
128,98.1,0
181,103.53,0
179,109.76,0
210,117.07,0
138,124.87,0
196,132.31,0
154,139.23,0
178,145.53,0
148,150.94,0
160,155.3,0
117,158.32,0
132,159.73,0
127,159.72,0
101,158.46,0
103,155.82,0
72,151.76,0
75,146.33,0
52,139.63,0
35,131.67,0
121,123.28,0
51,115.55,0
80,108.35,0
93,101.82,0
97,96.49,0
101,92.45,0
132,89.89,0
140,89.14,0
138,90.16,0
218,93.22,0
137,98.32,0
200,104.67,0
148,111.7,0
208,119.17,0
169,126.97,0
190,134.78,0
158,142.1,0
233,149.07,0
165,155.96,0
188,162.24,0
152,167.38,0
166,171.18,0
127,173.45,0
123,173.93,0
115,172.57,0
88,169.49,0
87,164.68,0
63,158.28,0
67,150.47,0
42,141.53,0
39,131.65,0
45,121.16,0
114,111.2,0
67,102.76,0
101,95.84,0
114,90.57,0
116,87.25,0
104,85.56,0
137,85.24,0
138,86.45,0
182,89.43,0
150,94.13,0
201,100.25,0
152,107.39,0
209,115.15,0
119,122.93,0
215,130.26,0
170,137.46,0
198,144.61,0
156,151.23,0
177,156.93,0
155,161.58,0
173,165.23,0
130,167.75,0
145,168.9,0
122,168.68,0
111,167.09,0
119,164.18,0
55,159.86,0
69,153.77,0
43,145.99,0
69,137.1,0
46,127.7,0
36,117.98,0
161,109,0
88,102.25,0
88,97.25,0
86,93.13,0
127,90.12,0
161,89,0
160,90.24,0
168,93.57,0
137,98.24,0
188,103.73,0
172,110.13,0
195,117.37,0
146,124.84,0
203,132.08,0
159,139.1,0
199,145.79,0
154,151.93,0
197,157.39,0
154,162.14,0
174,165.99,0
131,168.67,0
292,171.14,0
114,174.21,0
127,176.13,0
91,175.53,0
91,172.6,0
59,167.41,0
47,160.04,0
38,150.75,0
44,140.1,0
51,128.84,0
50,117.66,0
80,107.19,0
96,98.21,0
126,91.45,0
125,87.19,0
137,85.32,0
115,85.34,0
176,87.01,0
140,90.42,0
192,95.36,0
157,101.59,0
203,108.81,0
156,116.63,0
218,124.81,0
145,132.99,0
219,140.83,0
161,148.27,0
187,155.05,0
156,160.78,0
184,165.47,0
145,169.09,0
119,171.16,0
122,171.26,0
105,169.56,0
95,166.19,0
73,161.2,0
83,154.74,0
37,147.01,0
39,137.9,0
43,127.71,0
120,117.77,0
103,109.52,0
79,102.97,0
109,97.64,0
102,93.66,0
69,90.69,0
146,88.63,0
144,88.29,0
183,90.2,0
114,93.83,0
206,98.57,0
150,104.49,0
196,111.32,0
171,118.73,0
327,127.57,0
157,138.18,0
199,148.61,0
178,157.69,0
222,165.79,0
168,173,0
181,178.86,0
131,182.87,0
150,184.79,0
114,184.65,0
131,182.67,0
120,179.22,0
85,174.46,0
104,168.35,0
94,161.34,0
50,153.5,0
41,144.43,0
56,134.31,0
138,124.58,0
56,116.28,0
104,109.05,0
55,102.59,0
102,96.9,0
105,92.38,0
127,89.51,0
139,88.48,0
138,89.26,0
188,91.87,0
150,96.3,0
183,102,0
142,108.41,0
203,115.23,0
147,122.35,0
210,129.55,0
168,136.82,0
202,144,0
168,150.81,0
183,156.96,0
142,162.03,0
161,165.73,0
118,167.84,0
117,168.15,0
82,166.43,0
87,162.68,0
107,157.41,0
60,151.19,0
44,143.69,0
35,134.71,0
41,124.72,0
40,114.29,0
95,104.36,0
86,95.98,0
121,89.65,0
119,85.58,0
139,83.8,0
37,83.27,0
191,83.45,0
149,85.51,0
201,89.98,0
169,96.37,0
215,104.32,0
158,113.17,0
218,122.36,0
164,131.57,0
174,140.18,0
156,147.6,0
157,153.67,0
146,158.3,0
133,161.39,0
89,162.52,0
107,161.46,0
107,158.7,0
82,154.66,0
63,149.23,0
34,142.16,0
60,133.63,0
146,125.21,0
68,118.15,0
113,112.14,0
101,107.13,0
102,103.23,0
180,100.89,0
159,100.92,0
190,103.3,0
156,107.5,0
234,113.2,0
158,120.25,0
192,127.78,0
134,134.86,0
228,141.47,0
155,147.98,0
202,154.16,0
162,159.71,0
162,164.34,0
120,167.43,0
193,169.17,0
139,170.23,0
137,170.44,0
112,169.29,0
83,166.49,0
62,161.68,0
71,154.99,0
45,146.82,0
52,137.53,0
36,127.43,0
144,117.75,0
89,109.92,0
94,103.76,0
79,98.59,0
96,94.28,0
124,91.15,0
140,89.74,0
172,90.49,0
163,93.42,0
187,98.22,0
141,104.21,0
204,110.88,0
122,117.82,0
201,124.56,0
161,131.23,0
200,137.92,0
168,144.48,0
202,150.77,0
158,156.61,0
192,161.73,0
119,165.74,0
140,168.03,0
127,168.57,0
141,167.81,0
107,165.96,0
98,162.81,0
69,158.1,0
42,151.6,0
58,143.41,0
35,134.06,0
37,123.88,0
35,113.26,0
110,103.24,0
84,95.01,0
87,88.63,0
112,83.91,0
122,81.11,0
118,80.23,0
150,81.09,0
129,83.6,0
177,87.56,0
119,92.64,0
224,98.72,0
144,105.94,0
244,114.16,0
181,123.35,0
197,132.9,0
164,141.88,0
154,149.61,0
142,155.62,0
160,159.98,0
149,163.07,0
141,164.97,0
143,165.71,0
120,165.33,0
119,163.71,0
97,160.83,0
91,156.67,0
70,151.23,0
54,144.45,0
82,136.68,0
40,128.39,0
40,119.52,0
74,110.43,0
118,102.41,0
81,96.15,0
100,91.35,0
122,88.02,0
99,86.22,0
122,85.66,0
155,86.5,0
91,88.6,0
158,91.36,0
181,95.28,0
127,100.45,0
201,106.31,0
163,112.96,0
225,120.48,0
170,128.71,0
222,137.2,0
131,145.28,0
173,152.04,0
170,157.5,0
204,162.36,0
157,166.77,0
194,170.49,0
127,173.23,0
101,174.11,0
110,172.65,0
61,168.96,0
74,163.1,0
51,155.4,0
42,146.18,0
193,137.06,0
91,129.88,0
45,123.6,0
77,116.86,0
125,110.55,0
136,105.94,0
136,103.35,0
147,102.54,0
141,103.25,0
155,105.19,0
133,108.02,0
173,111.49,0
155,115.68,0
214,120.8,0
120,126.5,0
210,132.14,0
161,137.85,0
209,143.76,0
164,149.64,0
151,154.85,0
129,158.61,0
115,160.56,0
143,160.88,0
47,159.51,0
102,156.02,0
71,150.87,0
93,144.77,0
89,138.21,0
52,131.34,0
40,123.69,0
48,115.3,0
41,106.58,0
121,98.5,0
48,91.84,0
71,86.12,0
175,81.94,0
135,80.66,0
135,81.79,0
152,84.54,0
138,88.59,0
155,93.56,0
125,98.97,0
196,104.78,0
127,111.04,0
202,117.53,0
181,124.45,0
212,132.01,0
147,139.6,0
147,146.15,0
176,151.39,0
216,156.28,0
143,161.04,0
154,164.76,0
121,166.87,0
147,167.44,0
100,166.59,0
86,164.03,0
104,159.79,0
75,154.31,0
61,147.63,0
36,139.6,0
71,130.54,0
50,121.24,0
57,112.04,0
82,103.36,0
97,95.98,0
96,90.27,0
161,86.69,0
89,85.3,0
179,85.71,0
125,87.95,0
226,92.16,0
146,98.31,0
196,105.66,0
164,113.55,0
230,122.04,0
159,130.95,0
218,139.72,0
162,148.01,0
168,155.29,0
136,160.92,0
151,164.76,0
120,166.83,0
100,166.94,0
91,164.91,0
192,161.83,0
62,158.59,0
44,153.86,0
63,146.95,0
53,138.71,0
80,129.9,0
46,121.05,0
78,112.4,0
99,104.59,0
97,98.29,0
116,93.63,0
110,90.62,0
144,89.28,0
170,90.02,0
116,92.56,0
185,96.28,0
129,101,0
212,106.68,0
153,113.29,0
275,121.11,0
170,130.26,0
202,139.65,0
161,148.24,0
195,155.81,0
151,162.21,0
198,167.46,0
111,171.35,0
166,173.49,0
138,174.17,0
116,173.54,0
116,171.36,0
35,167.14,0
71,160.54,0
37,151.98,0
66,142.21,0
39,131.81,0
34,121.03,0
195,111.34,0
85,104.48,0
82,99.52,0
96,95.3,0
118,92.19,0
150,90.78,0
142,91.32,0
161,93.61,0
151,97.34,0
188,102.33,0
118,108.07,0
213,114.11,0
138,120.56,0
211,127.27,0
156,134.08,0
204,140.83,0
126,147.01,0
208,152.33,0
154,157.09,0
169,161.18,0
136,164.14,0
180,166.1,0
122,167.21,0
94,166.79,0
121,164.53,0
97,160.97,0
97,156.32,0
49,150.43,0
41,142.95,0
49,134.03,0
46,124.36,0
54,114.53,0
69,105.11,0
105,96.93,0
129,90.87,0
112,87.2,0
146,85.65,0
158,86.27,0
181,89.22,0
133,93.9,0
215,99.8,0
156,106.95,0
202,114.87,0
146,122.92,0
256,131.19,0
160,139.88,0
222,148.45,0
162,156.38,0
156,163.04,0
141,167.8,0
162,170.84,0
125,172.39,0
127,172.32,0
126,170.75,0
110,167.97,0
104,164,0
72,158.79,0
74,152.26,0
43,144.41,0
53,135.43,0
89,126.1,0
144,117.95,0
78,111.6,0
59,106.06,0
98,100.77,0
121,96.52,0
110,93.83,0
138,92.63,0
127,92.89,0
157,94.56,0
153,97.62,0
212,102.28,0
151,108.43,0
215,115.54,0
153,123.19,0
203,130.91,0
177,138.52,0
235,146.27,0
163,154.01,0
171,160.86,0
179,166.39,0
203,171.15,0
155,175.22,0
162,178.1,0
130,179.43,0
107,178.88,0
102,176.25,0
92,171.77,0
76,165.69,0
42,157.96,0
50,148.59,0
65,138.26,0
56,127.8,0
172,118.5,0
73,111.42,0
82,105.66,0
112,100.68,0
91,96.84,0
127,94.2,0
122,92.95,0
142,93.17,0
137,94.73,0
182,97.72,0
137,102.02,0
196,107.3,0
157,113.43,0
232,120.45,0
144,128.13,0
221,135.84,0
134,143.17,0
210,149.79,0
59,154.93,0
193,158.04,0
151,160.09,0
141,161.62,0
125,162.05,0
90,160.99,0
106,158.26,0
90,154.19,0
74,148.98,0
57,142.53,0
47,134.86,0
35,126.1,0
33,116.54,0
43,106.62,0
68,97.1,0
104,89,0
76,82.8,0
125,78.49,0
122,76.33,0
135,76.31,0
169,78.42,0
154,82.61,0
191,88.57,0
150,95.83,0
209,103.95,0
163,112.72,0
254,122.17,0
178,132.32,0
223,142.53,0
195,152.34,0
276,162.11,0
182,171.86,0
190,180.45,0
166,187.01,0
169,191.53,0
148,194.02,0
136,194.48,0
125,192.91,0
95,189.34,0
104,183.84,0
76,176.67,0
78,168.14,0
35,158.3,0
136,147.9,0
49,138.05,0
50,128.33,0
109,118.81,0
115,110.82,0
134,104.99,0
197,101.92,0
134,101.71,0
177,103.5,0
164,106.85,0
198,111.67,0
133,117.39,0
195,123.31,0
152,129.3,0
200,135.35,0
152,141.29,0
170,146.71,0
156,151.33,0
162,155.16,0
138,158.06,0
155,159.93,0
129,160.84,0
99,160.46,0
121,158.57,0
102,155.56,0
99,151.65,0
47,146.52,0
54,139.8,0
38,131.68,0
121,123.22,0
62,115.54,0
55,108.37,0
75,101.38,0
125,95.44,0
132,91.54,0
140,89.94,0
109,90.06,0
160,91.44,0
151,94.26,0
230,98.99,0
158,105.65,0
210,113.47,0
177,121.9,0
232,130.85,0
188,140.19,0
288,150.09,0
156,160.25,0
186,169.17,0
143,175.91,0
178,180.59,0
143,183.49,0
121,184.47,0
194,183.88,0
94,182.34,0
64,178.83,0
60,172.53,0
63,164.07,0
52,154.19,0
56,143.44,0
44,132.26,0
119,121.56,0
90,112.48,0
82,105.02,0
97,98.77,0
118,94.02,0
143,91.23,0
174,90.86,0
124,92.65,0
191,96,0
157,100.84,0
198,106.99,0
164,114.04,0
204,121.65,0
145,129.35,0
216,136.78,0
150,143.92,0
236,150.8,0
168,157.57,0
204,163.91,0
134,169.19,0
165,172.87,0
142,174.96,0
130,175.56,0
115,174.49,0
90,171.61,0
126,167.23,0
69,161.77,0
88,155.19,0
37,147.39,0
37,138.25,0
62,128.18,0
58,118.1,0
59,108.51,0
79,99.73,0
108,92.46,0
115,87.25,0
106,84.09,0
138,82.75,0
107,83.03,0
115,84.35,0
157,86.64,0
206,90.76,0
136,96.7,0
188,103.5,0
151,110.74,0
215,118.39,0
172,126.5,0
211,134.84,0
138,142.77,0
191,149.68,0
163,155.63,0
224,161.12,0
182,166.53,0
139,171.14,0
102,173.64,0
128,173.67,0
119,171.89,0
127,168.94,0
80,164.87,0
42,159,0
57,151.14,0
38,141.78,0
83,131.78,0
46,121.9,0
75,112.43,0
86,103.85,0
92,96.7,0
92,91.06,0
114,86.99,0
137,84.79,0
159,84.86,0
158,87.19,0
170,91.38,0
144,96.84,0
194,103.18,0
46,109.36,0
257,114.93,0
160,121.31,0
209,128.64,0
160,136.04,0
180,143.03,0
176,149.37,0
178,155.11,0
165,160.11,0
158,164.12,0
145,166.92,0
132,168.32,0
129,168.29,0
98,166.73,0
94,163.51,0
71,158.61,0
54,152.02,0
42,143.79,0
43,134.28,0
136,124.8,0
46,116.46,0
80,108.82,0
84,101.8,0
88,95.89,0
129,91.44,0
127,88.96,0
150,88.53,0
124,89.85,0
223,93.02,0
156,98.38,0
220,105.5,0
132,113.45,0
266,121.95,0
159,131.21,0
203,140.4,0
253,149.5,0
178,158.8,0
170,167.05,0
158,173.38,0
157,177.79,0
136,180.3,0
124,180.82,0
94,179.2,0
72,175.24,0
59,168.9,0
70,160.63,0
86,151.39,0
33,141.63,0
185,132.3,0
70,124.75,0
80,118.24,0
91,112.03,0
93,106.55,0
114,102.09,0
118,98.95,0
144,97.36,0
152,97.55,0
169,99.56,0
127,102.88,0
187,107.04,0
134,111.92,0
240,117.67,0
137,124.35,0
212,131.32,0
167,138.28,0
232,145.42,0
180,152.74,0
202,159.82,0
95,165.52,0
178,169.11,0
139,171.13,0
151,172.01,0
133,171.74,0
94,170.09,0
123,166.9,0
72,162.36,0
93,156.54,0
51,149.49,0
35,141.06,0
52,131.41,0
135,121.99,0
46,113.84,0
72,106.35,0
70,99.29,0
65,92.93,0
127,87.73,0
191,85.09,0
151,85.72,0
204,89.13,0
147,94.61,0
226,101.63,0
171,110.01,0
214,119.21,0
191,128.79,0
234,138.68,0
157,148.36,0
210,157.08,0
114,164.22,0
180,169.32,0
149,172.76,0
140,174.75,0
159,175.35,0
118,174.78,0
99,172.66,0
83,168.65,0
125,163.23,0
84,157.17,0
47,150.19,0
81,142.08,0
117,133.91,0
50,126.28,0
58,118.6,0
91,110.94,0
109,104.34,0
119,99.41,0
172,96.68,0
78,95.89,0
171,96.23,0
176,98.22,0
209,102.57,0
159,108.72,0
248,116.2,0
166,124.85,0
210,133.81,0
178,142.51,0
209,150.81,0
168,158.44,0
191,165.09,0
170,170.63,0
197,175.22,0
167,178.96,0
131,181.35,0
147,181.94,0
85,180.61,0
112,177.15,0
94,171.99,0
78,165.52,0
78,157.82,0
45,149.06,0
35,139.14,0
57,128.41,0
66,117.79,0
44,107.76,0
84,98.55,0
124,91.07,0
120,86.11,0
134,83.59,0
172,83.53,0
163,86.01,0
116,90.12,0
179,95,0
164,100.83,0
228,108,0
179,116.46,0
202,125.55,0
182,134.62,0
221,143.56,0
165,152.12,0
189,159.72,0
194,166.3,0
180,172.06,0
156,176.62,0
166,179.7,0
137,181.26,0
93,180.84,0
95,178.01,0
122,173.34,0
82,167.55,0
70,160.55,0
53,152.2,0
76,142.91,0
37,133.12,0
40,122.85,0
62,112.47,0
92,102.98,0
105,95.26,0
127,89.8,0
154,86.9,0
208,87.14,0
1023,97.55,0
526,125.1,0
46,159.34,0
187,186.74,0
137,206.01,0
196,219.3,0
200,228.18,0
220,234.14,0
200,237.87,0
172,239.39,0
204,238.81,0
165,236.64,0
217,233.39,0
162,229.49,0
165,224.78,0
164,219.19,0
142,212.96,0
134,205.99,0
105,198.11,0
109,189.31,0
51,179.48,0
82,168.5,0
39,156.69,0
102,144.72,0
67,133.4,0
77,122.98,0
62,113.34,0
147,105.14,0
116,99.34,0
141,95.96,0
109,94.4,0
201,94.72,0
161,97.41,0
239,102.51,0
175,109.71,0
189,117.98,0
131,126.02,0
218,133.49,0
187,140.98,0
227,148.78,0
169,156.48,0
217,163.62,0
150,169.86,0
236,175.21,0
224,180.47,0
166,185.53,0
137,188.97,0
145,190.19,0
115,189.31,0
95,186.28,0
123,181.37,0
79,175.13,0
94,167.67,0
68,159.24,0
51,149.9,0
122,140.25,0
39,131.05,0
87,122.1,0
77,113.66,0
112,106.41,0
93,100.63,0
127,96.44,0
174,94.37,0
177,95.04,0
175,98.21,0
130,102.78,0
204,108.14,0
190,114.64,0
224,122.46,0
198,131.25,0
213,140.48,0
198,149.64,0
178,158.15,0
217,165.76,0
208,172.84,0
151,178.99,0
178,183.43,0
168,186.33,0
166,187.99,0
150,188.41,0
140,187.52,0
92,184.97,0
70,180.16,0
83,173.16,0
78,164.7,0
48,155.2,0
35,144.58,0
112,133.62,0
42,123.37,0
68,113.69,0
78,104.69,0
173,97.67,0
114,93.56,0
152,91.91,0
146,92.27,0
155,94.42,0
149,97.95,0
188,102.68,0
176,108.66,0
228,115.94,0
172,124.28,0
218,133.02,0
192,141.88,0
248,150.93,0
198,160.15,0
210,168.9,0
186,176.62,0
196,183.08,0
229,188.6,0
163,193.32,0
142,196.28,0
117,196.69,0
147,194.84,0
93,191.15,0
117,185.78,0
73,178.87,0
57,170.33,0
56,160.21,0
57,149.06,0
96,137.84,0
63,127.33,0
51,117.37,0
119,108.27,0
134,101.27,0
169,97.2,0
181,96.31,0
196,98.47,0
176,103.06,0
186,109.21,0
191,116.38,0
261,124.85,0
215,134.85,0
229,145.62,0
176,155.99,0
208,165.24,0
195,173.31,0
198,180.29,0
187,186.07,0
176,190.49,0
171,193.42,0
152,194.79,0
120,194.3,0
104,191.6,0
92,186.71,0
42,179.56,0
55,170.13,0
52,159.02,0
42,146.98,0
147,135.32,0
76,125.38,0
160,117.48,0
83,111.55,0
112,106.97,0
123,103.51,0
127,101.46,0
183,101.17,0
154,102.93,0
185,106.45,0
130,111.01,0
226,116.35,0
189,122.92,0
244,130.85,0
138,139.28,0
226,147.25,0
177,154.78,0
217,161.98,0
151,168.39,0
224,173.84,0
183,178.7,0
159,182.67,0
116,184.76,0
137,184.59,0
138,182.71,0
129,179.73,0
90,175.54,0
50,169.52,0
47,161.33,0
60,151.47,0
42,140.71,0
45,129.45,0
107,118.6,0
95,109.35,0
116,102.12,0
109,96.85,0
163,93.77,0
151,93.15,0
168,94.83,0
163,98.35,0
193,103.46,0
175,109.91,0
252,117.78,0
162,126.79,0
246,136.24,0
180,145.82,0
238,155.25,0
200,164.35,0
203,172.78,0
179,179.96,0
192,185.7,0
185,190.1,0
168,193.2,0
121,194.45,0
126,193.42,0
106,190.21,0
117,185.23,0
116,179.1,0
88,172.14,0
44,163.93,0
41,154.04,0
116,143.44,0
55,133.36,0
56,123.63,0
94,114.31,0
121,106.46,0
126,100.79,0
174,97.68,0
129,97.05,0
182,98.42,0
149,101.51,0
199,106.11,0
167,111.98,0
229,119.03,0
176,127.05,0
289,136.14,0
202,146.43,0
217,156.92,0
187,166.5,0
208,174.89,0
198,182.09,0
187,188.09,0
199,192.8,0
195,196.46,0
179,199.09,0
139,200.22,0
127,199.25,0
131,196.28,0
84,191.42,0
69,184.41,0
48,175.21,0
64,164.3,0
47,152.37,0
107,140.47,0
67,129.48,0
104,119.71,0
129,111.66,0
135,105.97,0
181,102.94,0
154,102.67,0
195,104.73,0
156,108.62,0
229,114.1,0
219,121.38,0
254,130.5,0
204,140.85,0
230,151.44,0
181,161.47,0
207,170.36,0
167,177.78,0
183,183.53,0
127,187.25,0
127,188.52,0
131,187.48,0
108,184.57,0
98,179.94,0
74,173.59,0
45,165.41,0
42,155.41,0
144,144.93,0
71,135.48,0
78,126.83,0
84,118.64,0
116,111.48,0
149,106.2,0
180,103.58,0
128,103.44,0
195,105.12,0
165,108.56,0
209,113.64,0
181,120.04,0
242,127.66,0
176,136.15,0
222,144.85,0
198,153.43,0
240,161.97,0
208,170.42,0
210,178.36,0
150,184.93,0
183,189.54,0
167,192.43,0
179,194.02,0
127,194.21,0
122,192.53,0
127,189.02,0
109,184.12,0
80,177.84,0
78,170.06,0
87,161.19,0
42,151.55,0
39,140.96,0
100,130.08,0
71,120.07,0
73,111.1,0
98,103.21,0
127,97.08,0
151,93.36,0
125,92.05,0
220,93.12,0
118,96.49,0
234,101.55,0
153,108.17,0
206,115.78,0
170,123.8,0
256,132.45,0
178,141.74,0
244,151.18,0
174,160.3,0
204,168.5,0
199,175.62,0
208,181.92,0
177,187.24,0
165,191.1,0
169,193.31,0
141,193.93,0
