38.00,39.95,0
40.00,39.83,0
40.00,39.72,0
40.00,39.66,0
43.00,39.64,0
40.00,39.69,0
40.00,39.76,0
40.00,39.83,0
41.00,39.89,0
38.00,39.94,0
41.00,39.96,0
40.00,39.98,0
42.00,40.02,0
40.00,40.09,0
42.00,40.17,0
39.00,40.24,0
42.00,40.31,0
40.00,40.38,0
42.00,40.45,0
39.00,40.51,0
42.00,40.56,0
38.00,40.59,0
39.00,40.56,0
38.00,40.48,0
40.00,40.35,0
40.00,40.23,0
40.00,40.13,0
40.00,40.05,0
40.00,39.98,0
40.00,39.94,0
44.00,39.94,0
40.00,40.00,0
40.00,40.09,0
41.00,40.16,0
40.00,40.22,0
41.00,40.28,0
38.00,40.31,0
41.00,40.31,0
43.00,40.33,0
44.00,40.42,0
40.00,40.56,0
44.00,40.72,0
40.00,40.89,0
40.00,41.01,0
40.00,41.08,0
40.00,41.09,0
40.00,41.06,0
40.00,41.01,0
38.00,40.91,0
41.00,40.79,0
40.00,40.67,0
44.00,40.59,0
44.00,40.62,0
40.00,40.71,0
40.00,40.80,0
40.00,40.83,0
40.00,40.83,0
40.00,40.80,0
40.00,40.76,0
40.00,40.69,0
41.00,40.63,0
39.00,40.57,0
39.00,40.49,0
40.00,40.39,0
40.00,40.29,0
39.00,40.20,0
41.00,40.11,0
38.00,40.03,0
42.00,39.97,0
40.00,39.93,0
41.00,39.93,0
38.00,39.94,0
42.00,39.93,0
39.00,39.94,0
40.00,39.95,0
40.00,39.95,0
41.00,39.96,0
40.00,39.98,0
40.00,40.01,0
40.00,40.03,0
40.00,40.05,0
39.00,40.05,0
43.00,40.06,0
44.00,40.14,0
39.00,40.28,0
43.00,40.41,0
39.00,40.54,0
40.00,40.62,0
39.00,40.65,0
41.00,40.64,0
39.00,40.61,0
45.00,40.60,0
38.00,40.63,0
45.00,40.69,0
40.00,40.77,0
42.00,40.87,0
39.00,40.94,0
40.00,40.96,0
39.00,40.92,0
36.00,40.82,0
38.00,40.62,0
44.00,40.42,0
40.00,40.30,0
44.00,40.26,0
40.00,40.29,0
41.00,40.35,0
43.00,40.42,0
40.00,40.52,0
40.00,40.60,0
40.00,40.65,0
42.00,40.67,0
43.00,40.73,0
41.00,40.83,0
40.00,40.91,0
41.00,40.96,0
37.00,40.96,0
43.00,40.91,0
39.00,40.86,0
43.00,40.82,0
39.00,40.80,0
42.00,40.79,0
39.00,40.76,0
42.00,40.74,0
39.00,40.71,0
42.00,40.68,0
39.00,40.65,0
41.00,40.62,0
39.00,40.57,0
41.00,40.52,0
40.00,40.47,0
40.00,40.42,0
38.00,40.36,0
40.00,40.26,0
36.00,40.13,0
40.00,39.96,0
41.00,39.81,0
40.00,39.72,0
40.00,39.67,0
39.00,39.63,0
40.00,39.60,0
36.00,39.54,0
42.00,39.47,0
40.00,39.43,0
42.00,39.45,0
42.00,39.54,0
43.00,39.69,0
38.00,39.87,0
41.00,40.01,0
39.00,40.10,0
44.00,40.20,0
39.00,40.31,0
43.00,40.43,0
37.00,40.53,0
44.00,40.59,0
37.00,40.63,0
41.00,40.63,0
41.00,40.61,0
40.00,40.60,0
42.00,40.60,0
40.00,40.61,0
44.00,40.65,0
41.00,40.73,0
43.00,40.85,0
40.00,40.96,0
42.00,41.06,0
37.00,41.11,0
42.00,41.09,0
37.00,41.02,0
45.00,40.94,0
37.00,40.89,0
43.00,40.83,0
38.00,40.77,0
43.00,40.71,0
38.00,40.66,0
44.00,40.63,0
39.00,40.62,0
42.00,40.63,0
42.00,40.66,0
42.00,40.72,0
40.00,40.80,0
37.00,40.82,0
41.00,40.77,0
41.00,40.70,0
40.00,40.65,0
41.00,40.61,0
40.00,40.58,0
39.00,40.53,0
43.00,40.49,0
38.00,40.46,0
40.00,40.42,0
38.00,40.34,0
46.00,40.28,0
38.00,40.30,0
47.00,40.38,0
39.00,40.51,0
43.00,40.67,0
38.00,40.79,0
46.00,40.89,0
36.00,40.99,0
44.00,41.05,0
38.00,41.08,0
44.00,41.10,0
39.00,41.12,0
45.00,41.16,0
33.00,41.16,0
42.00,41.07,0
38.00,40.92,0
41.00,40.77,0
38.00,40.61,0
39.00,40.44,0
40.00,40.26,0
40.00,40.11,0
41.00,40.00,0
40.00,39.93,0
43.00,39.91,0
39.00,39.95,0
40.00,39.98,0
35.00,39.96,0
42.00,39.87,0
38.00,39.79,0
43.00,39.74,0
39.00,39.74,0
47.00,39.81,0
41.00,39.99,0
42.00,40.22,0
36.00,40.39,0
48.00,40.52,0
37.00,40.68,0
43.00,40.82,0
38.00,40.91,0
49.00,41.01,0
39.00,41.18,0
45.00,41.37,0
37.00,41.52,0
41.00,41.58,0
38.00,41.55,0
42.00,41.46,0
43.00,41.39,0
39.00,41.35,0
40.00,41.28,0
40.00,41.18,0
41.00,41.07,0
43.00,40.99,0
40.00,40.96,0
39.00,40.92,0
42.00,40.86,0
35.00,40.76,0
46.00,40.65,0
37.00,40.58,0
43.00,40.53,0
38.00,40.48,0
43.00,40.45,0
37.00,40.41,0
48.00,40.42,0
36.00,40.48,0
53.00,40.62,0
36.00,40.85,0
42.00,41.06,0
38.00,41.16,0
40.00,41.19,0
40.00,41.15,0
42.00,41.10,0
39.00,41.05,0
41.00,40.98,0
39.00,40.90,0
45.00,40.84,0
42.00,40.86,0
38.00,40.91,0
40.00,40.89,0
38.00,40.82,0
44.00,40.74,0
36.00,40.66,0
47.00,40.61,0
42.00,40.65,0
43.00,40.78,0
34.00,40.87,0
48.00,40.89,0
39.00,40.96,0
50.00,41.11,0
42.00,41.37,0
43.00,41.65,0
37.00,41.86,0
45.00,41.97,0
37.00,42.03,0
50.00,42.07,0
37.00,42.16,0
43.00,42.21,0
37.00,42.17,0
42.00,42.07,0
41.00,41.93,0
44.00,41.83,0
39.00,41.77,0
39.00,41.66,0
38.00,41.49,0
38.00,41.25,0
46.00,41.02,0
37.00,40.88,0
42.00,40.75,0
37.00,40.62,0
44.00,40.49,0
40.00,40.43,0
42.00,40.41,0
37.00,40.39,0
45.00,40.37,0
36.00,40.37,0
54.00,40.45,0
35.00,40.65,0
46.00,40.87,0
35.00,41.02,0
43.00,41.09,0
38.00,41.10,0
40.00,41.07,0
37.00,40.96,0
48.00,40.87,0
36.00,40.84,0
41.00,40.80,0
39.00,40.72,0
40.00,40.63,0
38.00,40.51,0
46.00,40.42,0
38.00,40.40,0
42.00,40.41,0
44.00,40.45,0
38.00,40.54,0
49.00,40.66,0
35.00,40.82,0
43.00,40.93,0
37.00,40.97,0
41.00,40.95,0
41.00,40.90,0
50.00,40.95,0
37.00,41.10,0
49.00,41.28,0
37.00,41.48,0
49.00,41.69,0
36.00,41.87,0
43.00,41.99,0
41.00,42.03,0
42.00,42.06,0
35.00,42.01,0
46.00,41.89,0
42.00,41.81,0
43.00,41.80,0
37.00,41.77,0
40.00,41.67,0
43.00,41.53,0
42.00,41.44,0
42.00,41.40,0
41.00,41.38,0
42.00,41.37,0
36.00,41.33,0
48.00,41.27,0
38.00,41.26,0
43.00,41.27,0
46.00,41.32,0
43.00,41.47,0
36.00,41.59,0
54.00,41.71,0
36.00,41.91,0
48.00,42.11,0
40.00,42.30,0
46.00,42.48,0
36.00,42.60,0
52.00,42.69,0
38.00,42.81,0
44.00,42.92,0
42.00,42.96,0
48.00,43.04,0
36.00,43.10,0
42.00,43.07,0
37.00,42.92,0
35.00,42.63,0
36.00,42.18,0
41.00,41.67,0
40.00,41.20,0
37.00,40.80,0
40.00,40.41,0
40.00,40.08,0
42.00,39.84,0
46.00,39.75,0
42.00,39.82,0
36.00,39.93,0
41.00,39.98,0
36.00,39.96,0
48.00,39.96,0
34.00,40.01,0
44.00,40.05,0
37.00,40.07,0
42.00,40.08,0
35.00,40.05,0
42.00,39.98,0
37.00,39.89,0
43.00,39.82,0
35.00,39.76,0
48.00,39.72,0
43.00,39.82,0
40.00,40.02,0
35.00,40.16,0
44.00,40.21,0
42.00,40.28,0
39.00,40.38,0
39.00,40.44,0
37.00,40.42,0
38.00,40.31,0
41.00,40.17,0
43.00,40.09,0
35.00,40.04,0
48.00,40.00,0
37.00,40.04,0
44.00,40.12,0
38.00,40.20,0
44.00,40.29,0
36.00,40.37,0
43.00,40.40,0
36.00,40.40,0
48.00,40.41,0
36.00,40.47,0
44.00,40.53,0
34.00,40.55,0
48.00,40.54,0
35.00,40.56,0
55.00,40.66,0
35.00,40.88,0
44.00,41.10,0
54.00,41.36,0
46.00,41.84,0
38.00,42.33,0
42.00,42.67,0
36.00,42.82,0
39.00,42.78,0
40.00,42.60,0
42.00,42.39,0
41.00,42.20,0
38.00,41.99,0
43.00,41.77,0
45.00,41.61,0
44.00,41.58,0
39.00,41.61,0
47.00,41.65,0
36.00,41.70,0
46.00,41.72,0
42.00,41.76,0
45.00,41.86,0
36.00,41.94,0
54.00,42.03,0
35.00,42.18,0
43.00,42.29,0
43.00,42.32,0
43.00,42.37,0
36.00,42.37,0
47.00,42.31,0
36.00,42.24,0
40.00,42.10,0
37.00,41.87,0
37.00,41.55,0
35.00,41.15,0
48.00,40.76,0
38.00,40.52,0
44.00,40.38,0
40.00,40.31,0
37.00,40.26,0
40.00,40.16,0
44.00,40.09,0
42.00,40.11,0
38.00,40.18,0
51.00,40.30,0
38.00,40.52,0
45.00,40.78,0
41.00,41.02,0
44.00,41.26,0
38.00,41.46,0
47.00,41.62,0
36.00,41.76,0
44.00,41.83,0
41.00,41.86,0
45.00,41.92,0
35.00,41.94,0
43.00,41.89,0
38.00,41.77,0
40.00,41.62,0
39.00,41.42,0
41.00,41.21,0
37.00,41.00,0
52.00,40.87,0
38.00,40.89,0
42.00,40.96,0
43.00,41.02,0
44.00,41.14,0
37.00,41.25,0
41.00,41.29,0
40.00,41.27,0
39.00,41.21,0
41.00,41.12,0
36.00,40.98,0
44.00,40.83,0
43.00,40.74,0
40.00,40.73,0
37.00,40.69,0
47.00,40.66,0
35.00,40.65,0
47.00,40.66,0
37.00,40.70,0
51.00,40.80,0
38.00,41.00,0
48.00,41.23,0
37.00,41.47,0
43.00,41.63,0
43.00,41.76,0
46.00,41.92,0
36.00,42.06,0
52.00,42.19,0
36.00,42.35,0
39.00,42.41,0
38.00,42.32,0
43.00,42.15,0
38.00,41.97,0
41.00,41.77,0
39.00,41.54,0
39.00,41.31,0
40.00,41.06,0
38.00,40.81,0
43.00,40.59,0
39.00,40.42,0
45.00,40.33,0
43.00,40.35,0
45.00,40.49,0
36.00,40.65,0
46.00,40.78,0
36.00,40.88,0
43.00,40.94,0
37.00,40.94,0
44.00,40.92,0
35.00,40.88,0
46.00,40.81,0
38.00,40.78,0
44.00,40.77,0
37.00,40.77,0
43.00,40.75,0
36.00,40.70,0
45.00,40.64,0
38.00,40.61,0
43.00,40.60,0
38.00,40.58,0
42.00,40.56,0
36.00,40.51,0
43.00,40.43,0
38.00,40.36,0
38.00,40.26,0
40.00,40.13,0
41.00,40.02,0
44.00,39.99,0
37.00,40.01,0
41.00,40.02,0
40.00,40.02,0
42.00,40.04,0
38.00,40.07,0
44.00,40.11,0
36.00,40.16,0
40.00,40.15,0
43.00,40.13,0
44.00,40.20,0
35.00,40.29,0
50.00,40.38,0
37.00,40.54,0
47.00,40.73,0
43.00,40.97,0
41.00,41.24,0
40.00,41.44,0
51.00,41.64,0
38.00,41.91,0
44.00,42.14,0
38.00,42.28,0
41.00,42.31,0
39.00,42.25,0
45.00,42.17,0
35.00,42.06,0
38.00,41.86,0
44.00,41.60,0
36.00,41.37,0
40.00,41.11,0
41.00,40.86,0
41.00,40.66,0
37.00,40.49,0
47.00,40.36,0
36.00,40.31,0
46.00,40.30,0
36.00,40.31,0
42.00,40.32,0
41.00,40.32,0
41.00,40.35,0
36.00,40.35,0
47.00,40.34,0
36.00,40.37,0
45.00,40.42,0
37.00,40.46,0
41.00,40.48,0
36.00,40.44,0
42.00,40.35,0
35.00,40.23,0
44.00,40.10,0
37.00,39.99,0
41.00,39.91,0
40.00,39.83,0
38.00,39.78,0
37.00,39.68,0
39.00,39.55,0
40.00,39.42,0
37.00,39.31,0
42.00,39.21,0
39.00,39.17,0
44.00,39.19,0
38.00,39.28,0
43.00,39.39,0
36.00,39.50,0
43.00,39.58,0
35.00,39.63,0
41.00,39.63,0
40.00,39.62,0
43.00,39.66,0
37.00,39.72,0
49.00,39.83,0
40.00,40.04,0
44.00,40.31,0
37.00,40.55,0
44.00,40.72,0
37.00,40.85,0
46.00,40.95,0
36.00,41.04,0
43.00,41.08,0
39.00,41.08,0
42.00,41.07,0
38.00,41.04,0
40.00,40.96,0
44.00,40.89,0
39.00,40.86,0
38.00,40.81,0
41.00,40.71,0
39.00,40.61,0
37.00,40.47,0
46.00,40.35,0
38.00,40.30,0
46.00,40.32,0
44.00,40.44,0
44.00,40.67,0
36.00,40.88,0
49.00,41.06,0
38.00,41.25,0
42.00,41.42,0
40.00,41.52,0
43.00,41.58,0
38.00,41.61,0
47.00,41.63,0
36.00,41.66,0
42.00,41.63,0
38.00,41.54,0
45.00,41.44,0
37.00,41.37,0
51.00,41.34,0
40.00,41.44,0
45.00,41.60,0
39.00,41.74,0
42.00,41.83,0
40.00,41.86,0
39.00,41.83,0
40.00,41.73,0
39.00,41.58,0
46.00,41.45,0
38.00,41.38,0
37.00,41.26,0
36.00,41.04,0
42.00,40.76,0
36.00,40.49,0
44.00,40.25,0
37.00,40.07,0
42.00,39.93,0
36.00,39.80,0
47.00,39.72,0
36.00,39.71,0
50.00,39.79,0
36.00,39.96,0
42.00,40.12,0
36.00,40.21,0
47.00,40.27,0
38.00,40.38,0
44.00,40.51,0
40.00,40.64,0
45.00,40.79,0
36.00,40.93,0
48.00,41.04,0
38.00,41.18,0
42.00,41.30,0
43.00,41.38,0
40.00,41.47,0
39.00,41.50,0
38.00,41.44,0
40.00,41.31,0
41.00,41.16,0
39.00,41.01,0
40.00,40.86,0
44.00,40.74,0
38.00,40.67,0
48.00,40.67,0
38.00,40.74,0
43.00,40.83,0
42.00,40.92,0
44.00,41.04,0
35.00,41.15,0
49.00,41.21,0
36.00,41.30,0
43.00,41.35,0
37.00,41.34,0
45.00,41.30,0
36.00,41.26,0
45.00,41.20,0
38.00,41.14,0
45.00,41.12,0
39.00,41.12,0
41.00,41.11,0
38.00,41.06,0
42.00,40.98,0
37.00,40.88,0
44.00,40.78,0
40.00,40.71,0
40.00,40.67,0
38.00,40.60,0
41.00,40.50,0
42.00,40.43,0
42.00,40.42,0
42.00,40.46,0
37.00,40.50,0
44.00,40.52,0
37.00,40.53,0
42.00,40.52,0
38.00,40.49,0
46.00,40.48,0
35.00,40.50,0
43.00,40.49,0
40.00,40.47,0
47.00,40.53,0
32.00,40.60,0
48.00,40.63,0
38.00,40.68,0
42.00,40.75,0
36.00,40.75,0
46.00,40.74,0
38.00,40.75,0
41.00,40.76,0
36.00,40.70,0
42.00,40.60,0
36.00,40.47,0
40.00,40.30,0
39.00,40.13,0
42.00,39.99,0
41.00,39.92,0
38.00,39.88,0
39.00,39.82,0
41.00,39.76,0
42.00,39.75,0
41.00,39.80,0
43.00,39.90,0
37.00,40.01,0
40.00,40.07,0
37.00,40.06,0
42.00,40.02,0
34.00,39.95,0
46.00,39.87,0
36.00,39.82,0
39.00,39.77,0
39.00,39.68,0
44.00,39.63,0
36.00,39.63,0
44.00,39.64,0
38.00,39.67,0
42.00,39.73,0
36.00,39.76,0
43.00,39.77,0
37.00,39.78,0
42.00,39.78,0
36.00,39.77,0
42.00,39.73,0
37.00,39.69,0
42.00,39.65,0
39.00,39.63,0
44.00,39.66,0
44.00,39.79,0
39.00,39.98,0
38.00,40.13,0
38.00,40.18,0
43.00,40.18,0
39.00,40.21,0
41.00,40.24,0
37.00,40.24,0
43.00,40.21,0
40.00,40.21,0
43.00,40.25,0
34.00,40.27,0
44.00,40.24,0
37.00,40.20,0
46.00,40.19,0
38.00,40.24,0
46.00,40.33,0
41.00,40.48,0
42.00,40.67,0
36.00,40.79,0
44.00,40.84,0
36.00,40.85,0
41.00,40.81,0
40.00,40.73,0
44.00,40.69,0
39.00,40.70,0
43.00,40.72,0
38.00,40.74,0
40.00,40.72,0
38.00,40.64,0
38.00,40.52,0
39.00,40.35,0
43.00,40.20,0
45.00,40.16,0
37.00,40.21,0
46.00,40.28,0
37.00,40.38,0
41.00,40.45,0
37.00,40.45,0
42.00,40.42,0
37.00,40.36,0
38.00,40.25,0
39.00,40.10,0
50.00,40.02,0
37.00,40.10,0
44.00,40.22,0
44.00,40.38,0
44.00,40.62,0
37.00,40.86,0
49.00,41.07,0
36.00,41.28,0
42.00,41.43,0
41.00,41.50,0
41.00,41.55,0
38.00,41.54,0
42.00,41.48,0
39.00,41.39,0
40.00,41.27,0
40.00,41.13,0
38.00,40.98,0
42.00,40.81,0
44.00,40.70,0
46.00,40.73,0
38.00,40.84,0
47.00,40.98,0
39.00,41.13,0
46.00,41.31,0
44.00,41.52,0
43.00,41.78,0
41.00,42.00,0
40.00,42.15,0
36.00,42.16,0
42.00,42.05,0
37.00,41.87,0
43.00,41.67,0
36.00,41.45,0
44.00,41.23,0
38.00,41.03,0
44.00,40.88,0
39.00,40.78,0
42.00,40.71,0
42.00,40.68,0
40.00,40.68,0
39.00,40.67,0
44.00,40.65,0
38.00,40.66,0
39.00,40.63,0
40.00,40.56,0
37.00,40.45,0
45.00,40.35,0
44.00,40.35,0
40.00,40.44,0
38.00,40.52,0
43.00,40.55,0
37.00,40.56,0
42.00,40.54,0
43.00,40.55,0
41.00,40.61,0
37.00,40.65,0
45.00,40.66,0
36.00,40.67,0
44.00,40.66,0
37.00,40.65,0
42.00,40.61,0
40.00,40.57,0
44.00,40.57,0
37.00,40.60,0
42.00,40.59,0
35.00,40.54,0
42.00,40.43,0
40.00,40.32,0
46.00,40.30,0
40.00,40.37,0
39.00,40.45,0
37.00,40.46,0
42.00,40.41,0
38.00,40.35,0
39.00,40.26,0
39.00,40.15,0
40.00,40.04,0
41.00,39.95,0
38.00,39.88,0
42.00,39.83,0
37.00,39.78,0
44.00,39.76,0
38.00,39.77,0
43.00,39.81,0
37.00,39.86,0
46.00,39.92,0
40.00,40.05,0
46.00,40.24,0
39.00,40.47,0
44.00,40.70,0
35.00,40.86,0
40.00,40.91,0
37.00,40.85,0
41.00,40.73,0
38.00,40.59,0
43.00,40.47,0
44.00,40.43,0
45.00,40.51,0
39.00,40.67,0
41.00,40.80,0
39.00,40.87,0
40.00,40.89,0
45.00,40.90,0
40.00,40.97,0
39.00,41.02,0
39.00,41.00,0
42.00,40.94,0
38.00,40.88,0
46.00,40.83,0
38.00,40.84,0
41.00,40.84,0
38.00,40.79,0
43.00,40.73,0
37.00,40.67,0
42.00,40.59,0
36.00,40.49,0
48.00,40.41,0
41.00,40.45,0
41.00,40.55,0
39.00,40.63,0
42.00,40.68,0
36.00,40.68,0
43.00,40.64,0
37.00,40.57,0
46.00,40.53,0
38.00,40.54,0
41.00,40.55,0
41.00,40.55,0
40.00,40.56,0
38.00,40.54,0
41.00,40.48,0
39.00,40.41,0
39.00,40.32,0
46.00,40.27,0
36.00,40.29,0
39.00,40.26,0
35.00,40.14,0
41.00,39.97,0
37.00,39.79,0
42.00,39.63,0
40.00,39.53,0
44.00,39.52,0
32.00,39.53,0
45.00,39.49,0
36.00,39.47,0
46.00,39.49,0
36.00,39.56,0
43.00,39.63,0
41.00,39.72,0
43.00,39.87,0
37.00,40.02,0
53.00,40.21,0
38.00,40.53,0
41.00,40.83,0
40.00,41.03,0
42.00,41.18,0
38.00,41.27,0
44.00,41.31,0
38.00,41.33,0
42.00,41.32,0
40.00,41.28,0
43.00,41.25,0
40.00,41.24,0
46.00,41.26,0
39.00,41.33,0
39.00,41.36,0
38.00,41.30,0
36.00,41.14,0
40.00,40.89,0
38.00,40.63,0
44.00,40.41,0
36.00,40.24,0
42.00,40.09,0
36.00,39.94,0
42.00,39.80,0
41.00,39.70,0
47.00,39.73,0
38.00,39.87,0
47.00,40.06,0
41.00,40.31,0
41.00,40.57,0
36.00,40.74,0
52.00,40.89,0
38.00,41.12,0
40.00,41.33,0
38.00,41.41,0
40.00,41.39,0
42.00,41.33,0
38.00,41.25,0
39.00,41.13,0
40.00,40.97,0
38.00,40.78,0
40.00,40.59,0
42.00,40.42,0
36.00,40.28,0
38.00,40.09,0
41.00,39.89,0
41.00,39.75,0
38.00,39.66,0
49.00,39.65,0
36.00,39.76,0
43.00,39.88,0
39.00,39.98,0
43.00,40.10,0
42.00,40.24,0
45.00,40.44,0
35.00,40.63,0
41.00,40.72,0
38.00,40.73,0
41.00,40.69,0
41.00,40.65,0
45.00,40.66,0
38.00,40.72,0
49.00,40.83,0
38.00,41.00,0
42.00,41.15,0
41.00,41.25,0
39.00,41.32,0
40.00,41.31,0
40.00,41.25,0
40.00,41.17,0
40.00,41.07,0
43.00,40.98,0
37.00,40.90,0
44.00,40.83,0
39.00,40.77,0
42.00,40.74,0
38.00,40.70,0
42.00,40.64,0
37.00,40.57,0
47.00,40.52,0
39.00,40.55,0
44.00,40.63,0
42.00,40.74,0
42.00,40.89,0
38.00,41.00,0
46.00,41.09,0
36.00,41.17,0
45.00,41.21,0
38.00,41.24,0
43.00,41.25,0
43.00,41.28,0
44.00,41.36,0
40.00,41.48,0
41.00,41.55,0
42.00,41.59,0
38.00,41.59,0
38.00,41.51,0
44.00,41.38,0
41.00,41.29,0
39.00,41.22,0
43.00,41.15,0
43.00,41.12,0
44.00,41.17,0
36.00,41.22,0
43.00,41.22,0
41.00,41.20,0
44.00,41.22,0
36.00,41.23,0
48.00,41.24,0
38.00,41.28,0
44.00,41.34,0
38.00,41.37,0
49.00,41.43,0
37.00,41.53,0
40.00,41.58,0
39.00,41.53,0
44.00,41.46,0
32.00,41.36,0
40.00,41.13,0
36.00,40.82,0
40.00,40.49,0
38.00,40.18,0
43.00,39.93,0
38.00,39.75,0
39.00,39.61,0
43.00,39.51,0
38.00,39.48,0
41.00,39.47,0
45.00,39.52,0
46.00,39.71,0
42.00,40.03,0
45.00,40.39,0
36.00,40.72,0
40.00,40.92,0
38.00,40.99,0
42.00,41.00,0
35.00,40.95,0
42.00,40.83,0
35.00,40.66,0
46.00,40.49,0
36.00,40.37,0
46.00,40.30,0
36.00,40.27,0
43.00,40.25,0
36.00,40.21,0
49.00,40.20,0
37.00,40.28,0
43.00,40.39,0
42.00,40.49,0
45.00,40.65,0
36.00,40.82,0
43.00,40.92,0
38.00,40.97,0
45.00,41.00,0
39.00,41.06,0
40.00,41.09,0
37.00,41.04,0
38.00,40.90,0
39.00,40.70,0
37.00,40.47,0
42.00,40.24,0
40.00,40.06,0
40.00,39.94,0
36.00,39.82,0
42.00,39.68,0
38.00,39.57,0
42.00,39.51,0
40.00,39.49,0
41.00,39.51,0
34.00,39.51,0
49.00,39.52,0
34.00,39.58,0
46.00,39.67,0
41.00,39.81,0
40.00,39.99,0
36.00,40.09,0
42.00,40.12,0
37.00,40.12,0
47.00,40.13,0
40.00,40.23,0
41.00,40.37,0
42.00,40.49,0
44.00,40.64,0
36.00,40.78,0
43.00,40.86,0
39.00,40.90,0
40.00,40.90,0
41.00,40.88,0
41.00,40.85,0
42.00,40.85,0
40.00,40.86,0
40.00,40.85,0
42.00,40.84,0
42.00,40.85,0
37.00,40.85,0
48.00,40.86,0
37.00,40.92,0
43.00,40.98,0
39.00,41.01,0
44.00,41.04,0
38.00,41.07,0
46.00,41.10,0
37.00,41.15,0
43.00,41.17,0
41.00,41.19,0
42.00,41.22,0
39.00,41.23,0
44.00,41.23,0
37.00,41.23,0
38.00,41.15,0
42.00,41.01,0
41.00,40.90,0
38.00,40.80,0
43.00,40.70,0
39.00,40.62,0
41.00,40.56,0
43.00,40.53,0
40.00,40.54,0
40.00,40.56,0
48.00,40.63,0
40.00,40.78,0
38.00,40.93,0
44.00,41.01,0
38.00,41.07,0
43.00,41.10,0
39.00,41.12,0
44.00,41.13,0
35.00,41.12,0
48.00,41.10,0
36.00,41.10,0
42.00,41.08,0
46.00,41.08,0
45.00,41.20,0
37.00,41.36,0
47.00,41.48,0
40.00,41.62,0
47.00,41.79,0
40.00,41.97,0
44.00,42.14,0
36.00,42.22,0
40.00,42.18,0
36.00,42.02,0
41.00,41.77,0
41.00,41.51,0
42.00,41.30,0
39.00,41.14,0
42.00,40.99,0
42.00,40.89,0
41.00,40.84,0
45.00,40.85,0
38.00,40.90,0
42.00,40.94,0
42.00,40.97,0
44.00,41.04,0
36.00,41.11,0
47.00,41.15,0
37.00,41.20,0
44.00,41.24,0
42.00,41.29,0
44.00,41.38,0
36.00,41.46,0
52.00,41.53,0
37.00,41.68,0
44.00,41.82,0
41.00,41.91,0
42.00,41.99,0
37.00,41.99,0
50.00,41.98,0
38.00,42.03,0
42.00,42.07,0
37.00,42.02,0
40.00,41.89,0
37.00,41.67,0
50.00,41.48,0
40.00,41.43,0
40.00,41.43,0
44.00,41.41,0
40.00,41.42,0
40.00,41.41,0
41.00,41.37,0
40.00,41.30,0
36.00,41.19,0
44.00,41.03,0
37.00,40.88,0
41.00,40.73,0
40.00,40.58,0
43.00,40.48,0
36.00,40.41,0
46.00,40.35,0
38.00,40.34,0
47.00,40.40,0
38.00,40.51,0
41.00,40.61,0
41.00,40.68,0
48.00,40.80,0
37.00,40.98,0
47.00,41.16,0
36.00,41.31,0
41.00,41.39,0
37.00,41.36,0
43.00,41.27,0
37.00,41.16,0
40.00,41.02,0
38.00,40.84,0
39.00,40.63,0
41.00,40.42,0
38.00,40.24,0
40.00,40.08,0
40.00,39.93,0
43.00,39.85,0
37.00,39.81,0
43.00,39.79,0
35.00,39.77,0
42.00,39.72,0
40.00,39.68,0
41.00,39.68,0
37.00,39.69,0
48.00,39.73,0
36.00,39.84,0
44.00,39.97,0
42.00,40.11,0
43.00,40.31,0
38.00,40.50,0
44.00,40.65,0
41.00,40.80,0
42.00,40.96,0
37.00,41.06,0
43.00,41.09,0
36.00,41.07,0
44.00,41.02,0
38.00,40.96,0
42.00,40.89,0
40.00,40.84,0
44.00,40.81,0
39.00,40.83,0
44.00,40.86,0
39.00,40.90,0
40.00,40.93,0
41.00,40.91,0
39.00,40.88,0
43.00,40.84,0
38.00,40.81,0
42.00,40.77,0
36.00,40.69,0
43.00,40.59,0
40.00,40.51,0
41.00,40.46,0
37.00,40.40,0
45.00,40.34,0
35.00,40.31,0
48.00,40.29,0
38.00,40.34,0
42.00,40.42,0
42.00,40.50,0
45.00,40.64,0
40.00,40.82,0
47.00,41.03,0
36.00,41.24,0
42.00,41.36,0
38.00,41.40,0
41.00,41.37,0
39.00,41.29,0
42.00,41.20,0
42.00,41.13,0
44.00,41.12,0
42.00,41.18,0
35.00,41.21,0
40.00,41.12,0
42.00,41.00,0
44.00,40.93,0
35.00,40.90,0
42.00,40.80,0
36.00,40.66,0
44.00,40.52,0
41.00,40.44,0
44.00,40.44,0
36.00,40.47,0
41.00,40.45,0
37.00,40.38,0
52.00,40.37,0
36.00,40.50,0
42.00,40.62,0
36.00,40.67,0
40.00,40.63,0
36.00,40.51,0
42.00,40.35,0
39.00,40.22,0
39.00,40.10,0
39.00,39.97,0
40.00,39.85,0
43.00,39.78,0
42.00,39.80,0
40.00,39.88,0
41.00,39.97,0
40.00,40.05,0
39.00,40.12,0
46.00,40.19,0
36.00,40.30,0
42.00,40.38,0
35.00,40.38,0
43.00,40.33,0
41.00,40.29,0
44.00,40.33,0
37.00,40.40,0
47.00,40.48,0
40.00,40.61,0
47.00,40.81,0
38.00,41.03,0
46.00,41.24,0
36.00,41.41,0
53.00,41.58,0
37.00,41.82,0
42.00,42.01,0
38.00,42.08,0
43.00,42.08,0
38.00,42.02,0
40.00,41.90,0
36.00,41.70,0
38.00,41.41,0
43.00,41.10,0
36.00,40.83,0
41.00,40.56,0
44.00,40.36,0
40.00,40.26,0
36.00,40.18,0
42.00,40.07,0
36.00,39.94,0
40.00,39.80,0
40.00,39.66,0
45.00,39.61,0
39.00,39.67,0
43.00,39.77,0
36.00,39.86,0
52.00,39.99,0
36.00,40.22,0
43.00,40.45,0
40.00,40.63,0
45.00,40.80,0
36.00,40.96,0
49.00,41.10,0
35.00,41.24,0
43.00,41.33,0
49.00,41.43,0
44.00,41.67,0
43.00,41.96,0
44.00,42.23,0
42.00,42.47,0
38.00,42.62,0
43.00,42.66,0
42.00,42.65,0
39.00,42.60,0
37.00,42.45,0
41.00,42.21,0
37.00,41.93,0
44.00,41.63,0
37.00,41.37,0
43.00,41.14,0
41.00,40.96,0
48.00,40.89,0
36.00,40.93,0
56.00,41.05,0
36.00,41.31,0
47.00,41.59,0
38.00,41.81,0
44.00,41.98,0
37.00,42.07,0
47.00,42.10,0
36.00,42.12,0
45.00,42.10,0
39.00,42.05,0
40.00,41.97,0
37.00,41.82,0
42.00,41.60,0
39.00,41.39,0
45.00,41.22,0
39.00,41.12,0
42.00,41.04,0
43.00,41.00,0
39.00,41.00,0
40.00,40.97,0
45.00,40.95,0
40.00,40.98,0
40.00,41.02,0
53.00,41.12,0
36.00,41.34,0
41.00,41.52,0
38.00,41.57,0
45.00,41.57,0
38.00,41.57,0
51.00,41.61,0
37.00,41.73,0
40.00,41.81,0
44.00,41.82,0
42.00,41.85,0
36.00,41.84,0
50.00,41.81,0
35.00,41.81,0
39.00,41.75,0
42.00,41.60,0
44.00,41.49,0
38.00,41.43,0
39.00,41.32,0
41.00,41.18,0
41.00,41.04,0
37.00,40.91,0
39.00,40.72,0
44.00,40.55,0
43.00,40.48,0
43.00,40.53,0
37.00,40.59,0
44.00,40.63,0
32.00,40.61,0
49.00,40.56,0
35.00,40.53,0
41.00,40.50,0
40.00,40.43,0
43.00,40.40,0
37.00,40.39,0
55.00,40.47,0
39.00,40.73,0
43.00,41.03,0
42.00,41.29,0
46.00,41.55,0
36.00,41.78,0
47.00,41.93,0
36.00,42.04,0
44.00,42.08,0
36.00,42.03,0
43.00,41.93,0
37.00,41.77,0
46.00,41.62,0
36.00,41.50,0
40.00,41.33,0
40.00,41.13,0
38.00,40.93,0
36.00,40.67,0
42.00,40.39,0
40.00,40.16,0
40.00,40.00,0
45.00,39.92,0
37.00,39.92,0
43.00,39.94,0
37.00,39.96,0
42.00,39.96,0
37.00,39.95,0
45.00,39.95,0
36.00,39.98,0
48.00,40.04,0
39.00,40.18,0
50.00,40.41,0
37.00,40.70,0
43.00,40.96,0
36.00,41.12,0
44.00,41.19,0
36.00,41.20,0
53.00,41.25,0
35.00,41.38,0
47.00,41.52,0
43.00,41.68,0
42.00,41.86,0
36.00,41.97,0
49.00,42.01,0
37.00,42.06,0
37.00,42.03,0
42.00,41.89,0
41.00,41.73,0
40.00,41.59,0
43.00,41.46,0
40.00,41.36,0
38.00,41.25,0
47.00,41.15,0
37.00,41.11,0
41.00,41.06,0
38.00,40.97,0
44.00,40.87,0
36.00,40.78,0
47.00,40.71,0
35.00,40.68,0
44.00,40.64,0
36.00,40.58,0
41.00,40.49,0
36.00,40.36,0
48.00,40.26,0
36.00,40.23,0
42.00,40.22,0
39.00,40.20,0
44.00,40.21,0
42.00,40.29,0
43.00,40.43,0
40.00,40.58,0
44.00,40.74,0
37.00,40.88,0
41.00,40.94,0
42.00,40.97,0
41.00,41.01,0
38.00,41.02,0
38.00,40.96,0
44.00,40.86,0
40.00,40.81,0
44.00,40.81,0
36.00,40.81,0
45.00,40.80,0
42.00,40.83,0
48.00,40.96,0
31.00,41.11,0
47.00,41.16,0
34.00,41.15,0
42.00,41.08,0
37.00,40.95,0
45.00,40.82,0
40.00,40.76,0
48.00,40.80,0
41.00,40.94,0
54.00,41.21,0
37.00,41.60,0
42.00,41.92,0
43.00,42.13,0
37.00,42.27,0
41.00,42.27,0
49.00,42.27,0
36.00,42.32,0
38.00,42.27,0
46.00,42.14,0
37.00,42.03,0
44.00,41.91,0
49.00,41.88,0
40.00,41.97,0
37.00,42.02,0
50.00,42.03,0
36.00,42.08,0
48.00,42.13,0
40.00,42.19,0
43.00,42.26,0
36.00,42.26,0
55.00,42.26,0
35.00,42.36,0
46.00,42.45,0
35.00,42.46,0
44.00,42.38,0
36.00,42.23,0
50.00,42.10,0
36.00,42.02,0
44.00,41.95,0
38.00,41.85,0
45.00,41.75,0
36.00,41.65,0
44.00,41.52,0
41.00,41.42,0
38.00,41.33,0
47.00,41.25,0
38.00,41.23,0
39.00,41.19,0
41.00,41.10,0
37.00,40.97,0
36.00,40.77,0
40.00,40.50,0
38.00,40.23,0
39.00,39.98,0
37.00,39.72,0
43.00,39.51,0
44.00,39.42,0
41.00,39.47,0
36.00,39.54,0
53.00,39.66,0
36.00,39.92,0
42.00,40.17,0
39.00,40.35,0
50.00,40.55,0
36.00,40.81,0
48.00,41.07,0
38.00,41.31,0
49.00,41.56,0
44.00,41.86,0
44.00,42.20,0
34.00,42.43,0
42.00,42.49,0
38.00,42.41,0
40.00,42.25,0
46.00,42.09,0
36.00,41.97,0
38.00,41.77,0
51.00,41.59,0
38.00,41.55,0
39.00,41.52,0
44.00,41.44,0
36.00,41.36,0
43.00,41.25,0
43.00,41.16,0
43.00,41.16,0
40.00,41.19,0
57.00,41.34,0
35.00,41.65,0
40.00,41.88,0
42.00,41.98,0
46.00,42.07,0
38.00,42.17,0
59.00,42.34,0
38.00,42.68,0
45.00,43.02,0
36.00,43.21,0
44.00,43.26,0
36.00,43.19,0
61.00,43.17,0
36.00,43.33,0
42.00,43.47,0
38.00,43.44,0
44.00,43.32,0
36.00,43.14,0
38.00,42.85,0
42.00,42.48,0
40.00,42.14,0
38.00,41.81,0
38.00,41.45,0
43.00,41.10,0
39.00,40.82,0
39.00,40.59,0
35.00,40.32,0
44.00,40.05,0
36.00,39.84,0
49.00,39.72,0
37.00,39.73,0
45.00,39.81,0
35.00,39.90,0
49.00,40.00,0
36.00,40.15,0
49.00,40.35,0
35.00,40.56,0
50.00,40.77,0
43.00,41.06,0
37.00,41.35,0
36.00,41.47,0
51.00,41.51,0
36.00,41.61,0
41.00,41.67,0
44.00,41.67,0
44.00,41.72,0
35.00,41.77,0
54.00,41.81,0
37.00,41.94,0
40.00,42.05,0
41.00,42.04,0
42.00,42.00,0
38.00,41.94,0
42.00,41.82,0
41.00,41.69,0
37.00,41.55,0
41.00,41.36,0
38.00,41.14,0
43.00,40.94,0
34.00,40.74,0
43.00,40.51,0
35.00,40.28,0
45.00,40.08,0
37.00,39.94,0
43.00,39.86,0
36.00,39.79,0
46.00,39.75,0
36.00,39.76,0
43.00,39.79,0
37.00,39.81,0
46.00,39.85,0
34.00,39.91,0
40.00,39.92,0
37.00,39.85,0
42.00,39.77,0
41.00,39.73,0
39.00,39.73,0
40.00,39.74,0
42.00,39.76,0
35.00,39.77,0
38.00,39.71,0
40.00,39.60,0
38.00,39.49,0
44.00,39.43,0
38.00,39.43,0
41.00,39.46,0
34.00,39.45,0
56.00,39.50,0
36.00,39.74,0
47.00,40.06,0
41.00,40.39,0
42.00,40.71,0
36.00,40.95,0
56.00,41.18,0
40.00,41.54,0
44.00,41.93,0
42.00,42.25,0
48.00,42.55,0
35.00,42.80,0
54.00,43.00,0
38.00,43.22,0
48.00,43.43,0
37.00,43.57,0
41.00,43.58,0
34.00,43.42,0
46.00,43.14,0
37.00,42.84,0
39.00,42.52,0
42.00,42.16,0
41.00,41.86,0
37.00,41.57,0
40.00,41.26,0
35.00,40.91,0
36.00,40.50,0
38.00,40.05,0
36.00,39.61,0
40.00,39.20,0
36.00,38.85,0
42.00,38.57,0
36.00,38.38,0
46.00,38.28,0
35.00,38.29,0
42.00,38.33,0
36.00,38.38,0
45.00,38.47,0
39.00,38.62,0
50.00,38.90,0
35.00,39.26,0
51.00,39.65,0
36.00,40.06,0
40.00,40.40,0
40.00,40.61,0
39.00,40.75,0
37.00,40.78,0
49.00,40.80,0
37.00,40.88,0
44.00,40.98,0
41.00,41.07,0
38.00,41.13,0
37.00,41.09,0
36.00,40.93,0
41.00,40.69,0
46.00,40.52,0
38.00,40.46,0
37.00,40.39,0
42.00,40.28,0
36.00,40.16,0
48.00,40.08,0
36.00,40.08,0
41.00,40.09,0
34.00,40.03,0
46.00,39.94,0
40.00,39.92,0
46.00,40.01,0
36.00,40.14,0
46.00,40.27,0
34.00,40.38,0
46.00,40.45,0
38.00,40.52,0
48.00,40.63,0
35.00,40.78,0
51.00,40.93,0
36.00,41.13,0
54.00,41.38,0
41.00,41.73,0
46.00,42.12,0
36.00,42.43,0
44.00,42.59,0
38.00,42.65,0
43.00,42.63,0
50.00,42.64,0
43.00,42.78,0
44.00,42.95,0
45.00,43.12,0
36.00,43.23,0
35.00,43.14,0
55.00,42.98,0
39.00,42.95,0
43.00,42.97,0
40.00,42.93,0
46.00,42.87,0
36.00,42.80,0
60.00,42.80,0
35.00,42.97,0
46.00,43.13,0
35.00,43.16,0
48.00,43.11,0
36.00,43.03,0
60.00,43.04,0
36.00,43.21,0
38.00,43.31,0
40.00,43.22,0
45.00,43.06,0
37.00,42.90,0
53.00,42.78,0
37.00,42.76,0
42.00,42.73,0
41.00,42.64,0
38.00,42.49,0
44.00,42.31,0
43.00,42.16,0
40.00,42.07,0
51.00,42.04,0
37.00,42.11,0
35.00,42.09,0
46.00,41.95,0
35.00,41.80,0
45.00,41.63,0
34.00,41.43,0
52.00,41.28,0
39.00,41.27,0
58.00,41.44,0
39.00,41.81,0
42.00,42.18,0
40.00,42.41,0
49.00,42.60,0
35.00,42.76,0
52.00,42.89,0
37.00,43.02,0
45.00,43.11,0
41.00,43.14,0
50.00,43.21,0
38.00,43.30,0
56.00,43.45,0
40.00,43.70,0
40.00,43.89,0
52.00,44.01,0
38.00,44.15,0
36.00,44.16,0
54.00,44.05,0
40.00,44.04,0
33.00,43.96,0
41.00,43.65,0
40.00,43.26,0
38.00,42.84,0
38.00,42.39,0
40.00,41.91,0
35.00,41.42,0
49.00,41.00,0
40.00,40.75,0
45.00,40.66,0
40.00,40.64,0
48.00,40.72,0
35.00,40.84,0
46.00,40.94,0
34.00,41.00,0
48.00,41.02,0
42.00,41.10,0
53.00,41.34,0
36.00,41.67,0
48.00,41.97,0
35.00,42.19,0
43.00,42.30,0
52.00,42.41,0
41.00,42.65,0
35.00,42.81,0
56.00,42.90,0
38.00,43.08,0
38.00,43.20,0
57.00,43.27,0
38.00,43.47,0
40.00,43.61,0
38.00,43.57,0
40.00,43.38,0
38.00,43.10,0
58.00,42.90,0
36.00,42.90,0
43.00,42.91,0
44.00,42.87,0
45.00,42.88,0
35.00,42.86,0
54.00,42.83,0
36.00,42.87,0
41.00,42.87,0
36.00,42.72,0
48.00,42.52,0
35.00,42.34,0
63.00,42.31,0
36.00,42.51,0
47.00,42.76,0
37.00,42.92,0
44.00,42.99,0
35.00,42.94,0
45.00,42.80,0
34.00,42.59,0
39.00,42.28,0
41.00,41.91,0
39.00,41.57,0
37.00,41.22,0
41.00,40.87,0
36.00,40.53,0
36.00,40.16,0
37.00,39.75,0
36.00,39.34,0
41.00,38.96,0
44.00,38.72,0
42.00,38.68,0
35.00,38.72,0
40.00,38.72,0
36.00,38.69,0
50.00,38.73,0
36.00,38.90,0
42.00,39.10,0
42.00,39.30,0
50.00,39.60,0
36.00,40.00,0
62.00,40.50,0
34.00,41.14,0
46.00,41.73,0
52.00,42.26,0
57.00,42.99,0
35.00,43.78,0
58.00,44.46,0
36.00,45.05,0
36.00,45.39,0
38.00,45.35,0
41.00,45.08,0
40.00,44.71,0
46.00,44.33,0
38.00,43.99,0
36.00,43.57,0
45.00,43.10,0
37.00,42.66,0
40.00,42.23,0
43.00,41.83,0
50.00,41.60,0
37.00,41.54,0
51.00,41.56,0
36.00,41.66,0
45.00,41.74,0
36.00,41.76,0
46.00,41.74,0
35.00,41.69,0
54.00,41.68,0
35.00,41.77,0
66.00,42.03,0
35.00,42.50,0
58.00,43.07,0
40.00,43.65,0
50.00,44.20,0
35.00,44.61,0
49.00,44.84,0
36.00,44.92,0
44.00,44.87,0
40.00,44.70,0
39.00,44.44,0
37.00,44.05,0
39.00,43.56,0
37.00,43.00,0
36.00,42.39,0
41.00,41.76,0
34.00,41.16,0
42.00,40.59,0
40.00,40.12,0
46.00,39.83,0
38.00,39.69,0
44.00,39.65,0
36.00,39.65,0
59.00,39.78,0
36.00,40.13,0
48.00,40.55,0
38.00,40.94,0
55.00,41.36,0
36.00,41.83,0
48.00,42.25,0
35.00,42.55,0
50.00,42.76,0
35.00,42.92,0
46.00,42.99,0
36.00,42.97,0
56.00,42.97,0
37.00,43.08,0
40.00,43.14,0
45.00,43.10,0
39.00,43.04,0
35.00,42.88,0
42.00,42.59,0
37.00,42.25,0
35.00,41.84,0
40.00,41.36,0
36.00,40.88,0
38.00,40.40,0
39.00,39.95,0
47.00,39.63,0
34.00,39.46,0
52.00,39.41,0
36.00,39.50,0
49.00,39.70,0
38.00,39.95,0
52.00,40.29,0
35.00,40.68,0
51.00,41.06,0
36.00,41.42,0
53.00,41.78,0
36.00,42.15,0
50.00,42.48,0
39.00,42.77,0
50.00,43.05,0
41.00,43.33,0
47.00,43.58,0
33.00,43.73,0
42.00,43.67,0
36.00,43.45,0
40.00,43.12,0
32.00,42.66,0
45.00,42.14,0
42.00,41.70,0
36.00,41.36,0
37.00,40.97,0
40.00,40.57,0
40.00,40.21,0
44.00,39.97,0
48.00,39.93,0
36.00,40.02,0
62.00,40.28,0
39.00,40.78,0
53.00,41.42,0
46.00,42.10,0
49.00,42.84,0
38.00,43.49,0
68.00,44.13,0
38.00,44.92,0
57.00,45.69,0
45.00,46.39,0
39.00,46.93,0
36.00,47.10,0
63.00,47.11,0
34.00,47.18,0
52.00,47.18,0
40.00,47.10,0
44.00,46.93,0
35.00,46.60,0
43.00,46.10,0
36.00,45.50,0
34.00,44.76,0
38.00,43.90,0
36.00,43.00,0
37.00,42.11,0
38.00,41.26,0
36.00,40.49,0
37.00,39.77,0
53.00,39.26,0
35.00,39.05,0
42.00,38.96,0
51.00,39.00,0
45.00,39.31,0
35.00,39.70,0
67.00,40.19,0
35.00,40.92,0
42.00,41.60,0
41.00,42.06,0
53.00,42.49,0
37.00,42.93,0
60.00,43.39,0
36.00,43.90,0
48.00,44.32,0
39.00,44.59,0
50.00,44.78,0
35.00,44.88,0
41.00,44.80,0
35.00,44.51,0
50.00,44.15,0
36.00,43.83,0
39.00,43.47,0
35.00,42.99,0
43.00,42.46,0
37.00,41.96,0
35.00,41.45,0
46.00,40.96,0
35.00,40.57,0
48.00,40.28,0
39.00,40.14,0
42.00,40.10,0
35.00,40.04,0
49.00,40.01,0
38.00,40.07,0
44.00,40.20,0
38.00,40.32,0
59.00,40.55,0
36.00,40.98,0
52.00,41.46,0
36.00,41.91,0
43.00,42.24,0
40.00,42.44,0
52.00,42.63,0
46.00,42.94,0
46.00,43.33,0
38.00,43.65,0
84.00,44.15,0
38.00,45.09,0
50.00,46.05,0
54.00,46.84,0
48.00,47.60,0
35.00,48.14,0
70.00,48.50,0
43.00,48.98,0
36.00,49.32,0
69.00,49.46,0
37.00,49.68,0
39.00,49.71,0
46.00,49.41,0
39.00,48.96,0
38.00,48.34,0
61.00,47.72,0
42.00,47.34,0
48.00,47.09,0
40.00,46.80,0
52.00,46.53,0
36.00,46.27,0
57.00,46.04,0
38.00,45.90,0
56.00,45.83,0
42.00,45.86,0
66.00,46.06,0
39.00,46.46,0
50.00,46.82,0
38.00,47.02,0
71.00,47.24,0
36.00,47.63,0
45.00,47.90,0
42.00,47.92,0
43.00,47.77,0
36.00,47.42,0
42.00,46.89,0
36.00,46.23,0
45.00,45.51,0
44.00,44.86,0
43.00,44.34,0
40.00,43.88,0
36.00,43.40,0
45.00,42.90,0
37.00,42.44,0
48.00,42.07,0
32.00,41.77,0
40.00,41.41,0
36.00,40.99,0
55.00,40.70,0
41.00,40.68,0
60.00,40.95,0
37.00,41.44,0
59.00,42.04,0
36.00,42.68,0
57.00,43.32,0
38.00,43.92,0
52.00,44.45,0
40.00,44.90,0
54.00,45.28,0
40.00,45.64,0
66.00,46.05,0
37.00,46.57,0
37.00,46.89,0
36.00,46.79,0
40.00,46.41,0
38.00,45.85,0
47.00,45.25,0
39.00,44.72,0
60.00,44.37,0
42.00,44.29,0
39.00,44.29,0
68.00,44.37,0
38.00,44.73,0
49.00,45.12,0
38.00,45.36,0
49.00,45.49,0
37.00,45.51,0
54.00,45.48,0
40.00,45.49,0
45.00,45.47,0
43.00,45.38,0
44.00,45.26,0
34.00,45.03,0
56.00,44.76,0
35.00,44.57,0
54.00,44.44,0
44.00,44.42,0
58.00,44.59,0
36.00,44.86,0
59.00,45.15,0
36.00,45.44,0
36.00,45.55,0
49.00,45.42,0
40.00,45.26,0
40.00,45.04,0
51.00,44.79,0
35.00,44.59,0
39.00,44.28,0
48.00,43.92,0
40.00,43.63,0
40.00,43.36,0
44.00,43.08,0
49.00,42.90,0
34.00,42.80,0
71.00,42.87,0
40.00,43.29,0
44.00,43.79,0
47.00,44.17,0
61.00,44.64,0
43.00,45.28,0
48.00,45.88,0
39.00,46.29,0
53.00,46.55,0
39.00,46.73,0
52.00,46.84,0
36.00,46.85,0
60.00,46.83,0
36.00,46.85,0
64.00,46.94,0
36.00,47.11,0
36.00,47.10,0
41.00,46.76,0
44.00,46.30,0
36.00,45.78,0
41.00,45.17,0
36.00,44.49,0
43.00,43.78,0
36.00,43.11,0
38.00,42.43,0
59.00,41.93,0
35.00,41.74,0
48.00,41.69,0
36.00,41.65,0
42.00,41.58,0
44.00,41.50,0
52.00,41.58,0
39.00,41.81,0
87.00,42.40,0
46.00,43.59,0
66.00,45.08,0
46.00,46.57,0
52.00,47.90,0
36.00,48.87,0
76.00,49.64,0
37.00,50.45,0
48.00,51.03,0
44.00,51.24,0
35.00,51.13,0
38.00,50.60,0
40.00,49.77,0
41.00,48.81,0
72.00,48.06,0
36.00,47.74,0
39.00,47.43,0
41.00,46.90,0
38.00,46.26,0
63.00,45.74,0
46.00,45.57,0
44.00,45.58,0
39.00,45.51,0
58.00,45.44,0
37.00,45.47,0
53.00,45.52,0
43.00,45.60,0
85.00,45.99,0
45.00,46.92,0
65.00,48.05,0
46.00,49.16,0
53.00,50.11,0
51.00,50.85,0
46.00,51.39,0
35.00,51.57,0
62.00,51.48,0
34.00,51.30,0
44.00,50.90,0
40.00,50.26,0
58.00,49.61,0
36.00,49.07,0
41.00,48.44,0
36.00,47.64,0
54.00,46.84,0
40.00,46.19,0
38.00,45.60,0
65.00,45.14,0
35.00,44.98,0
48.00,44.88,0
46.00,44.78,0
44.00,44.75,0
36.00,44.65,0
55.00,44.51,0
36.00,44.44,0
51.00,44.39,0
43.00,44.38,0
52.00,44.46,0
47.00,44.66,0
56.00,45.01,0
39.00,45.42,0
69.00,45.91,0
36.00,46.52,0
52.00,47.05,0
53.00,47.49,0
41.00,47.89,0
36.00,48.03,0
75.00,48.10,0
40.00,48.44,0
42.00,48.72,0
47.00,48.74,0
34.00,48.54,0
43.00,48.10,0
55.00,47.62,0
40.00,47.27,0
37.00,46.87,0
73.00,46.56,0
38.00,46.61,0
39.00,46.67,0
45.00,46.50,0
45.00,46.27,0
41.00,46.02,0
50.00,45.77,0
39.00,45.56,0
55.00,45.40,0
59.00,45.50,0
39.00,45.83,0
38.00,46.01,0
62.00,46.08,0
35.00,46.25,0
58.00,46.41,0
48.00,46.65,0
66.00,47.11,0
36.00,47.68,0
54.00,48.13,0
39.00,48.39,0
45.00,48.45,0
43.00,48.31,0
39.00,48.02,0
54.00,47.65,0
42.00,47.36,0
42.00,47.06,0
46.00,46.69,0
42.00,46.33,0
37.00,45.90,0
60.00,45.51,0
36.00,45.31,0
38.00,45.06,0
45.00,44.68,0
47.00,44.35,0
36.00,44.09,0
50.00,43.83,0
45.00,43.68,0
40.00,43.61,0
41.00,43.48,0
64.00,43.49,0
36.00,43.75,0
52.00,44.06,0
36.00,44.29,0
54.00,44.48,0
41.00,44.67,0
57.00,44.94,0
40.00,45.27,0
63.00,45.67,0
37.00,46.15,0
54.00,46.56,0
37.00,46.84,0
44.00,46.93,0
39.00,46.80,0
45.00,46.53,0
37.00,46.16,0
45.00,45.71,0
43.00,45.25,0
39.00,44.82,0
54.00,44.46,0
38.00,44.24,0
43.00,44.04,0
42.00,43.81,0
37.00,43.53,0
39.00,43.17,0
48.00,42.81,0
39.00,42.56,0
67.00,42.56,0
40.00,42.92,0
55.00,43.44,0
41.00,43.98,0
59.00,44.56,0
49.00,45.24,0
41.00,45.91,0
35.00,46.26,0
68.00,46.48,0
35.00,46.82,0
44.00,47.02,0
46.00,47.03,0
40.00,46.93,0
37.00,46.65,0
43.00,46.19,0
36.00,45.63,0
36.00,44.94,0
42.00,44.17,0
45.00,43.49,0
39.00,42.95,0
38.00,42.45,0
39.00,41.94,0
35.00,41.41,0
46.00,40.92,0
33.00,40.52,0
74.00,40.42,0
39.00,40.82,0
47.00,41.42,0
46.00,41.98,0
54.00,42.62,0
41.00,43.31,0
76.00,44.15,0
39.00,45.25,0
54.00,46.32,0
47.00,47.20,0
50.00,47.94,0
43.00,48.49,0
58.00,48.91,0
36.00,49.22,0
54.00,49.35,0
49.00,49.42,0
46.00,49.47,0
34.00,49.32,0
80.00,49.18,0
40.00,49.38,0
36.00,49.52,0
50.00,49.33,0
40.00,49.01,0
40.00,48.55,0
47.00,47.98,0
34.00,47.34,0
36.00,46.54,0
65.00,45.81,0
40.00,45.44,0
46.00,45.24,0
52.00,45.11,0
49.00,45.17,0
41.00,45.29,0
85.00,45.68,0
42.00,46.55,0
51.00,47.48,0
41.00,48.16,0
48.00,48.57,0
40.00,48.75,0
61.00,48.83,0
40.00,48.95,0
50.00,49.00,0
46.00,48.95,0
50.00,48.88,0
35.00,48.71,0
76.00,48.60,0
36.00,48.74,0
47.00,48.86,0
37.00,48.71,0
47.00,48.37,0
35.00,47.89,0
39.00,47.23,0
39.00,46.42,0
36.00,45.53,0
36.00,44.57,0
35.00,43.55,0
40.00,42.54,0
42.00,41.66,0
40.00,40.97,0
37.00,40.41,0
58.00,40.07,0
41.00,40.09,0
54.00,40.38,0
41.00,40.84,0
51.00,41.38,0
40.00,41.94,0
59.00,42.54,0
50.00,43.32,0
57.00,44.25,0
38.00,45.17,0
78.00,46.13,0
44.00,47.29,0
54.00,48.44,0
36.00,49.26,0
78.00,49.94,0
35.00,50.68,0
44.00,51.15,0
43.00,51.19,0
38.00,50.91,0
36.00,50.30,0
53.00,49.52,0
35.00,48.75,0
36.00,47.87,0
45.00,46.88,0
37.00,45.92,0
44.00,45.02,0
36.00,44.18,0
43.00,43.40,0
36.00,42.67,0
62.00,42.17,0
35.00,42.01,0
55.00,42.05,0
45.00,42.25,0
48.00,42.61,0
43.00,42.99,0
65.00,43.50,0
40.00,44.21,0
54.00,44.94,0
50.00,45.64,0
61.00,46.43,0
45.00,47.30,0
40.00,47.97,0
37.00,48.24,0
57.00,48.26,0
36.00,48.22,0
52.00,48.10,0
38.00,47.88,0
46.00,47.58,0
44.00,47.21,0
44.00,46.84,0
33.00,46.38,0
60.00,45.90,0
39.00,45.60,0
38.00,45.32,0
41.00,44.90,0
41.00,44.43,0
49.00,44.03,0
37.00,43.72,0
35.00,43.34,0
35.00,42.80,0
49.00,42.25,0
47.00,41.92,0
75.00,42.09,0
42.00,42.80,0
43.00,43.60,0
53.00,44.26,0
46.00,44.91,0
44.00,45.49,0
103.00,46.37,0
37.00,47.89,0
54.00,49.36,0
39.00,50.37,0
51.00,50.99,0
45.00,51.31,0
50.00,51.44,0
40.00,51.37,0
44.00,51.05,0
37.00,50.48,0
47.00,49.75,0
39.00,48.95,0
45.00,48.13,0
40.00,47.31,0
42.00,46.51,0
37.00,45.69,0
37.00,44.82,0
36.00,43.89,0
36.00,42.93,0
38.00,41.99,0
35.00,41.10,0
41.00,40.30,0
38.00,39.64,0
43.00,39.15,0
40.00,38.84,0
65.00,38.87,0
40.00,39.34,0
44.00,39.96,0
45.00,40.54,0
49.00,41.16,0
40.00,41.78,0
84.00,42.62,0
36.00,43.87,0
64.00,45.19,0
44.00,46.42,0
68.00,47.64,0
38.00,48.79,0
63.00,49.76,0
37.00,50.52,0
46.00,50.93,0
55.00,51.09,0
49.00,51.21,0
37.00,51.19,0
44.00,50.85,0
36.00,50.25,0
39.00,49.42,0
42.00,48.44,0
39.00,47.43,0
34.00,46.37,0
41.00,45.26,0
45.00,44.24,0
36.00,43.39,0
38.00,42.59,0
47.00,41.89,0
41.00,41.40,0
36.00,41.03,0
44.00,40.68,0
35.00,40.39,0
51.00,40.20,0
47.00,40.24,0
59.00,40.63,0
55.00,41.41,0
57.00,42.50,0
35.00,43.61,0
72.00,44.66,0
37.00,45.77,0
65.00,46.84,0
40.00,47.82,0
54.00,48.62,0
36.00,49.15,0
64.00,49.49,0
36.00,49.77,0
42.00,49.81,0
39.00,49.51,0
39.00,48.96,0
37.00,48.20,0
51.00,47.38,0
35.00,46.63,0
48.00,45.91,0
46.00,45.32,0
39.00,44.84,0
40.00,44.36,0
48.00,43.90,0
45.00,43.60,0
36.00,43.37,0
69.00,43.30,0
38.00,43.56,0
42.00,43.87,0
54.00,44.11,0
53.00,44.51,0
38.00,44.99,0
58.00,45.40,0
48.00,45.89,0
39.00,46.34,0
38.00,46.50,0
54.00,46.48,0
39.00,46.46,0
54.00,46.45,0
36.00,46.41,0
62.00,46.41,0
36.00,46.49,0
45.00,46.49,0
35.00,46.29,0
41.00,45.89,0
35.00,45.33,0
74.00,44.93,0
37.00,44.96,0
35.00,45.01,0
74.00,45.05,0
39.00,45.43,0
38.00,45.79,0
50.00,45.91,0
42.00,45.97,0
37.00,45.92,0
48.00,45.71,0
38.00,45.45,0
54.00,45.22,0
41.00,45.10,0
54.00,45.09,0
38.00,45.13,0
85.00,45.45,0
42.00,46.26,0
51.00,47.16,0
52.00,47.91,0
50.00,48.59,0
38.00,49.07,0
77.00,49.49,0
42.00,50.11,0
50.00,50.66,0
41.00,50.92,0
49.00,50.93,0
35.00,50.69,0
63.00,50.34,0
36.00,50.03,0
39.00,49.58,0
60.00,49.04,0
40.00,48.65,0
36.00,48.21,0
68.00,47.76,0
48.00,47.66,0
39.00,47.68,0
43.00,47.52,0
37.00,47.17,0
44.00,46.67,0
39.00,46.11,0
47.00,45.55,0
38.00,45.04,0
46.00,44.55,0
45.00,44.16,0
52.00,43.95,0
35.00,43.86,0
78.00,44.00,0
40.00,44.55,0
53.00,45.25,0
45.00,45.86,0
64.00,46.53,0
44.00,47.28,0
54.00,48.00,0
37.00,48.52,0
53.00,48.80,0
36.00,48.88,0
40.00,48.69,0
38.00,48.21,0
45.00,47.59,0
35.00,46.89,0
38.00,46.07,0
50.00,45.25,0
36.00,44.58,0
39.00,43.92,0
45.00,43.29,0
38.00,42.75,0
40.00,42.26,0
45.00,41.84,0
36.00,41.51,0
48.00,41.25,0
44.00,41.14,0
40.00,41.15,0
34.00,41.10,0
79.00,41.26,0
36.00,41.90,0
52.00,42.68,0
43.00,43.37,0
48.00,44.00,0
41.00,44.51,0
62.00,45.02,0
43.00,45.63,0
71.00,46.40,0
39.00,47.31,0
51.00,48.08,0
52.00,48.68,0
46.00,49.19,0
41.00,49.47,0
64.00,49.64,0
35.00,49.81,0
39.00,49.72,0
40.00,49.28,0
41.00,48.63,0
38.00,47.86,0
45.00,47.03,0
37.00,46.20,0
42.00,45.38,0
41.00,44.59,0
37.00,43.85,0
46.00,43.17,0
40.00,42.62,0
42.00,42.18,0
38.00,41.79,0
48.00,41.49,0
45.00,41.37,0
38.00,41.36,0
36.00,41.29,0
59.00,41.26,0
46.00,41.53,0
52.00,42.04,0
44.00,42.65,0
81.00,43.52,0
38.00,44.76,0
51.00,45.95,0
46.00,46.86,0
56.00,47.65,0
35.00,48.28,0
59.00,48.68,0
44.00,49.01,0
40.00,49.18,0
53.00,49.15,0
41.00,49.05,0
36.00,48.76,0
56.00,48.33,0
48.00,48.02,0
39.00,47.78,0
77.00,47.69,0
36.00,47.94,0
45.00,48.15,0
49.00,48.16,0
48.00,48.16,0
43.00,48.11,0
62.00,48.11,0
44.00,48.26,0
52.00,48.45,0
39.00,48.54,0
42.00,48.42,0
44.00,48.11,0
52.00,47.79,0
43.00,47.54,0
64.00,47.46,0
48.00,47.63,0
43.00,47.86,0
43.00,47.92,0
62.00,47.96,0
43.00,48.14,0
50.00,48.32,0
41.00,48.39,0
43.00,48.28,0
35.00,47.94,0
42.00,47.38,0
39.00,46.70,0
40.00,45.95,0
39.00,45.17,0
37.00,44.37,0
48.00,43.62,0
40.00,43.04,0
42.00,42.58,0
36.00,42.14,0
45.00,41.73,0
41.00,41.42,0
48.00,41.26,0
35.00,41.20,0
46.00,41.14,0
50.00,41.21,0
63.00,41.61,0
51.00,42.44,0
83.00,43.71,0
36.00,45.32,0
54.00,46.78,0
45.00,47.90,0
56.00,48.82,0
42.00,49.56,0
48.00,50.03,0
37.00,50.18,0
59.00,50.12,0
41.00,50.05,0
63.00,50.02,0
43.00,50.08,0
46.00,50.08,0
40.00,49.88,0
66.00,49.66,0
39.00,49.59,0
36.00,49.39,0
44.00,48.89,0
36.00,48.21,0
43.00,47.41,0
36.00,46.54,0
47.00,45.68,0
35.00,44.88,0
46.00,44.13,0
44.00,43.52,0
61.00,43.23,0
44.00,43.31,0
51.00,43.59,0
42.00,43.92,0
69.00,44.40,0
35.00,45.08,0
49.00,45.65,0
45.00,46.05,0
48.00,46.38,0
36.00,46.56,0
47.00,46.53,0
45.00,46.42,0
53.00,46.37,0
39.00,46.37,0
46.00,46.30,0
35.00,46.08,0
53.00,45.80,0
36.00,45.52,0
62.00,45.36,0
38.00,45.37,0
37.00,45.33,0
41.00,45.06,0
39.00,44.67,0
41.00,44.22,0
43.00,43.77,0
46.00,43.41,0
36.00,43.12,0
48.00,42.84,0
35.00,42.60,0
48.00,42.37,0
34.00,42.17,0
52.00,42.00,0
37.00,41.94,0
60.00,42.04,0
37.00,42.33,0
71.00,42.84,0
41.00,43.63,0
50.00,44.47,0
35.00,45.09,0
62.00,45.57,0
36.00,46.05,0
52.00,46.42,0
40.00,46.66,0
41.00,46.73,0
36.00,46.54,0
50.00,46.21,0
37.00,45.86,0
41.00,45.44,0
41.00,44.93,0
41.00,44.42,0
59.00,44.07,0
36.00,43.96,0
56.00,43.97,0
48.00,44.14,0
36.00,44.37,0
37.00,44.37,0
57.00,44.29,0
37.00,44.32,0
51.00,44.37,0
51.00,44.52,0
58.00,44.91,0
36.00,45.39,0
76.00,45.96,0
45.00,46.79,0
70.00,47.83,0
55.00,49.03,0
71.00,50.39,0
37.00,51.69,0
69.00,52.74,0
36.00,53.54,0
60.00,54.04,0
39.00,54.25,0
35.00,54.03,0
39.00,53.31,0
68.00,52.49,0
37.00,51.89,0
48.00,51.28,0
61.00,50.73,0
45.00,50.41,0
34.00,50.03,0
50.00,49.43,0
33.00,48.73,0
37.00,47.83,0
44.00,46.82,0
39.00,45.86,0
58.00,45.10,0
45.00,44.68,0
53.00,44.55,0
36.00,44.53,0
52.00,44.50,0
55.00,44.62,0
62.00,45.09,0
38.00,45.75,0
78.00,46.53,0
37.00,47.50,0
44.00,48.28,0
47.00,48.70,0
47.00,48.95,0
35.00,48.97,0
91.00,49.08,0
40.00,49.67,0
49.00,50.30,0
50.00,50.66,0
44.00,50.86,0
35.00,50.76,0
46.00,50.32,0
29.00,49.62,0
36.00,48.61,0
49.00,47.47,0
50.00,46.55,0
39.00,45.87,0
51.00,45.32,0
36.00,44.86,0
32.00,44.31,0
49.00,43.66,0
44.00,43.16,0
36.00,42.79,0
48.00,42.44,0
51.00,42.29,0
42.00,42.36,0
87.00,42.84,0
44.00,43.95,0
75.00,45.41,0
52.00,47.05,0
60.00,48.72,0
60.00,50.29,0
99.00,52.13,0
36.00,54.23,0
53.00,55.88,0
36.00,56.77,0
54.00,57.05,0
52.00,56.99,0
50.00,56.79,0
37.00,56.31,0
37.00,55.42,0
55.00,54.27,0
51.00,53.25,0
34.00,52.29,0
68.00,51.37,0
37.00,50.69,0
38.00,49.98,0
84.00,49.42,0
34.00,49.35,0
41.00,49.25,0
74.00,49.12,0
51.00,49.39,0
41.00,49.74,0
78.00,50.12,0
43.00,50.73,0
47.00,51.26,0
36.00,51.40,0
52.00,51.22,0
46.00,50.92,0
62.00,50.72,0
46.00,50.67,0
66.00,50.78,0
43.00,51.01,0
59.00,51.24,0
51.00,51.47,0
58.00,51.76,0
53.00,52.08,0
50.00,52.38,0
39.00,52.45,0
80.00,52.50,0
35.00,52.73,0
66.00,52.95,0
59.00,53.23,0
54.00,53.66,0
36.00,53.88,0
40.00,53.65,0
52.00,53.09,0
58.00,52.57,0
35.00,52.12,0
44.00,51.48,0
38.00,50.62,0
40.00,49.61,0
50.00,48.60,0
39.00,47.70,0
49.00,46.90,0
50.00,46.29,0
49.00,45.93,0
35.00,45.65,0
78.00,45.56,0
36.00,45.86,0
56.00,46.28,0
38.00,46.60,0
60.00,46.89,0
57.00,47.34,0
46.00,47.94,0
38.00,48.35,0
69.00,48.65,0
38.00,49.03,0
50.00,49.31,0
43.00,49.39,0
47.00,49.33,0
44.00,49.15,0
40.00,48.83,0
35.00,48.29,0
79.00,47.84,0
36.00,47.81,0
47.00,47.84,0
47.00,47.75,0
37.00,47.57,0
37.00,47.17,0
56.00,46.69,0
59.00,46.50,0
42.00,46.60,0
76.00,46.95,0
49.00,47.67,0
54.00,48.53,0
43.00,49.23,0
59.00,49.78,0
42.00,50.23,0
74.00,50.70,0
46.00,51.34,0
51.00,51.92,0
43.00,52.22,0
71.00,52.44,0
42.00,52.75,0
50.00,52.94,0
43.00,52.86,0
90.00,52.91,0
39.00,53.37,0
41.00,53.69,0
43.00,53.51,0
61.00,53.15,0
40.00,52.82,0
38.00,52.30,0
40.00,51.47,0
36.00,50.41,0
42.00,49.21,0
47.00,48.05,0
38.00,47.02,0
37.00,46.00,0
41.00,44.98,0
35.00,43.98,0
60.00,43.19,0
38.00,42.75,0
43.00,42.49,0
46.00,42.29,0
61.00,42.37,0
58.00,42.89,0
49.00,43.73,0
52.00,44.65,0
84.00,45.83,0
46.00,47.41,0
55.00,48.96,0
51.00,50.22,0
56.00,51.28,0
39.00,52.06,0
61.00,52.54,0
36.00,52.80,0
48.00,52.75,0
48.00,52.45,0
36.00,51.98,0
36.00,51.19,0
55.00,50.24,0
36.00,49.37,0
46.00,48.50,0
55.00,47.75,0
36.00,47.19,0
57.00,46.73,0
48.00,46.46,0
39.00,46.31,0
35.00,46.00,0
97.00,45.94,0
37.00,46.57,0
49.00,47.33,0
52.00,47.89,0
56.00,48.46,0
45.00,49.01,0
68.00,49.58,0
46.00,50.25,0
53.00,50.86,0
45.00,51.27,0
59.00,51.56,0
36.00,51.72,0
70.00,51.79,0
46.00,51.96,0
57.00,52.19,0
38.00,52.28,0
53.00,52.15,0
45.00,51.89,0
54.00,51.61,0
44.00,51.31,0
38.00,50.88,0
36.00,50.16,0
41.00,49.19,0
37.00,48.11,0
57.00,47.12,0
38.00,46.37,0
47.00,45.76,0
52.00,45.30,0
36.00,45.00,0
42.00,44.65,0
42.00,44.25,0
47.00,43.92,0
48.00,43.73,0
61.00,43.83,0
39.00,44.18,0
80.00,44.80,0
50.00,45.85,0
83.00,47.31,0
54.00,49.10,0
51.00,50.83,0
45.00,52.12,0
69.00,53.12,0
42.00,53.98,0
50.00,54.52,0
47.00,54.70,0
62.00,54.72,0
35.00,54.64,0
62.00,54.37,0
42.00,54.03,0
41.00,53.53,0
59.00,52.90,0
44.00,52.35,0
34.00,51.69,0
40.00,50.75,0
38.00,49.61,0
35.00,48.34,0
35.00,46.97,0
50.00,45.65,0
36.00,44.56,0
35.00,43.55,0
52.00,42.65,0
45.00,42.08,0
39.00,41.75,0
47.00,41.52,0
38.00,41.39,0
48.00,41.33,0
64.00,41.56,0
45.00,42.19,0
66.00,43.09,0
44.00,44.18,0
60.00,45.31,0
45.00,46.40,0
77.00,47.57,0
54.00,48.99,0
41.00,50.31,0
45.00,51.15,0
53.00,51.62,0
43.00,51.87,0
60.00,51.99,0
38.00,52.03,0
46.00,51.84,0
40.00,51.38,0
40.00,50.71,0
43.00,49.87,0
44.00,48.99,0
35.00,48.07,0
62.00,47.23,0
39.00,46.68,0
36.00,46.17,0
47.00,45.56,0
40.00,44.99,0
42.00,44.47,0
42.00,43.98,0
47.00,43.58,0
39.00,43.29,0
55.00,43.12,0
51.00,43.21,0
45.00,43.53,0
52.00,43.93,0
67.00,44.56,0
46.00,45.49,0
62.00,46.51,0
49.00,47.57,0
55.00,48.57,0
44.00,49.41,0
74.00,50.20,0
40.00,51.06,0
104.00,52.16,0
38.00,53.64,0
49.00,54.87,0
35.00,55.42,0
57.00,55.45,0
36.00,55.16,0
68.00,54.75,0
42.00,54.40,0
35.00,53.88,0
45.00,53.00,0
37.00,51.92,0
45.00,50.74,0
67.00,49.76,0
43.00,49.21,0
48.00,48.83,0
52.00,48.51,0
37.00,48.22,0
96.00,48.25,0
46.00,48.95,0
62.00,49.94,0
44.00,50.80,0
78.00,51.67,0
63.00,52.80,0
55.00,54.05,0
41.00,54.99,0
52.00,55.44,0
37.00,55.45,0
81.00,55.33,0
38.00,55.38,0
42.00,55.22,0
44.00,54.65,0
34.00,53.76,0
45.00,52.60,0
39.00,51.33,0
36.00,49.98,0
43.00,48.56,0
38.00,47.21,0
56.00,46.06,0
41.00,45.25,0
44.00,44.64,0
55.00,44.23,0
38.00,44.04,0
94.00,44.30,0
52.00,45.35,0
77.00,46.92,0
52.00,48.69,0
62.00,50.44,0
31.00,51.81,0
97.00,52.97,0
38.00,54.27,0
72.00,55.49,0
51.00,56.51,0
60.00,57.35,0
53.00,57.95,0
96.00,58.65,0
51.00,59.69,0
52.00,60.57,0
70.00,61.09,0
41.00,61.39,0
35.00,61.14,0
46.00,60.21,0
34.00,58.84,0
34.00,57.09,0
39.00,55.02,0
36.00,52.86,0
49.00,50.79,0
41.00,48.98,0
60.00,47.57,0
40.00,46.59,0
55.00,45.92,0
44.00,45.49,0
80.00,45.51,0
43.00,46.05,0
49.00,46.72,0
56.00,47.32,0
56.00,48.00,0
54.00,48.77,0
71.00,49.69,0
48.00,50.76,0
78.00,51.92,0
51.00,53.20,0
58.00,54.38,0
64.00,55.38,0
41.00,56.19,0
51.00,56.58,0
82.00,56.87,0
38.00,57.30,0
38.00,57.35,0
58.00,56.92,0
39.00,56.30,0
36.00,55.39,0
48.00,54.18,0
38.00,52.88,0
38.00,51.48,0
51.00,50.07,0
37.00,48.81,0
49.00,47.68,0
43.00,46.72,0
51.00,45.97,0
42.00,45.44,0
58.00,45.12,0
44.00,45.06,0
59.00,45.21,0
56.00,45.64,0
66.00,46.41,0
52.00,47.45,0
70.00,48.65,0
38.00,49.86,0
62.00,50.85,0
45.00,51.63,0
52.00,52.20,0
48.00,52.53,0
52.00,52.71,0
36.00,52.65,0
99.00,52.70,0
38.00,53.25,0
50.00,53.76,0
56.00,53.97,0
56.00,54.15,0
38.00,54.20,0
59.00,54.03,0
38.00,53.71,0
42.00,53.15,0
57.00,52.45,0
39.00,51.80,0
45.00,51.08,0
57.00,50.38,0
53.00,49.94,0
44.00,49.66,0
72.00,49.57,0
36.00,49.71,0
45.00,49.74,0
52.00,49.59,0
60.00,49.56,0
44.00,49.69,0
65.00,49.90,0
54.00,50.30,0
54.00,50.82,0
48.00,51.27,0
48.00,51.55,0
42.00,51.60,0
60.00,51.52,0
36.00,51.39,0
46.00,51.06,0
38.00,50.49,0
43.00,49.76,0
35.00,48.87,0
40.00,47.84,0
41.00,46.77,0
44.00,45.78,0
52.00,45.01,0
38.00,44.47,0
37.00,43.96,0
43.00,43.40,0
72.00,43.15,0
46.00,43.46,0
41.00,43.95,0
41.00,44.27,0
93.00,44.84,0
42.00,46.02,0
57.00,47.32,0
58.00,48.52,0
55.00,49.71,0
40.00,50.69,0
110.00,51.78,0
45.00,53.43,0
54.00,55.01,0
51.00,56.09,0
59.00,56.82,0
36.00,57.19,0
75.00,57.29,0
52.00,57.44,0
55.00,57.59,0
40.00,57.46,0
42.00,56.93,0
61.00,56.16,0
43.00,55.44,0
37.00,54.58,0
49.00,53.49,0
36.00,52.31,0
36.00,50.98,0
47.00,49.57,0
46.00,48.31,0
40.00,47.24,0
34.00,46.19,0
41.00,45.09,0
39.00,44.04,0
56.00,43.24,0
52.00,42.88,0
53.00,42.96,0
38.00,43.21,0
61.00,43.55,0
65.00,44.22,0
75.00,45.47,0
49.00,47.09,0
73.00,48.80,0
46.00,50.48,0
66.00,51.99,0
46.00,53.28,0
75.00,54.42,0
51.00,55.53,0
61.00,56.50,0
46.00,57.18,0
63.00,57.59,0
35.00,57.72,0
34.00,57.28,0
36.00,56.20,0
38.00,54.70,0
67.00,53.24,0
36.00,52.08,0
34.00,50.91,0
43.00,49.56,0
36.00,48.17,0
37.00,46.78,0
52.00,45.52,0
40.00,44.55,0
42.00,43.78,0
45.00,43.15,0
52.00,42.76,0
46.00,42.66,0
61.00,42.87,0
35.00,43.29,0
64.00,43.79,0
37.00,44.38,0
62.00,45.01,0
47.00,45.72,0
74.00,46.64,0
37.00,47.72,0
60.00,48.68,0
47.00,49.49,0
78.00,50.39,0
34.00,51.36,0
75.00,52.23,0
36.00,52.98,0
40.00,53.34,0
44.00,53.18,0
42.00,52.70,0
37.00,51.95,0
38.00,50.94,0
35.00,49.71,0
82.00,48.70,0
38.00,48.28,0
42.00,48.03,0
54.00,47.70,0
43.00,47.46,0
41.00,47.21,0
58.00,46.97,0
58.00,47.02,0
54.00,47.38,0
44.00,47.83,0
46.00,48.14,0
78.00,48.55,0
55.00,49.39,0
65.00,50.48,0
55.00,51.63,0
58.00,52.72,0
58.00,53.70,0
66.00,54.65,0
44.00,55.50,0
42.00,55.93,0
50.00,55.89,0
62.00,55.69,0
49.00,55.54,0
66.00,55.46,0
39.00,55.38,0
42.00,55.03,0
36.00,54.26,0
40.00,53.14,0
41.00,51.84,0
74.00,50.75,0
42.00,50.16,0
38.00,49.67,0
84.00,49.33,0
37.00,49.45,0
58.00,49.69,0
51.00,49.91,0
44.00,50.12,0
49.00,50.18,0
84.00,50.43,0
44.00,51.11,0
58.00,51.84,0
46.00,52.39,0
48.00,52.71,0
52.00,52.81,0
84.00,53.09,0
51.00,53.79,0
52.00,54.51,0
57.00,55.01,0
55.00,55.39,0
40.00,55.57,0
62.00,55.49,0
44.00,55.32,0
49.00,55.01,0
48.00,54.52,0
37.00,53.84,0
35.00,52.85,0
76.00,51.85,0
42.00,51.28,0
47.00,50.86,0
41.00,50.32,0
39.00,49.63,0
37.00,48.75,0
44.00,47.77,0
43.00,46.84,0
42.00,46.00,0
64.00,45.42,0
48.00,45.29,0
86.00,45.72,0
42.00,46.71,0
57.00,47.79,0
57.00,48.80,0
67.00,49.92,0
51.00,51.12,0
72.00,52.33,0
49.00,53.54,0
38.00,54.41,0
54.00,54.75,0
48.00,54.80,0
48.00,54.66,0
52.00,54.37,0
38.00,53.92,0
43.00,53.21,0
43.00,52.29,0
47.00,51.32,0
40.00,50.35,0
42.00,49.34,0
35.00,48.25,0
50.00,47.17,0
37.00,46.21,0
35.00,45.27,0
89.00,44.67,0
43.00,44.87,0
41.00,45.31,0
67.00,45.74,0
49.00,46.40,0
46.00,47.11,0
72.00,47.86,0
37.00,48.72,0
61.00,49.47,0
59.00,50.21,0
71.00,51.18,0
65.00,52.41,0
80.00,53.95,0
51.00,55.61,0
53.00,56.97,0
45.00,57.80,0
68.00,58.26,0
44.00,58.54,0
77.00,58.75,0
48.00,58.99,0
55.00,59.11,0
40.00,58.89,0
67.00,58.44,0
46.00,57.98,0
60.00,57.53,0
41.00,57.00,0
49.00,56.28,0
34.00,55.31,0
44.00,54.07,0
44.00,52.72,0
37.00,51.34,0
42.00,49.92,0
45.00,48.56,0
44.00,47.37,0
40.00,46.34,0
63.00,45.56,0
39.00,45.16,0
45.00,44.90,0
50.00,44.70,0
59.00,44.76,0
44.00,45.07,0
66.00,45.58,0
66.00,46.47,0
56.00,47.70,0
49.00,48.94,0
84.00,50.24,0
53.00,51.79,0
53.00,53.26,0
63.00,54.46,0
56.00,55.51,0
38.00,56.23,0
104.00,56.87,0
50.00,57.92,0
53.00,58.93,0
73.00,59.64,0
43.00,60.21,0
36.00,60.26,0
48.00,59.66,0
46.00,58.70,0
36.00,57.49,0
61.00,56.14,0
39.00,54.89,0
46.00,53.65,0
68.00,52.59,0
47.00,51.93,0
47.00,51.44,0
70.00,51.11,0
44.00,51.09,0
57.00,51.16,0
56.00,51.28,0
60.00,51.58,0
44.00,51.92,0
43.00,52.04,0
60.00,51.98,0
93.00,52.34,0
45.00,53.28,0
69.00,54.33,0
61.00,55.34,0
56.00,56.33,0
46.00,57.02,0
83.00,57.58,0
35.00,58.14,0
42.00,58.25,0
41.00,57.73,0
37.00,56.76,0
39.00,55.41,0
46.00,53.89,0
38.00,52.36,0
37.00,50.77,0
44.00,49.17,0
35.00,47.66,0
44.00,46.23,0
42.00,44.99,0
46.00,43.99,0
58.00,43.37,0
50.00,43.21,0
61.00,43.48,0
80.00,44.32,0
49.00,45.73,0
62.00,47.27,0
49.00,48.70,0
82.00,50.19,0
42.00,51.76,0
69.00,53.19,0
63.00,54.52,0
68.00,55.91,0
36.00,57.05,0
107.00,58.08,0
57.00,59.48,0
72.00,61.00,0
48.00,62.20,0
47.00,62.83,0
48.00,62.80,0
70.00,62.47,0
36.00,62.00,0
35.00,61.06,0
41.00,59.53,0
40.00,57.69,0
37.00,55.70,0
41.00,53.62,0
52.00,51.68,0
35.00,49.98,0
41.00,48.39,0
46.00,46.92,0
88.00,46.08,0
49.00,46.18,0
40.00,46.60,0
60.00,46.94,0
52.00,47.40,0
51.00,47.96,0
64.00,48.60,0
41.00,49.30,0
96.00,50.21,0
48.00,51.56,0
50.00,52.88,0
51.00,53.79,0
59.00,54.44,0
42.00,54.87,0
55.00,55.03,0
35.00,54.87,0
38.00,54.29,0
50.00,53.38,0
52.00,52.50,0
35.00,51.66,0
91.00,51.07,0
42.00,51.07,0
38.00,51.14,0
35.00,50.77,0
41.00,50.05,0
55.00,49.27,0
37.00,48.60,0
42.00,47.89,0
40.00,47.11,0
55.00,46.42,0
50.00,46.01,0
66.00,46.00,0
59.00,46.46,0
68.00,47.37,0
60.00,48.59,0
66.00,50.02,0
45.00,51.41,0
55.00,52.50,0
49.00,53.29,0
71.00,53.97,0
51.00,54.71,0
77.00,55.53,0
49.00,56.41,0
75.00,57.29,0
53.00,58.14,0
59.00,58.85,0
34.00,59.13,0
60.00,58.94,0
38.00,58.42,0
47.00,57.61,0
42.00,56.52,0
35.00,55.20,0
72.00,53.89,0
39.00,52.92,0
46.00,52.04,0
67.00,51.30,0
43.00,50.88,0
44.00,50.51,0
82.00,50.32,0
39.00,50.55,0
59.00,50.86,0
42.00,51.06,0
61.00,51.22,0
35.00,51.28,0
104.00,51.58,0
58.00,52.59,0
80.00,54.11,0
55.00,55.73,0
52.00,57.12,0
41.00,57.93,0
73.00,58.34,0
46.00,58.65,0
56.00,58.77,0
45.00,58.60,0
46.00,58.12,0
39.00,57.30,0
51.00,56.21,0
43.00,55.06,0
37.00,53.79,0
45.00,52.39,0
38.00,50.96,0
43.00,49.54,0
50.00,48.26,0
42.00,47.23,0
35.00,46.27,0
41.00,45.29,0
36.00,44.30,0
60.00,43.52,0
64.00,43.31,0
37.00,43.57,0
44.00,43.84,0
69.00,44.19,0
48.00,44.90,0
61.00,45.83,0
50.00,46.83,0
70.00,47.96,0
49.00,49.21,0
61.00,50.43,0
48.00,51.49,0
113.00,52.83,0
52.00,54.81,0
56.00,56.76,0
60.00,58.21,0
51.00,59.27,0
38.00,59.77,0
72.00,59.82,0
49.00,59.79,0
38.00,59.51,0
48.00,58.76,0
37.00,57.65,0
36.00,56.21,0
37.00,54.47,0
45.00,52.63,0
50.00,50.95,0
35.00,49.48,0
36.00,48.01,0
44.00,46.56,0
45.00,45.31,0
51.00,44.40,0
46.00,43.83,0
76.00,43.76,0
45.00,44.27,0
61.00,45.08,0
55.00,46.03,0
57.00,47.11,0
70.00,48.36,0
85.00,50.03,0
45.00,52.01,0
69.00,53.81,0
63.00,55.43,0
54.00,56.89,0
35.00,57.81,0
62.00,58.14,0
40.00,58.10,0
52.00,57.76,0
46.00,57.15,0
46.00,56.38,0
33.00,55.34,0
39.00,53.96,0
35.00,52.33,0
56.00,50.73,0
36.00,49.35,0
41.00,48.06,0
68.00,47.04,0
36.00,46.46,0
48.00,46.05,0
51.00,45.72,0
46.00,45.58,0
42.00,45.50,0
48.00,45.40,0
47.00,45.36,0
93.00,45.77,0
42.00,46.85,0
60.00,48.07,0
52.00,49.19,0
60.00,50.26,0
49.00,51.24,0
115.00,52.54,0
48.00,54.49,0
79.00,56.58,0
64.00,58.52,0
46.00,60.16,0
36.00,61.00,0
46.00,60.98,0
36.00,60.31,0
54.00,59.22,0
68.00,58.19,0
42.00,57.40,0
38.00,56.46,0
60.00,55.36,0
45.00,54.36,0
35.00,53.34,0
42.00,52.09,0
36.00,50.71,0
42.00,49.26,0
45.00,47.90,0
46.00,46.75,0
41.00,45.81,0
91.00,45.39,0
45.00,45.78,0
79.00,46.73,0
46.00,47.97,0
65.00,49.27,0
46.00,50.47,0
65.00,51.55,0
62.00,52.63,0
73.00,53.88,0
48.00,55.16,0
68.00,56.27,0
39.00,57.09,0
45.00,57.41,0
42.00,57.17,0
48.00,56.56,0
38.00,55.68,0
41.00,54.53,0
46.00,53.23,0
47.00,51.97,0
40.00,50.79,0
57.00,49.73,0
35.00,48.84,0
35.00,47.89,0
64.00,46.98,0
35.00,46.38,0
38.00,45.81,0
55.00,45.23,0
48.00,44.92,0
48.00,44.84,0
60.00,44.99,0
36.00,45.29,0
44.00,45.49,0
60.00,45.65,0
58.00,46.10,0
61.00,46.88,0
71.00,48.00,0
43.00,49.29,0
58.00,50.42,0
57.00,51.40,0
72.00,52.46,0
51.00,53.61,0
76.00,54.78,0
54.00,55.99,0
88.00,57.30,0
39.00,58.63,0
60.00,59.57,0
67.00,60.18,0
61.00,60.77,0
43.00,61.12,0
72.00,61.18,0
55.00,61.20,0
39.00,61.02,0
57.00,60.43,0
36.00,59.55,0
40.00,58.31,0
60.00,56.90,0
47.00,55.65,0
42.00,54.49,0
85.00,53.58,0
48.00,53.28,0
52.00,53.21,0
54.00,53.10,0
62.00,53.10,0
48.00,53.21,0
61.00,53.35,0
37.00,53.39,0
106.00,53.66,0
53.00,54.58,0
63.00,55.75,0
54.00,56.73,0
67.00,57.56,0
52.00,58.27,0
69.00,58.87,0
38.00,59.26,0
44.00,59.17,0
35.00,58.47,0
50.00,57.36,0
35.00,56.03,0
36.00,54.46,0
42.00,52.69,0
44.00,50.96,0
36.00,49.33,0
41.00,47.76,0
36.00,46.26,0
34.00,44.80,0
57.00,43.55,0
47.00,42.77,0
50.00,42.42,0
50.00,42.38,0
36.00,42.49,0
55.00,42.63,0
54.00,42.98,0
59.00,43.66,0
81.00,44.83,0
62.00,46.58,0
64.00,48.59,0
63.00,50.61,0
56.00,52.50,0
47.00,54.04,0
73.00,55.26,0
38.00,56.27,0
42.00,56.76,0
56.00,56.73,0
49.00,56.51,0
38.00,56.06,0
77.00,55.53,0
60.00,55.38,0
47.00,55.45,0
65.00,55.48,0
58.00,55.61,0
36.00,55.67,0
38.00,55.26,0
52.00,54.48,0
35.00,53.55,0
37.00,52.38,0
39.00,50.99,0
48.00,49.58,0
66.00,48.54,0
56.00,48.10,0
51.00,48.06,0
89.00,48.49,0
41.00,49.44,0
74.00,50.55,0
62.00,51.79,0
76.00,53.29,0
43.00,54.79,0
55.00,55.91,0
53.00,56.62,0
77.00,57.25,0
56.00,58.02,0
71.00,58.83,0
46.00,59.52,0
86.00,60.13,0
48.00,60.80,0
52.00,61.24,0
44.00,61.17,0
41.00,60.59,0
38.00,59.50,0
81.00,58.34,0
40.00,57.52,0
42.00,56.66,0
58.00,55.65,0
41.00,54.68,0
36.00,53.60,0
41.00,52.28,0
40.00,50.85,0
38.00,49.40,0
38.00,47.94,0
49.00,46.59,0
48.00,45.55,0
45.00,44.82,0
48.00,44.32,0
49.00,44.05,0
58.00,44.07,0
47.00,44.39,0
58.00,44.90,0
58.00,45.63,0
69.00,46.69,0
51.00,48.00,0
78.00,49.46,0
65.00,51.19,0
67.00,53.08,0
48.00,54.81,0
47.00,56.05,0
47.00,56.70,0
65.00,57.01,0
38.00,57.14,0
80.00,57.18,0
35.00,57.24,0
40.00,56.97,0
60.00,56.33,0
38.00,55.61,0
36.00,54.65,0
45.00,53.38,0
41.00,52.04,0
35.00,50.64,0
57.00,49.29,0
48.00,48.26,0
50.00,47.56,0
56.00,47.14,0
55.00,47.06,0
40.00,47.14,0
80.00,47.42,0
48.00,48.12,0
69.00,49.09,0
53.00,50.18,0
55.00,51.24,0
61.00,52.21,0
88.00,53.41,0
47.00,54.91,0
57.00,56.20,0
54.00,57.11,0
65.00,57.81,0
47.00,58.35,0
85.00,58.84,0
38.00,59.37,0
56.00,59.61,0
52.00,59.49,0
52.00,59.18,0
44.00,58.64,0
76.00,58.08,0
43.00,57.71,0
37.00,57.16,0
65.00,56.36,0
36.00,55.57,0
48.00,54.66,0
64.00,53.78,0
49.00,53.20,0
41.00,52.67,0
66.00,52.16,0
44.00,51.84,0
51.00,51.58,0
59.00,51.37,0
50.00,51.32,0
40.00,51.23,0
98.00,51.36,0
42.00,52.04,0
73.00,52.95,0
66.00,53.99,0
57.00,55.16,0
46.00,56.09,0
61.00,56.68,0
48.00,57.04,0
59.00,57.22,0
40.00,57.16,0
94.00,57.15,0
47.00,57.53,0
35.00,57.76,0
58.00,57.48,0
44.00,56.97,0
37.00,56.21,0
48.00,55.15,0
42.00,53.96,0
36.00,52.67,0
86.00,51.59,0
45.00,51.17,0
38.00,50.92,0
45.00,50.43,0
47.00,49.83,0
35.00,49.16,0
77.00,48.64,0
42.00,48.54,0
39.00,48.51,0
48.00,48.28,0
60.00,48.11,0
49.00,48.19,0
74.00,48.58,0
47.00,49.29,0
74.00,50.21,0
49.00,51.26,0
83.00,52.48,0
39.00,53.77,0
56.00,54.76,0
55.00,55.41,0
35.00,55.73,0
42.00,55.52,0
78.00,55.14,0
42.00,55.02,0
39.00,54.77,0
50.00,54.18,0
44.00,53.45,0
40.00,52.59,0
44.00,51.59,0
36.00,50.48,0
38.00,49.24,0
44.00,47.95,0
46.00,46.82,0
58.00,46.01,0
40.00,45.54,0
60.00,45.32,0
46.00,45.35,0
54.00,45.58,0
59.00,46.01,0
70.00,46.82,0
45.00,47.90,0
56.00,48.93,0
40.00,49.72,0
62.00,50.31,0
50.00,50.87,0
43.00,51.30,0
49.00,51.47,0
56.00,51.52,0
49.00,51.59,0
64.00,51.74,0
36.00,51.91,0
52.00,51.87,0
46.00,51.66,0
44.00,51.35,0
54.00,50.97,0
44.00,50.62,0
40.00,50.18,0
71.00,49.80,0
39.00,49.69,0
36.00,49.49,0
67.00,49.17,0
40.00,49.04,0
43.00,48.89,0
55.00,48.66,0
43.00,48.49,0
60.00,48.42,0
69.00,48.69,0
50.00,49.33,0
84.00,50.29,0
64.00,51.68,0
58.00,53.27,0
52.00,54.63,0
81.00,55.87,0
37.00,57.04,0
53.00,57.76,0
50.00,57.99,0
73.00,58.11,0
41.00,58.25,0
56.00,58.17,0
53.00,57.89,0
42.00,57.45,0
40.00,56.67,0
99.00,56.03,0
36.00,55.97,0
37.00,55.78,0
56.00,55.17,0
35.00,54.41,0
38.00,53.38,0
42.00,52.09,0
42.00,50.75,0
39.00,49.42,0
70.00,48.35,0
52.00,47.84,0
39.00,47.63,0
54.00,47.41,0
59.00,47.39,0
54.00,47.67,0
87.00,48.40,0
47.00,49.65,0
64.00,50.98,0
54.00,52.19,0
66.00,53.36,0
58.00,54.50,0
100.00,55.89,0
47.00,57.62,0
44.00,58.99,0
54.00,59.65,0
47.00,59.82,0
39.00,59.53,0
114.00,59.31,0
55.00,59.84,0
51.00,60.54,0
47.00,60.75,0
35.00,60.38,0
40.00,59.40,0
68.00,58.20,0
49.00,57.23,0
47.00,56.36,0
38.00,55.33,0
34.00,54.01,0
63.00,52.61,0
51.00,51.56,0
57.00,50.90,0
53.00,50.51,0
65.00,50.44,0
55.00,50.68,0
69.00,51.21,0
56.00,51.99,0
59.00,52.84,0
54.00,53.63,0
68.00,54.40,0
43.00,55.11,0
74.00,55.72,0
50.00,56.33,0
52.00,56.80,0
42.00,56.89,0
53.00,56.64,0
39.00,56.12,0
38.00,55.26,0
38.00,54.03,0
50.00,52.67,0
37.00,51.34,0
58.00,50.13,0
58.00,49.30,0
36.00,48.78,0
104.00,48.70,0
37.00,49.36,0
53.00,50.13,0
54.00,50.69,0
54.00,51.22,0
63.00,51.78,0
76.00,52.62,0
48.00,53.69,0
62.00,54.66,0
60.00,55.51,0
69.00,56.40,0
53.00,57.28,0
88.00,58.23,0
46.00,59.31,0
67.00,60.20,0
44.00,60.75,0
48.00,60.83,0
41.00,60.38,0
56.00,59.57,0
47.00,58.65,0
58.00,57.72,0
45.00,56.83,0
39.00,55.82,0
36.00,54.52,0
49.00,53.05,0
37.00,51.59,0
36.00,50.09,0
41.00,48.53,0
37.00,47.02,0
41.00,45.61,0
46.00,44.40,0
42.00,43.45,0
45.00,42.74,0
54.00,42.33,0
35.00,42.17,0
51.00,42.10,0
49.00,42.19,0
50.00,42.52,0
48.00,42.98,0
56.00,43.59,0
49.00,44.33,0
72.00,45.30,0
62.00,46.65,0
42.00,48.10,0
46.00,49.20,0
59.00,50.00,0
51.00,50.74,0
54.00,51.39,0
50.00,51.92,0
39.00,52.20,0
48.00,52.15,0
86.00,52.21,0
48.00,52.74,0
37.00,53.21,0
76.00,53.45,0
46.00,53.80,0
37.00,53.99,0
70.00,53.92,0
45.00,53.91,0
38.00,53.76,0
59.00,53.36,0
44.00,52.95,0
52.00,52.53,0
57.00,52.16,0
62.00,52.05,0
38.00,52.05,0
71.00,52.06,0
42.00,52.18,0
64.00,52.35,0
47.00,52.55,0
66.00,52.81,0
49.00,53.15,0
76.00,53.63,0
60.00,54.39,0
64.00,55.31,0
52.00,56.17,0
74.00,56.97,0
41.00,57.68,0
54.00,58.05,0
46.00,58.02,0
73.00,57.88,0
34.00,57.74,0
46.00,57.25,0
37.00,56.33,0
37.00,55.07,0
58.00,53.68,0
36.00,52.41,0
52.00,51.21,0
50.00,50.19,0
43.00,49.36,0
42.00,48.56,0
56.00,47.87,0
48.00,47.43,0
53.00,47.22,0
55.00,47.23,0
64.00,47.55,0
47.00,48.12,0
68.00,48.84,0
59.00,49.77,0
103.00,51.22,0
53.00,53.25,0
69.00,55.33,0
54.00,57.10,0
63.00,58.55,0
44.00,59.56,0
62.00,60.13,0
46.00,60.34,0
59.00,60.27,0
52.00,60.01,0
112.00,60.10,0
39.00,60.78,0
36.00,61.16,0
54.00,60.78,0
38.00,59.99,0
36.00,58.78,0
43.00,57.19,0
49.00,55.50,0
34.00,53.83,0
37.00,52.05,0
42.00,50.22,0
40.00,48.50,0
50.00,47.01,0
48.00,45.88,0
49.00,45.12,0
80.00,44.92,0
49.00,45.42,0
65.00,46.31,0
54.00,47.39,0
61.00,48.57,0
39.00,49.64,0
61.00,50.47,0
62.00,51.27,0
68.00,52.27,0
52.00,53.38,0
68.00,54.44,0
61.00,55.51,0
52.00,56.48,0
36.00,57.02,0
75.00,57.18,0
49.00,57.36,0
39.00,57.35,0
56.00,56.96,0
49.00,56.44,0
43.00,55.80,0
68.00,55.15,0
40.00,54.64,0
38.00,53.99,0
73.00,53.27,0
59.00,52.97,0
43.00,52.93,0
66.00,52.89,0
36.00,52.85,0
50.00,52.64,0
86.00,52.56,0
44.00,52.98,0
52.00,53.41,0
65.00,53.73,0
51.00,54.13,0
48.00,54.42,0
86.00,54.76,0
61.00,55.54,0
60.00,56.51,0
50.00,57.29,0
65.00,57.85,0
60.00,58.34,0
46.00,58.70,0
53.00,58.73,0
88.00,58.79,0
43.00,59.14,0
50.00,59.30,0
66.00,59.19,0
71.00,59.24,0
40.00,59.37,0
75.00,59.37,0
36.00,59.28,0
49.00,58.87,0
54.00,58.17,0
44.00,57.37,0
39.00,56.36,0
45.00,55.11,0
47.00,53.79,0
52.00,52.59,0
68.00,51.75,0
50.00,51.37,0
55.00,51.23,0
50.00,51.16,0
59.00,51.19,0
54.00,51.35,0
67.00,51.71,0
42.00,52.17,0
51.00,52.47,0
60.00,52.65,0
67.00,53.01,0
44.00,53.50,0
70.00,53.96,0
58.00,54.53,0
91.00,55.45,0
48.00,56.70,0
59.00,57.80,0
38.00,58.42,0
58.00,58.55,0
38.00,58.30,0
40.00,57.61,0
42.00,56.50,0
44.00,55.18,0
76.00,54.05,0
45.00,53.40,0
44.00,52.87,0
42.00,52.17,0
50.00,51.39,0
45.00,50.64,0
67.00,50.10,0
50.00,49.93,0
61.00,50.04,0
54.00,50.33,0
70.00,50.87,0
60.00,51.69,0
40.00,52.51,0
63.00,53.08,0
53.00,53.57,0
48.00,53.96,0
71.00,54.29,0
50.00,54.73,0
57.00,55.14,0
46.00,55.37,0
52.00,55.37,0
59.00,55.26,0
46.00,55.14,0
46.00,54.85,0
65.00,54.50,0
36.00,54.18,0
40.00,53.61,0
57.00,52.83,0
37.00,52.07,0
35.00,51.15,0
52.00,50.06,0
41.00,49.07,0
36.00,48.11,0
47.00,47.10,0
37.00,46.16,0
64.00,45.45,0
43.00,45.12,0
61.00,45.13,0
70.00,45.59,0
54.00,46.54,0
53.00,47.63,0
121.00,49.20,0
60.00,51.71,0
69.00,54.46,0
61.00,56.89,0
96.00,59.23,0
57.00,61.61,0
71.00,63.71,0
54.00,65.29,0
61.00,66.31,0
39.00,66.68,0
68.00,66.47,0
51.00,65.98,0
78.00,65.47,0
52.00,65.07,0
59.00,64.60,0
48.00,63.90,0
40.00,62.87,0
40.00,61.38,0
62.00,59.73,0
36.00,58.14,0
36.00,56.43,0
60.00,54.65,0
36.00,53.07,0
52.00,51.64,0
57.00,50.48,0
56.00,49.76,0
53.00,49.41,0
69.00,49.41,0
44.00,49.73,0
44.00,49.99,0
51.00,50.04,0
67.00,50.19,0
36.00,50.47,0
77.00,50.80,0
51.00,51.37,0
72.00,52.17,0
50.00,53.08,0
56.00,53.90,0
53.00,54.52,0
76.00,55.16,0
47.00,55.90,0
52.00,56.45,0
55.00,56.70,0
51.00,56.78,0
38.00,56.57,0
60.00,56.09,0
48.00,55.57,0
36.00,54.92,0
42.00,53.95,0
41.00,52.75,0
76.00,51.75,0
40.00,51.21,0
55.00,50.85,0
51.00,50.56,0
34.00,50.24,0
35.00,49.61,0
59.00,48.84,0
52.00,48.33,0
80.00,48.36,0
69.00,49.11,0
74.00,50.47,0
59.00,52.11,0
70.00,53.81,0
43.00,55.32,0
96.00,56.72,0
40.00,58.18,0
52.00,59.26,0
57.00,59.78,0
42.00,59.92,0
36.00,59.50,0
110.00,59.07,0
41.00,59.25,0
44.00,59.37,0
57.00,59.05,0
41.00,58.49,0
36.00,57.58,0
72.00,56.51,0
36.00,55.62,0
36.00,54.59,0
47.00,53.28,0
36.00,51.89,0
42.00,50.46,0
41.00,49.02,0
56.00,47.80,0
69.00,47.14,0
60.00,47.17,0
43.00,47.56,0
129.00,48.55,0
48.00,50.59,0
55.00,52.78,0
56.00,54.47,0
71.00,55.92,0
49.00,57.21,0
50.00,58.11,0
41.00,58.45,0
70.00,58.44,0
34.00,58.28,0
62.00,57.89,0
52.00,57.41,0
47.00,56.91,0
52.00,56.29,0
42.00,55.55,0
35.00,54.56,0
65.00,53.47,0
48.00,52.64,0
39.00,51.92,0
66.00,51.24,0
39.00,50.76,0
38.00,50.23,0
82.00,49.79,0
38.00,49.79,0
38.00,49.77,0
80.00,49.71,0
46.00,50.04,0
60.00,50.56,0
71.00,51.24,0
68.00,52.29,0
50.00,53.48,0
110.00,54.92,0
49.00,56.84,0
80.00,58.80,0
56.00,60.54,0
58.00,61.92,0
49.00,62.75,0
60.00,63.09,0
35.00,62.95,0
77.00,62.47,0
48.00,62.00,0
52.00,61.45,0
45.00,60.64,0
70.00,59.76,0
42.00,59.00,0
45.00,58.11,0
50.00,57.03,0
63.00,56.03,0
39.00,55.21,0
77.00,54.55,0
47.00,54.24,0
35.00,53.90,0
67.00,53.39,0
39.00,52.96,0
36.00,52.37,0
51.00,51.53,0
53.00,50.77,0
46.00,50.20,0
65.00,49.83,0
55.00,49.82,0
59.00,50.10,0
54.00,50.53,0
64.00,51.10,0
56.00,51.81,0
62.00,52.60,0
63.00,53.48,0
107.00,54.81,0
46.00,56.69,0
52.00,58.31,0
68.00,59.42,0
66.00,60.39,0
49.00,61.20,0
110.00,62.05,0
59.00,63.36,0
59.00,64.63,0
45.00,65.29,0
47.00,65.27,0
40.00,64.57,0
49.00,63.36,0
37.00,61.79,0
36.00,59.87,0
55.00,57.77,0
45.00,55.85,0
36.00,54.04,0
39.00,52.17,0
53.00,50.40,0
51.00,49.01,0
71.00,48.21,0
49.00,48.01,0
68.00,48.23,0
48.00,48.73,0
60.00,49.35,0
61.00,50.09,0
53.00,50.93,0
66.00,51.81,0
96.00,53.10,0
43.00,54.81,0
71.00,56.38,0
68.00,57.81,0
50.00,59.10,0
42.00,59.86,0
67.00,60.12,0
44.00,60.15,0
36.00,59.76,0
77.00,59.09,0
43.00,58.55,0
44.00,57.92,0
54.00,57.05,0
39.00,56.08,0
34.00,54.86,0
43.00,53.36,0
35.00,51.74,0
42.00,50.07,0
47.00,48.52,0
39.00,47.19,0
43.00,46.00,0
50.00,45.02,0
42.00,44.32,0
72.00,44.03,0
62.00,44.40,0
60.00,45.32,0
58.00,46.51,0
68.00,47.90,0
45.00,49.34,0
59.00,50.60,0
51.00,51.65,0
72.00,52.67,0
63.00,53.83,0
71.00,55.16,0
51.00,56.46,0
61.00,57.52,0
51.00,58.27,0
66.00,58.81,0
39.00,59.10,0
47.00,58.95,0
42.00,58.33,0
72.00,57.61,0
35.00,56.98,0
37.00,56.10,0
72.00,55.07,0
37.00,54.27,0
50.00,53.48,0
61.00,52.76,0
37.00,52.19,0
45.00,51.52,0
74.00,50.97,0
43.00,50.81,0
50.00,50.75,0
61.00,50.71,0
44.00,50.79,0
56.00,50.87,0
124.00,51.55,0
46.00,53.25,0
63.00,55.09,0
68.00,56.65,0
65.00,58.15,0
55.00,59.45,0
96.00,60.72,0
40.00,62.05,0
69.00,63.03,0
54.00,63.61,0
75.00,64.03,0
43.00,64.27,0
100.00,64.49,0
58.00,65.01,0
45.00,65.41,0
78.00,65.43,0
39.00,65.25,0
41.00,64.60,0
85.00,63.66,0
36.00,62.89,0
51.00,61.94,0
79.00,60.97,0
39.00,60.26,0
55.00,59.48,0
68.00,58.72,0
47.00,58.16,0
45.00,57.53,0
54.00,56.72,0
36.00,55.79,0
111.00,55.21,0
50.00,55.48,0
68.00,56.16,0
67.00,56.91,0
73.00,57.88,0
51.00,58.88,0
80.00,59.81,0
64.00,60.80,0
56.00,61.73,0
63.00,62.37,0
51.00,62.72,0
36.00,62.57,0
96.00,62.20,0
38.00,62.06,0
52.00,61.75,0
52.00,61.08,0
40.00,60.17,0
36.00,58.88,0
52.00,57.30,0
36.00,55.67,0
46.00,53.99,0
71.00,52.58,0
47.00,51.71,0
40.00,51.03,0
60.00,50.37,0
44.00,49.90,0
38.00,49.42,0
85.00,49.12,0
41.00,49.32,0
87.00,49.95,0
58.00,51.02,0
51.00,52.25,0
52.00,53.20,0
107.00,54.34,0
55.00,56.06,0
50.00,57.72,0
46.00,58.74,0
61.00,59.25,0
46.00,59.44,0
56.00,59.35,0
44.00,58.99,0
36.00,58.25,0
36.00,57.01,0
50.00,55.50,0
40.00,53.96,0
45.00,52.46,0
36.00,50.95,0
90.00,49.84,0
37.00,49.43,0
60.00,49.34,0
69.00,49.50,0
56.00,50.09,0
48.00,50.78,0
73.00,51.48,0
53.00,52.35,0
93.00,53.54,0
78.00,55.29,0
91.00,57.60,0
104.00,60.47,0
92.00,63.87,0
111.00,67.65,0
101.00,71.72,0
106.00,75.90,0
95.00,79.94,0
118.00,83.79,0
100.00,87.50,0
142.00,91.23,0
107.00,95.10,0
100.00,98.67,0
105.00,101.52,0
65.00,103.44,0
134.00,104.53,0
98.00,105.46,0
85.00,106.11,0
101.00,106.15,0
60.00,105.53,0
76.00,104.04,0
55.00,101.66,0
49.00,98.43,0
51.00,94.41,0
56.00,89.94,0
55.00,85.37,0
80.00,81.11,0
67.00,77.53,0
71.00,74.59,0
50.00,72.04,0
108.00,70.02,0
96.00,69.15,0
76.00,69.31,0
90.00,69.93,0
89.00,70.94,0
86.00,72.29,0
80.00,73.75,0
151.00,75.69,0
80.00,78.48,0
97.00,81.38,0
89.00,83.90,0
108.00,86.20,0
109.00,88.52,0
134.00,91.16,0
134.00,94.39,0
101.00,97.87,0
131.00,101.15,0
75.00,103.91,0
153.00,106.17,0
82.00,108.19,0
74.00,109.39,0
56.00,109.06,0
64.00,107.28,0
60.00,104.41,0
54.00,100.74,0
59.00,96.51,0
58.00,92.00,0
50.00,87.38,0
59.00,82.78,0
56.00,78.39,0
58.00,74.36,0
70.00,70.84,0
80.00,68.12,0
111.00,66.62,0
139.00,66.94,0
67.00,68.75,0
76.00,70.74,0
118.00,72.70,0
161.00,75.70,0
96.00,79.90,0
111.00,84.28,0
120.00,88.44,0
78.00,92.22,0
122.00,95.34,0
73.00,97.82,0
127.00,99.74,0
92.00,101.36,0
141.00,102.97,0
73.00,104.49,0
137.00,105.70,0
81.00,106.66,0
67.00,106.87,0
79.00,105.94,0
47.00,103.98,0
48.00,100.87,0
75.00,96.98,0
53.00,92.88,0
56.00,88.67,0
59.00,84.39,0
58.00,80.26,0
52.00,76.34,0
77.00,72.82,0
76.00,70.07,0
65.00,68.09,0
130.00,67.12,0
121.00,67.86,0
88.00,69.99,0
158.00,73.04,0
127.00,77.37,0
134.00,82.62,0
104.00,88.00,0
78.00,92.65,0
132.00,96.36,0
93.00,99.59,0
82.00,102.06,0
94.00,103.46,0
81.00,104.01,0
90.00,103.85,0
122.00,103.46,0
98.00,103.31,0
73.00,103.02,0
57.00,101.87,0
47.00,99.55,0
43.00,96.10,0
72.00,91.99,0
49.00,87.78,0
48.00,83.48,0
53.00,79.10,0
48.00,74.82,0
57.00,70.80,0
50.00,67.16,0
64.00,64.00,0
76.00,61.58,0
106.00,60.38,0
79.00,60.49,0
121.00,61.76,0
123.00,64.37,0
88.00,67.98,0
126.00,71.99,0
105.00,76.33,0
88.00,80.62,0
95.00,84.32,0
82.00,87.32,0
78.00,89.49,0
111.00,91.06,0
83.00,92.42,0
66.00,93.23,0
84.00,93.22,0
138.00,93.21,0
65.00,93.63,0
66.00,93.61,0
55.00,92.59,0
57.00,90.68,0
58.00,88.10,0
83.00,85.35,0
60.00,82.77,0
43.00,80.12,0
70.00,77.23,0
60.00,74.49,0
46.00,71.89,0
86.00,69.51,0
127.00,68.26,0
70.00,68.44,0
109.00,69.45,0
98.00,71.11,0
103.00,73.40,0
130.00,76.30,0
66.00,79.53,0
88.00,82.25,0
80.00,84.25,0
113.00,85.97,0
110.00,87.88,0
101.00,90.01,0
130.00,92.30,0
75.00,94.60,0
138.00,96.67,0
86.00,98.67,0
158.00,100.78,0
78.00,103.02,0
66.00,104.47,0
50.00,104.23,0
49.00,102.39,0
44.00,99.18,0
54.00,95.02,0
48.00,90.38,0
47.00,85.50,0
51.00,80.56,0
49.00,75.78,0
55.00,71.34,0
68.00,67.47,0
98.00,64.69,0
120.00,63.64,0
59.00,64.02,0
113.00,65.08,0
80.00,66.78,0
151.00,69.36,0
76.00,72.81,0
92.00,76.31,0
112.00,79.51,0
69.00,82.50,0
144.00,85.30,0
138.00,88.71,0
91.00,92.59,0
97.00,95.93,0
90.00,98.38,0
129.00,100.35,0
106.00,102.28,0
105.00,104.06,0
99.00,105.39,0
68.00,105.99,0
50.00,105.31,0
48.00,103.09,0
92.00,99.97,0
48.00,96.61,0
67.00,92.96,0
67.00,89.17,0
78.00,85.65,0
58.00,82.47,0
70.00,79.50,0
54.00,76.71,0
96.00,74.31,0
89.00,72.81,0
77.00,72.15,0
100.00,72.11,0
75.00,72.60,0
107.00,73.52,0
71.00,74.76,0
97.00,76.10,0
114.00,77.73,0
83.00,79.76,0
77.00,81.63,0
98.00,83.11,0
91.00,84.50,0
86.00,85.79,0
94.00,86.88,0
59.00,87.59,0
125.00,88.02,0
77.00,88.62,0
53.00,88.90,0
96.00,88.48,0
54.00,87.71,0
50.00,86.32,0
50.00,84.10,0
48.00,81.27,0
36.00,77.93,0
46.00,74.19,0
46.00,70.34,0
52.00,66.66,0
57.00,63.38,0
57.00,60.62,0
48.00,58.34,0
72.00,56.54,0
68.00,55.45,0
58.00,55.00,0
82.00,55.03,0
59.00,55.56,0
86.00,56.48,0
78.00,57.88,0
66.00,59.57,0
59.00,61.11,0
78.00,62.43,0
61.00,63.65,0
69.00,64.69,0
53.00,65.43,0
55.00,65.73,0
38.00,65.44,0
72.00,64.73,0
48.00,63.96,0
49.00,63.05,0
48.00,61.87,0
38.00,60.45,0
55.00,58.84,0
43.00,57.25,0
42.00,55.66,0
95.00,54.45,0
42.00,53.99,0
37.00,53.64,0
37.00,52.87,0
44.00,51.81,0
46.00,50.71,0
39.00,49.65,0
64.00,48.75,0
37.00,48.14,0
62.00,47.74,0
59.00,47.67,0
63.00,48.06,0
46.00,48.68,0
79.00,49.48,0
54.00,50.58,0
112.00,52.23,0
63.00,54.57,0
58.00,57.00,0
78.00,59.08,0
57.00,60.96,0
53.00,62.39,0
84.00,63.46,0
63.00,64.52,0
46.00,65.30,0
59.00,65.51,0
58.00,65.33,0
47.00,64.87,0
70.00,64.21,0
37.00,63.43,0
43.00,62.30,0
81.00,61.06,0
36.00,60.09,0
48.00,59.03,0
64.00,57.90,0
42.00,56.92,0
51.00,55.94,0
96.00,55.33,0
42.00,55.39,0
56.00,55.56,0
50.00,55.53,0
57.00,55.44,0
58.00,55.37,0
94.00,55.69,0
69.00,56.70,0
51.00,57.92,0
44.00,58.72,0
72.00,59.12,0
55.00,59.48,0
62.00,59.80,0
61.00,60.06,0
83.00,60.47,0
66.00,61.21,0
64.00,62.05,0
36.00,62.54,0
52.00,62.40,0
48.00,61.78,0
47.00,60.88,0
41.00,59.69,0
47.00,58.27,0
39.00,56.69,0
85.00,55.35,0
39.00,54.56,0
37.00,53.80,0
54.00,52.83,0
40.00,51.87,0
46.00,50.92,0
54.00,50.04,0
59.00,49.49,0
62.00,49.36,0
88.00,49.88,0
61.00,51.09,0
68.00,52.62,0
94.00,54.45,0
65.00,56.69,0
66.00,58.91,0
108.00,61.18,0
45.00,63.59,0
68.00,65.51,0
44.00,66.66,0
67.00,67.18,0
48.00,67.21,0
79.00,67.02,0
46.00,66.74,0
50.00,66.15,0
53.00,65.16,0
54.00,63.99,0
38.00,62.63,0
67.00,61.15,0
39.00,59.75,0
38.00,58.22,0
44.00,56.45,0
39.00,54.60,0
42.00,52.74,0
50.00,51.01,0
41.00,49.53,0
39.00,48.18,0
42.00,46.89,0
49.00,45.78,0
101.00,45.42,0
51.00,46.16,0
59.00,47.37,0
68.00,48.68,0
64.00,50.21,0
49.00,51.73,0
64.00,53.05,0
54.00,54.21,0
83.00,55.41,0
58.00,56.79,0
46.00,57.98,0
47.00,58.60,0
58.00,58.76,0
60.00,58.78,0
49.00,58.72,0
79.00,58.70,0
42.00,58.80,0
42.00,58.63,0
43.00,57.95,0
39.00,56.89,0
74.00,55.81,0
57.00,55.17,0
37.00,54.72,0
40.00,53.98,0
51.00,53.01,0
65.00,52.24,0
58.00,51.91,0
73.00,52.05,0
54.00,52.57,0
76.00,53.35,0
67.00,54.45,0
55.00,55.67,0
43.00,56.58,0
114.00,57.51,0
77.00,59.19,0
56.00,61.20,0
54.00,62.70,0
51.00,63.55,0
57.00,63.85,0
68.00,63.89,0
46.00,63.79,0
66.00,63.47,0
52.00,63.03,0
54.00,62.46,0
39.00,61.61,0
38.00,60.32,0
36.00,58.59,0
61.00,56.76,0
34.00,55.07,0
51.00,53.46,0
61.00,52.09,0
36.00,51.06,0
43.00,50.04,0
66.00,49.17,0
60.00,48.82,0
56.00,48.95,0
69.00,49.42,0
70.00,50.33,0
70.00,51.67,0
56.00,53.17,0
62.00,54.58,0
69.00,55.89,0
87.00,57.42,0
61.00,59.19,0
59.00,60.80,0
63.00,62.01,0
57.00,62.88,0
53.00,63.36,0
127.00,64.03,0
59.00,65.45,0
58.00,66.87,0
67.00,67.73,0
41.00,68.08,0
38.00,67.62,0
63.00,66.53,0
40.00,65.18,0
64.00,63.72,0
45.00,62.25,0
38.00,60.67,0
48.00,58.86,0
50.00,57.06,0
58.00,55.51,0
40.00,54.20,0
52.00,52.98,0
84.00,52.19,0
92.00,52.45,0
52.00,53.56,0
99.00,55.08,0
63.00,56.99,0
65.00,58.96,0
57.00,60.57,0
102.00,62.12,0
93.00,64.16,0
86.00,66.69,0
72.00,69.19,0
64.00,71.24,0
59.00,72.57,0
118.00,73.67,0
46.00,74.89,0
52.00,75.50,0
53.00,75.15,0
44.00,74.06,0
58.00,72.42,0
46.00,70.48,0
39.00,68.24,0
40.00,65.63,0
39.00,62.79,0
38.00,59.85,0
70.00,57.16,0
53.00,55.14,0
45.00,53.61,0
53.00,52.29,0
68.00,51.38,0
54.00,50.99,0
68.00,51.04,0
47.00,51.35,0
58.00,51.70,0
80.00,52.27,0
65.00,53.31,0
79.00,54.73,0
70.00,56.43,0
57.00,58.13,0
108.00,59.92,0
49.00,61.97,0
41.00,63.52,0
53.00,64.12,0
52.00,64.10,0
62.00,63.78,0
67.00,63.43,0
42.00,63.04,0
47.00,62.29,0
48.00,61.19,0
56.00,59.97,0
48.00,58.78,0
62.00,57.71,0
42.00,56.75,0
44.00,55.72,0
53.00,54.60,0
45.00,53.56,0
58.00,52.66,0
67.00,52.12,0
67.00,52.13,0
55.00,52.53,0
104.00,53.42,0
44.00,54.87,0
56.00,56.20,0
61.00,57.15,0
65.00,58.00,0
56.00,58.76,0
73.00,59.46,0
41.00,60.04,0
54.00,60.22,0
58.00,60.07,0
66.00,59.92,0
56.00,59.86,0
77.00,59.94,0
43.00,60.11,0
68.00,60.16,0
67.00,60.25,0
48.00,60.39,0
50.00,60.25,0
78.00,60.03,0
40.00,59.91,0
59.00,59.63,0
70.00,59.34,0
44.00,59.16,0
44.00,58.73,0
77.00,58.19,0
48.00,57.89,0
40.00,57.51,0
86.00,57.09,0
41.00,56.97,0
52.00,56.81,0
62.00,56.52,0
78.00,56.54,0
37.00,56.78,0
44.00,56.72,0
48.00,56.22,0
59.00,55.63,0
54.00,55.16,0
68.00,54.92,0
52.00,54.92,0
73.00,55.13,0
43.00,55.46,0
37.00,55.50,0
44.00,55.02,0
76.00,54.49,0
42.00,54.26,0
80.00,54.28,0
53.00,54.60,0
45.00,54.95,0
74.00,55.19,0
44.00,55.51,0
42.00,55.60,0
81.00,55.56,0
42.00,55.73,0
49.00,55.78,0
70.00,55.71,0
47.00,55.76,0
44.00,55.68,0
47.00,55.28,0
39.00,54.61,0
42.00,53.68,0
68.00,52.77,0
56.00,52.28,0
53.00,52.09,0
57.00,52.04,0
37.00,51.97,0
56.00,51.74,0
101.00,51.92,0
63.00,53.01,0
64.00,54.48,0
56.00,55.84,0
60.00,56.98,0
62.00,57.93,0
68.00,58.82,0
50.00,59.60,0
73.00,60.21,0
41.00,60.65,0
53.00,60.69,0
64.00,60.46,0
48.00,60.17,0
56.00,59.75,0
48.00,59.18,0
40.00,58.37,0
40.00,57.21,0
42.00,55.78,0
51.00,54.29,0
84.00,53.24,0
45.00,52.86,0
58.00,52.75,0
42.00,52.59,0
44.00,52.28,0
40.00,51.71,0
122.00,51.60,0
73.00,52.77,0
89.00,54.86,0
96.00,57.50,0
63.00,60.45,0
82.00,63.22,0
123.00,66.12,0
178.00,70.33,0
81.00,75.83,0
95.00,81.09,0
96.00,85.44,0
104.00,89.15,0
128.00,92.59,0
86.00,95.83,0
91.00,98.36,0
92.00,100.01,0
55.00,100.68,0
58.00,100.02,0
40.00,97.93,0
51.00,94.68,0
46.00,90.64,0
38.00,86.07,0
45.00,81.13,0
43.00,76.09,0
43.00,71.19,0
45.00,66.55,0
58.00,62.40,0
60.00,59.01,0
95.00,56.74,0
89.00,55.96,0
77.00,56.40,0
68.00,57.44,0
103.00,58.95,0
112.00,61.34,0
75.00,64.46,0
115.00,67.82,0
81.00,71.32,0
121.00,74.90,0
69.00,78.40,0
126.00,81.64,0
108.00,84.95,0
56.00,87.95,0
101.00,89.98,0
64.00,91.20,0
94.00,91.79,0
82.00,91.97,0
52.00,91.62,0
41.00,90.19,0
67.00,87.80,0
39.00,84.84,0
50.00,81.39,0
62.00,77.74,0
44.00,74.20,0
49.00,70.70,0
51.00,67.29,0
48.00,64.12,0
46.00,61.19,0
88.00,58.82,0
65.00,57.45,0
68.00,56.86,0
91.00,56.95,0
67.00,57.75,0
67.00,58.86,0
67.00,59.98,0
75.00,61.12,0
60.00,62.26,0
83.00,63.37,0
69.00,64.55,0
40.00,65.48,0
52.00,65.68,0
58.00,65.32,0
42.00,64.62,0
81.00,63.81,0
44.00,63.12,0
49.00,62.32,0
50.00,61.23,0
41.00,59.95,0
38.00,58.40,0
43.00,56.60,0
37.00,54.70,0
50.00,52.83,0
36.00,51.09,0
38.00,49.40,0
56.00,47.87,0
41.00,46.70,0
39.00,45.73,0
51.00,44.89,0
72.00,44.53,0
55.00,44.85,0
84.00,45.80,0
66.00,47.39,0
70.00,49.40,0
62.00,51.50,0
85.00,53.70,0
65.00,56.04,0
70.00,58.33,0
64.00,60.36,0
83.00,62.23,0
75.00,64.12,0
88.00,66.09,0
60.00,67.97,0
80.00,69.53,0
57.00,70.71,0
83.00,71.55,0
40.00,72.01,0
86.00,72.03,0
56.00,71.88,0
47.00,71.42,0
49.00,70.35,0
44.00,68.78,0
42.00,66.79,0
54.00,64.58,0
36.00,62.30,0
37.00,59.84,0
50.00,57.33,0
42.00,54.99,0
44.00,52.87,0
52.00,51.02,0
56.00,49.61,0
67.00,48.82,0
63.00,48.69,0
67.00,49.14,0
93.00,50.26,0
64.00,52.06,0
99.00,54.35,0
68.00,57.02,0
86.00,59.82,0
63.00,62.48,0
95.00,64.97,0
64.00,67.33,0
76.00,69.37,0
58.00,70.89,0
72.00,71.88,0
61.00,72.43,0
86.00,72.76,0
54.00,72.98,0
44.00,72.71,0
52.00,71.70,0
36.00,70.10,0
40.00,67.92,0
52.00,65.41,0
37.00,62.84,0
40.00,60.17,0
64.00,57.65,0
45.00,55.59,0
37.00,53.77,0
46.00,51.97,0
58.00,50.43,0
53.00,49.37,0
66.00,48.84,0
85.00,49.05,0
73.00,50.16,0
76.00,51.87,0
94.00,54.09,0
87.00,56.91,0
97.00,60.18,0
75.00,63.62,0
75.00,66.80,0
76.00,69.49,0
75.00,71.74,0
56.00,73.40,0
91.00,74.54,0
61.00,75.41,0
93.00,76.10,0
61.00,76.66,0
77.00,76.96,0
51.00,76.84,0
42.00,76.03,0
44.00,74.39,0
92.00,72.52,0
49.00,71.00,0
43.00,69.41,0
37.00,67.34,0
54.00,64.95,0
40.00,62.51,0
57.00,60.17,0
48.00,58.07,0
58.00,56.30,0
85.00,55.15,0
73.00,54.94,0
86.00,55.60,0
57.00,56.75,0
78.00,58.05,0
73.00,59.48,0
117.00,61.42,0
92.00,64.16,0
83.00,67.30,0
85.00,70.29,0
108.00,73.23,0
68.00,76.09,0
111.00,78.68,0
70.00,81.03,0
70.00,82.79,0
79.00,83.78,0
72.00,84.24,0
75.00,84.27,0
56.00,83.80,0
57.00,82.68,0
48.00,80.89,0
44.00,78.49,0
40.00,75.53,0
37.00,72.10,0
45.00,68.42,0
42.00,64.76,0
56.00,61.36,0
46.00,58.40,0
49.00,55.85,0
106.00,54.14,0
64.00,53.73,0
69.00,54.14,0
76.00,54.96,0
76.00,56.23,0
72.00,57.81,0
116.00,59.88,0
85.00,62.69,0
95.00,65.90,0
59.00,68.93,0
81.00,71.38,0
67.00,73.26,0
118.00,75.02,0
69.00,76.96,0
83.00,78.69,0
53.00,79.78,0
74.00,80.15,0
57.00,79.91,0
94.00,79.42,0
50.00,78.86,0
37.00,77.74,0
44.00,75.69,0
37.00,72.96,0
36.00,69.76,0
51.00,66.34,0
39.00,63.01,0
38.00,59.78,0
50.00,56.71,0
53.00,54.08,0
54.00,52.03,0
54.00,50.52,0
75.00,49.67,0
68.00,49.63,0
71.00,50.29,0
69.00,51.43,0
75.00,52.95,0
66.00,54.70,0
72.00,56.54,0
71.00,58.39,0
78.00,60.27,0
68.00,62.15,0
84.00,63.99,0
53.00,65.66,0
60.00,66.82,0
51.00,67.36,0
70.00,67.44,0
49.00,67.27,0
63.00,66.82,0
47.00,66.10,0
46.00,65.05,0
41.00,63.60,0
53.00,61.88,0
37.00,60.06,0
42.00,58.08,0
40.00,55.99,0
38.00,53.87,0
40.00,51.76,0
42.00,49.78,0
42.00,48.00,0
41.00,46.43,0
65.00,45.27,0
48.00,44.71,0
60.00,44.63,0
52.00,44.92,0
76.00,45.63,0
55.00,46.81,0
76.00,48.32,0
55.00,50.04,0
75.00,51.85,0
52.00,53.63,0
74.00,55.31,0
51.00,56.82,0
74.00,58.17,0
55.00,59.36,0
65.00,60.37,0
39.00,60.98,0
58.00,61.10,0
45.00,60.81,0
63.00,60.33,0
37.00,59.69,0
60.00,58.85,0
37.00,57.87,0
37.00,56.63,0
45.00,55.11,0
36.00,53.47,0
40.00,51.76,0
43.00,50.05,0
41.00,48.48,0
44.00,47.09,0
54.00,45.98,0
45.00,45.25,0
76.00,45.02,0
50.00,45.39,0
58.00,46.12,0
47.00,46.90,0
62.00,47.72,0
53.00,48.61,0
87.00,49.79,0
52.00,51.35,0
76.00,53.04,0
45.00,54.64,0
71.00,56.00,0
48.00,57.13,0
82.00,58.16,0
45.00,59.14,0
60.00,59.85,0
40.00,60.10,0
45.00,59.83,0
38.00,59.03,0
46.00,57.86,0
34.00,56.41,0
35.00,54.67,0
38.00,52.72,0
37.00,50.71,0
36.00,48.73,0
40.00,46.84,0
46.00,45.20,0
40.00,43.88,0
53.00,42.91,0
40.00,42.28,0
54.00,41.96,0
44.00,41.91,0
57.00,42.13,0
41.00,42.55,0
66.00,43.16,0
52.00,44.05,0
65.00,45.22,0
40.00,46.44,0
68.00,47.59,0
47.00,48.74,0
84.00,50.03,0
45.00,51.50,0
62.00,52.87,0
40.00,53.89,0
55.00,54.51,0
37.00,54.72,0
62.00,54.65,0
34.00,54.40,0
49.00,53.89,0
36.00,53.11,0
44.00,52.12,0
36.00,50.97,0
44.00,49.73,0
37.00,48.48,0
33.00,47.17,0
44.00,45.83,0
36.00,44.60,0
48.00,43.54,0
41.00,42.73,0
49.00,42.18,0
37.00,41.82,0
64.00,41.71,0
43.00,41.97,0
60.00,42.51,0
50.00,43.28,0
55.00,44.21,0
44.00,45.14,0
72.00,46.13,0
40.00,47.24,0
70.00,48.36,0
44.00,49.46,0
61.00,50.47,0
42.00,51.30,0
61.00,51.92,0
45.00,52.41,0
56.00,52.76,0
40.00,52.92,0
52.00,52.84,0
35.00,52.51,0
51.00,51.95,0
35.00,51.23,0
43.00,50.34,0
37.00,49.30,0
37.00,48.16,0
44.00,46.98,0
36.00,45.86,0
47.00,44.84,0
37.00,43.96,0
45.00,43.21,0
38.00,42.58,0
53.00,42.13,0
41.00,41.92,0
58.00,41.98,0
41.00,42.27,0
55.00,42.70,0
50.00,43.28,0
81.00,44.24,0
48.00,45.66,0
67.00,47.25,0
40.00,48.73,0
72.00,50.05,0
41.00,51.26,0
78.00,52.40,0
39.00,53.48,0
60.00,54.33,0
39.00,54.80,0
63.00,55.02,0
35.00,55.01,0
49.00,54.69,0
36.00,54.03,0
60.00,53.24,0
38.00,52.48,0
39.00,51.61,0
46.00,50.58,0
36.00,49.51,0
46.00,48.41,0
42.00,47.38,0
50.00,46.52,0
40.00,45.83,0
60.00,45.37,0
36.00,45.13,0
57.00,45.02,0
46.00,45.08,0
54.00,45.30,0
43.00,45.61,0
63.00,46.01,0
41.00,46.53,0
64.00,47.12,0
40.00,47.74,0
65.00,48.35,0
38.00,48.94,0
59.00,49.43,0
40.00,49.78,0
51.00,49.97,0
35.00,49.93,0
67.00,49.80,0
38.00,49.76,0
42.00,49.62,0
39.00,49.20,0
41.00,48.59,0
35.00,47.81,0
38.00,46.86,0
40.00,45.84,0
40.00,44.86,0
50.00,44.03,0
36.00,43.40,0
49.00,42.90,0
40.00,42.54,0
64.00,42.45,0
40.00,42.71,0
59.00,43.17,0
43.00,43.76,0
69.00,44.52,0
40.00,45.46,0
59.00,46.39,0
39.00,47.18,0
68.00,47.93,0
38.00,48.67,0
78.00,49.45,0
43.00,50.38,0
51.00,51.19,0
41.00,51.66,0
50.00,51.81,0
37.00,51.69,0
68.00,51.47,0
39.00,51.36,0
44.00,51.14,0
42.00,50.69,0
41.00,50.06,0
38.00,49.26,0
44.00,48.36,0
39.00,47.44,0
35.00,46.47,0
46.00,45.48,0
35.00,44.56,0
47.00,43.73,0
38.00,43.04,0
50.00,42.52,0
40.00,42.19,0
55.00,42.08,0
42.00,42.19,0
58.00,42.50,0
38.00,42.96,0
58.00,43.47,0
41.00,44.04,0
64.00,44.70,0
40.00,45.45,0
59.00,46.19,0
38.00,46.85,0
61.00,47.43,0
37.00,47.92,0
56.00,48.29,0
35.00,48.50,0
49.00,48.50,0
35.00,48.28,0
47.00,47.89,0
35.00,47.37,0
45.00,46.74,0
36.00,46.05,0
41.00,45.31,0
38.00,44.54,0
38.00,43.76,0
40.00,43.00,0
37.00,42.28,0
47.00,41.66,0
35.00,41.19,0
52.00,40.86,0
35.00,40.70,0
50.00,40.66,0
38.00,40.71,0
54.00,40.89,0
40.00,41.21,0
59.00,41.68,0
41.00,42.31,0
54.00,43.00,0
39.00,43.65,0
64.00,44.33,0
37.00,45.07,0
74.00,45.89,0
36.00,46.82,0
55.00,47.65,0
37.00,48.21,0
52.00,48.54,0
36.00,48.65,0
54.00,48.60,0
36.00,48.44,0
46.00,48.13,0
34.00,47.65,0
37.00,46.95,0
35.00,46.06,0
40.00,45.07,0
39.00,44.10,0
36.00,43.18,0
40.00,42.30,0
36.00,41.49,0
43.00,40.78,0
39.00,40.23,0
46.00,39.86,0
37.00,39.65,0
56.00,39.63,0
37.00,39.85,0
54.00,40.22,0
37.00,40.67,0
61.00,41.24,0
39.00,41.94,0
56.00,42.70,0
34.00,43.40,0
60.00,44.01,0
36.00,44.59,0
57.00,45.12,0
39.00,45.60,0
55.00,46.02,0
35.00,46.34,0
50.00,46.50,0
35.00,46.48,0
50.00,46.34,0
37.00,46.12,0
43.00,45.81,0
37.00,45.38,0
45.00,44.90,0
38.00,44.41,0
36.00,43.86,0
46.00,43.29,0
37.00,42.78,0
46.00,42.36,0
37.00,42.01,0
49.00,41.75,0
38.00,41.60,0
48.00,41.54,0
35.00,41.52,0
50.00,41.52,0
40.00,41.60,0
52.00,41.78,0
37.00,42.04,0
58.00,42.37,0
38.00,42.80,0
61.00,43.32,0
36.00,43.90,0
52.00,44.43,0
36.00,44.81,0
55.00,45.10,0
34.00,45.31,0
56.00,45.46,0
35.00,45.56,0
46.00,45.55,0
36.00,45.39,0
43.00,45.09,0
38.00,44.70,0
43.00,44.26,0
38.00,43.80,0
41.00,43.33,0
43.00,42.88,0
36.00,42.48,0
50.00,42.12,0
35.00,41.88,0
49.00,41.70,0
36.00,41.59,0
48.00,41.52,0
36.00,41.49,0
