368.00,367.98,1
369.00,380.41,1
53.00,386.78,1
59.00,383.23,1
49.00,369.56,1
670.00,353.66,1
84.00,342.09,1
177.00,330.38,1
78.00,314.70,1
50.00,295.50,1
634.00,277.84,1
599.00,271.12,1
463.00,276.05,1
167.00,284.65,1
278.00,290.64,1
458.00,295.34,1
214.00,300.79,1
401.00,305.63,1
619.00,312.73,1
106.00,322.19,1
500.00,329.74,1
124.00,334.72,1
100.00,334.41,1
212.00,327.59,1
352.00,318.77,1
95.00,309.88,1
387.00,300.55,1
163.00,292.05,1
562.00,286.49,1
304.00,285.91,1
79.00,286.36,1
439.00,284.70,1
95.00,282.72,1
90.00,277.79,1
229.00,268.98,1
99.00,258.75,1
40.00,246.27,1
305.00,232.59,1
165.00,221.24,1
420.00,214.03,1
166.00,211.17,1
114.00,209.18,1
53.00,204.44,1
270.00,198.15,1
113.00,192.65,1
276.00,188.49,1
650.00,189.93,1
199.00,199.35,1
441.00,212.26,1
60.00,224.48,1
347.00,233.86,1
316.00,242.09,1
268.00,250.65,1
209.00,257.63,1
229.00,261.97,1
120.00,263.12,1
708.00,265.03,1
224.00,272.22,1
178.00,279.72,1
287.00,283.34,1
85.00,283.64,1
302.00,280.76,1
170.00,276.38,1
386.00,272.40,1
58.00,268.64,1
514.00,265.30,1
205.00,264.68,1
121.00,264.09,1
47.00,258.96,1
127.00,249.30,1
144.00,237.42,1
44.00,224.34,1
177.00,210.36,1
176.00,197.53,1
144.00,186.80,1
220.00,178.13,1
267.00,172.68,1
295.00,171.48,1
339.00,174.82,1
413.00,183.06,1
163.00,194.28,1
328.00,205.20,1
220.00,215.32,1
188.00,223.80,1
161.00,229.09,1
340.00,232.54,1
268.00,236.65,1
434.00,242.80,1
236.00,250.76,1
392.00,259.27,1
251.00,267.67,1
202.00,274.26,1
346.00,278.48,1
325.00,282.56,1
246.00,286.58,1
143.00,288.07,1
238.00,286.07,1
274.00,282.49,1
59.00,277.41,1
53.00,268.00,1
72.00,253.91,1
53.00,236.91,1
135.00,218.70,1
290.00,202.69,1
187.00,191.28,1
167.00,183.18,1
71.00,175.86,1
212.00,168.80,1
303.00,164.44,1
559.00,167.17,1
80.00,176.10,1
401.00,186.33,1
217.00,197.05,1
322.00,208.25,1
277.00,219.29,1
441.00,231.35,1
500.00,246.55,1
242.00,263.89,1
387.00,279.67,1
270.00,293.04,1
384.00,304.36,1
40.00,311.81,1
480.00,314.97,1
267.00,317.43,1
295.00,319.63,1
65.00,318.37,1
397.00,313.61,1
210.00,308.46,1
71.00,301.71,1
163.00,290.73,1
84.00,276.72,1
72.00,260.29,1
78.00,241.64,1
112.00,222.31,1
270.00,205.00,1
64.00,190.98,1
359.00,180.28,1
256.00,174.74,1
292.00,174.37,1
212.00,177.09,1
379.00,182.37,1
164.00,189.74,1
360.00,197.91,1
426.00,208.41,1
366.00,222.57,1
211.00,237.28,1
374.00,250.21,1
263.00,261.87,1
255.00,271.62,1
241.00,278.44,1
315.00,283.09,1
323.00,287.14,1
340.00,291.47,1
286.00,295.78,1
234.00,298.75,1
206.00,299.07,1
222.00,296.55,1
337.00,292.98,1
53.00,288.42,1
105.00,279.87,1
62.00,266.79,1
102.00,250.70,1
83.00,233.04,1
119.00,215.10,1
343.00,199.84,1
336.00,191.12,1
175.00,187.98,1
200.00,186.71,1
434.00,187.90,1
335.00,194.23,1
266.00,203.94,1
466.00,215.60,1
354.00,230.23,1
369.00,246.46,1
481.00,263.65,1
424.00,282.47,1
224.00,300.30,1
124.00,312.18,1
309.00,317.37,1
216.00,318.72,1
680.00,320.95,1
78.00,325.69,1
165.00,326.81,1
194.00,321.81,1
363.00,314.95,1
174.00,308.37,1
884.00,306.34,1
245.00,312.74,1
49.00,319.02,1
282.00,318.40,1
162.00,313.76,1
42.00,305.24,1
61.00,291.19,1
39.00,272.59,1
94.00,251.29,1
415.00,232.10,1
308.00,220.06,1
390.00,215.47,1
277.00,216.20,1
112.00,218.32,1
127.00,217.87,1
534.00,217.77,1
189.00,221.95,1
472.00,229.27,1
384.00,239.82,1
120.00,251.14,1
145.00,257.79,1
241.00,259.67,1
380.00,260.83,1
187.00,262.91,1
117.00,262.96,1
48.00,258.16,1
78.00,248.35,1
214.00,236.10,1
191.00,224.75,1
65.00,214.16,1
90.00,202.39,1
44.00,189.14,1
155.00,175.58,1
90.00,163.13,1
65.00,151.58,1
97.00,140.41,1
80.00,130.08,1
242.00,122.05,1
249.00,118.64,1
311.00,120.81,1
281.00,128.08,1
281.00,138.93,1
229.00,151.45,1
256.00,164.22,1
375.00,177.71,1
264.00,192.57,1
327.00,207.67,1
419.00,223.31,1
96.00,238.24,1
298.00,249.24,1
152.00,256.33,1
353.00,261.14,1
523.00,267.56,1
286.00,277.49,1
151.00,286.16,1
116.00,289.10,1
127.00,285.94,1
235.00,279.06,1
155.00,270.83,1
257.00,262.25,1
65.00,253.14,1
211.00,242.80,1
69.00,231.50,1
87.00,218.89,1
64.00,204.63,1
82.00,189.43,1
76.00,174.13,1
106.00,159.56,1
139.00,146.73,1
224.00,137.16,1
272.00,132.45,1
353.00,133.76,1
127.00,139.43,1
335.00,146.91,1
433.00,157.86,1
338.00,173.68,1
446.00,192.77,1
508.00,215.32,1
351.00,240.32,1
453.00,265.14,1
254.00,287.72,1
399.00,306.62,1
225.00,321.38,1
208.00,330.67,1
234.00,334.02,1
260.00,333.22,1
155.00,329.13,1
232.00,321.77,1
187.00,312.23,1
46.00,300.05,1
245.00,285.19,1
131.00,270.00,1
161.00,255.03,1
108.00,239.84,1
66.00,224.02,1
197.00,208.23,1
265.00,195.35,1
142.00,186.29,1
166.00,179.15,1
366.00,174.74,1
347.00,175.87,1
295.00,182.07,1
311.00,191.06,1
372.00,202.22,1
340.00,215.53,1
199.00,228.84,1
223.00,239.34,1
398.00,248.03,1
423.00,258.33,1
472.00,271.78,1
285.00,286.73,1
304.00,299.74,1
633.00,312.32,1
223.00,326.34,1
272.00,337.36,1
304.00,343.42,1
244.00,345.96,1
156.00,344.27,1
276.00,338.50,1
193.00,330.40,1
157.00,320.10,1
73.00,306.49,1
229.00,290.42,1
205.00,274.68,1
162.00,260.25,1
192.00,246.63,1
94.00,233.42,1
100.00,219.65,1
118.00,205.30,1
337.00,193.17,1
296.00,186.53,1
178.00,184.46,1
244.00,184.20,1
352.00,186.30,1
384.00,192.73,1
180.00,202.02,1
331.00,211.28,1
464.00,222.14,1
386.00,236.62,1
316.00,252.62,1
296.00,267.28,1
381.00,280.24,1
426.00,293.09,1
420.00,306.81,1
354.00,320.48,1
278.00,331.89,1
96.00,337.90,1
211.00,336.98,1
139.00,330.60,1
71.00,319.49,1
102.00,303.59,1
173.00,285.20,1
125.00,266.55,1
155.00,248.35,1
337.00,232.69,1
37.00,220.25,1
104.00,207.78,1
83.00,194.12,1
66.00,180.12,1
56.00,165.77,1
71.00,151.42,1
74.00,137.76,1
190.00,126.20,1
147.00,118.20,1
84.00,112.92,1
190.00,109.34,1
254.00,108.94,1
197.00,112.43,1
517.00,120.99,1
260.00,135.82,1
385.00,154.37,1
54.00,172.33,1
435.00,187.95,1
395.00,204.54,1
313.00,223.16,1
298.00,240.82,1
273.00,256.06,1
234.00,268.07,1
304.00,276.98,1
151.00,282.80,1
257.00,285.03,1
180.00,284.28,1
154.00,280.71,1
98.00,273.58,1
309.00,264.59,1
75.00,255.54,1
96.00,244.81,1
143.00,231.95,1
252.00,219.75,1
114.00,209.51,1
185.00,200.30,1
52.00,191.10,1
187.00,181.71,1
172.00,173.51,1
77.00,166.56,1
190.00,160.05,1
343.00,156.41,1
247.00,157.73,1
330.00,163.20,1
176.00,170.93,1
455.00,180.56,1
259.00,193.05,1
383.00,207.35,1
306.00,222.36,1
397.00,237.93,1
352.00,253.89,1
223.00,268.57,1
439.00,281.08,1
198.00,292.02,1
414.00,301.01,1
393.00,309.61,1
273.00,318.08,1
183.00,323.29,1
105.00,322.64,1
196.00,316.38,1
156.00,306.59,1
99.00,294.01,1
102.00,278.50,1
59.00,260.46,1
43.00,240.26,1
76.00,218.74,1
172.00,198.17,1
131.00,180.54,1
90.00,165.51,1
254.00,153.29,1
250.00,145.93,1
295.00,144.22,1
284.00,147.48,1
376.00,155.38,1
299.00,167.36,1
380.00,182.16,1
367.00,199.18,1
388.00,217.94,1
251.00,236.52,1
346.00,253.04,1
322.00,267.69,1
329.00,280.87,1
222.00,291.54,1
203.00,298.08,1
126.00,299.38,1
201.00,295.93,1
278.00,290.16,1
68.00,282.97,1
253.00,273.64,1
166.00,263.63,1
66.00,252.64,1
102.00,239.24,1
45.00,223.78,1
67.00,206.80,1
68.00,189.11,1
43.00,171.45,1
239.00,155.61,1
127.00,143.81,1
260.00,136.30,1
209.00,133.18,1
422.00,135.54,1
355.00,144.60,1
326.00,158.77,1
149.00,173.83,1
423.00,188.18,1
238.00,203.07,1
387.00,218.28,1
334.00,233.75,1
434.00,250.11,1
315.00,266.82,1
409.00,282.86,1
218.00,296.86,1
207.00,306.38,1
249.00,310.74,1
328.00,312.30,1
130.00,311.73,1
123.00,306.89,1
126.00,297.21,1
84.00,283.72,1
78.00,267.18,1
113.00,248.69,1
199.00,230.57,1
266.00,215.59,1
82.00,203.80,1
271.00,193.90,1
86.00,185.83,1
145.00,178.42,1
278.00,172.29,1
272.00,170.00,1
301.00,171.94,1
271.00,177.17,1
203.00,183.94,1
190.00,190.16,1
411.00,196.81,1
402.00,207.01,1
474.00,221.98,1
311.00,239.78,1
326.00,257.14,1
247.00,271.83,1
544.00,285.27,1
203.00,298.80,1
295.00,309.47,1
234.00,315.84,1
332.00,319.31,1
336.00,321.58,1
307.00,323.51,1
165.00,323.50,1
59.00,318.60,1
212.00,308.48,1
38.00,294.86,1
178.00,278.65,1
67.00,260.95,1
122.00,242.49,1
89.00,223.76,1
52.00,205.04,1
102.00,186.48,1
253.00,170.43,1
54.00,158.06,1
243.00,148.43,1
178.00,142.14,1
310.00,140.21,1
419.00,144.18,1
331.00,154.73,1
298.00,169.08,1
361.00,185.07,1
605.00,204.61,1
380.00,228.94,1
491.00,255.25,1
352.00,280.97,1
390.00,304.34,1
314.00,323.99,1
206.00,338.34,1
141.00,345.12,1
355.00,345.77,1
182.00,343.36,1
286.00,338.45,1
138.00,330.90,1
125.00,319.84,1
57.00,304.46,1
45.00,285.04,1
55.00,262.50,1
69.00,238.48,1
104.00,214.77,1
90.00,192.68,1
106.00,172.73,1
39.00,154.68,1
354.00,140.30,1
468.00,134.92,1
404.00,140.36,1
577.00,155.23,1
363.00,177.45,1
415.00,202.71,1
308.00,227.63,1
527.00,251.98,1
272.00,275.68,1
457.00,297.21,1
272.00,315.79,1
332.00,330.49,1
145.00,339.65,1
256.00,342.54,1
189.00,340.42,1
165.00,334.18,1
256.00,324.82,1
134.00,313.67,1
218.00,300.97,1
74.00,286.69,1
73.00,269.97,1
109.00,251.06,1
47.00,231.20,1
52.00,210.56,1
286.00,191.51,1
182.00,177.36,1
93.00,166.90,1
289.00,158.87,1
384.00,156.22,1
383.00,160.91,1
392.00,171.92,1
380.00,187.35,1
388.00,205.62,1
52.00,222.68,1
360.00,235.31,1
396.00,246.79,1
454.00,260.62,1
378.00,276.48,1
371.00,292.43,1
320.00,306.79,1
287.00,318.29,1
299.00,326.38,1
310.00,331.61,1
278.00,334.53,1
278.00,335.15,1
110.00,332.31,1
76.00,323.94,1
321.00,311.72,1
67.00,298.62,1
130.00,283.58,1
123.00,266.51,1
205.00,249.52,1
120.00,233.76,1
126.00,218.78,1
233.00,205.17,1
241.00,194.95,1
164.00,188.01,1
98.00,182.04,1
383.00,177.63,1
127.00,176.61,1
272.00,177.51,1
321.00,180.52,1
198.00,186.05,1
270.00,192.27,1
179.00,198.21,1
424.00,204.88,1
264.00,213.87,1
416.00,224.93,1
123.00,235.97,1
401.00,245.34,1
279.00,254.31,1
353.00,263.55,1
278.00,272.31,1
301.00,279.96,1
199.00,285.45,1
139.00,287.13,1
96.00,283.55,1
114.00,275.14,1
175.00,263.77,1
76.00,250.83,1
132.00,236.51,1
44.00,220.98,1
81.00,204.34,1
96.00,187.43,1
39.00,170.97,1
99.00,155.08,1
39.00,140.16,1
124.00,126.68,1
314.00,117.22,1
200.00,113.99,1
177.00,115.19,1
312.00,119.45,1
290.00,127.80,1
381.00,140.56,1
452.00,158.05,1
126.00,177.80,1
298.00,195.21,1
122.00,208.96,1
501.00,221.12,1
258.00,234.48,1
311.00,247.87,1
236.00,259.07,1
195.00,267.08,1
176.00,270.99,1
270.00,271.73,1
78.00,269.87,1
127.00,264.09,1
180.00,255.17,1
61.00,244.48,1
76.00,231.34,1
63.00,215.96,1
115.00,199.76,1
142.00,184.43,1
55.00,170.43,1
200.00,157.90,1
95.00,147.72,1
269.00,140.53,1
402.00,138.94,1
241.00,143.96,1
255.00,152.43,1
410.00,163.39,1
291.00,177.61,1
251.00,192.79,1
446.00,208.19,1
127.00,223.52,1
628.00,238.74,1
389.00,257.06,1
269.00,276.37,1
264.00,291.76,1
468.00,304.27,1
208.00,315.35,1
235.00,322.60,1
238.00,325.03,1
475.00,325.95,1
348.00,328.55,1
205.00,331.04,1
69.00,328.80,1
74.00,319.61,1
169.00,305.26,1
171.00,289.07,1
125.00,272.45,1
194.00,255.91,1
56.00,239.59,1
54.00,222.25,1
106.00,203.97,1
146.00,186.75,1
44.00,171.15,1
140.00,156.73,1
225.00,145.13,1
168.00,137.78,1
329.00,134.96,1
510.00,139.57,1
383.00,152.77,1
293.00,170.71,1
315.00,189.31,1
304.00,207.35,1
318.00,224.46,1
208.00,239.53,1
308.00,251.66,1
309.00,261.92,1
198.00,270.35,1
222.00,275.46,1
298.00,277.98,1
338.00,280.26,1
139.00,281.93,1
188.00,280.51,1
156.00,275.68,1
152.00,268.29,1
62.00,258.10,1
185.00,245.61,1
45.00,231.97,1
78.00,216.80,1
120.00,200.76,1
110.00,185.47,1
89.00,171.25,1
198.00,158.80,1
108.00,148.99,1
142.00,141.20,1
235.00,135.82,1
190.00,133.85,1
334.00,135.76,1
275.00,142.10,1
161.00,150.84,1
348.00,160.29,1
356.00,172.19,1
287.00,186.67,1
297.00,201.63,1
423.00,217.09,1
377.00,234.21,1
118.00,250.19,1
331.00,261.84,1
224.00,270.33,1
324.00,276.94,1
170.00,281.43,1
227.00,282.90,1
206.00,281.50,1
127.00,277.46,1
220.00,270.85,1
127.00,262.58,1
88.00,252.25,1
43.00,238.95,1
70.00,222.95,1
127.00,205.97,1
79.00,189.58,1
107.00,174.08,1
279.00,161.29,1
223.00,153.56,1
116.00,149.57,1
183.00,146.86,1
274.00,146.20,1
233.00,148.80,1
330.00,154.69,1
237.00,163.36,1
230.00,173.10,1
426.00,184.05,1
351.00,198.11,1
236.00,213.54,1
383.00,228.17,1
431.00,243.58,1
374.00,260.59,1
490.00,278.70,1
204.00,296.12,1
128.00,308.06,1
128.00,311.78,1
263.00,309.66,1
259.00,305.37,1
168.00,299.87,1
267.00,292.90,1
100.00,284.52,1
41.00,272.93,1
62.00,257.14,1
244.00,240.03,1
187.00,225.18,1
93.00,212.33,1
45.00,199.01,1
68.00,184.40,1
79.00,169.35,1
47.00,154.57,1
110.00,140.56,1
243.00,129.48,1
338.00,124.50,1
421.00,127.74,1
252.00,137.79,1
176.00,149.98,1
315.00,161.87,1
382.00,175.38,1
383.00,191.91,1
350.00,210.54,1
354.00,229.60,1
211.00,246.97,1
319.00,261.06,1
313.00,272.73,1
324.00,283.08,1
283.00,291.86,1
260.00,298.40,1
320.00,302.80,1
167.00,304.92,1
216.00,303.66,1
151.00,298.89,1
294.00,292.08,1
100.00,284.20,1
126.00,273.96,1
207.00,261.77,1
56.00,248.78,1
67.00,233.90,1
221.00,218.26,1
158.00,204.66,1
177.00,193.47,1
134.00,183.90,1
69.00,174.81,1
131.00,165.45,1
303.00,158.12,1
183.00,154.90,1
215.00,154.62,1
281.00,156.73,1
406.00,162.92,1
326.00,173.95,1
300.00,187.83,1
498.00,203.99,1
443.00,223.92,1
286.00,245.48,1
326.00,264.83,1
385.00,281.71,1
332.00,297.04,1
385.00,310.71,1
246.00,321.98,1
279.00,329.45,1
118.00,331.86,1
159.00,328.22,1
90.00,318.96,1
244.00,306.24,1
135.00,292.33,1
98.00,277.15,1
164.00,260.57,1
137.00,244.02,1
39.00,227.26,1
76.00,209.45,1
97.00,191.38,1
172.00,174.96,1
241.00,162.33,1
253.00,154.83,1
91.00,150.94,1
161.00,147.92,1
248.00,146.20,1
328.00,148.24,1
282.00,154.71,1
429.00,165.45,1
362.00,180.60,1
366.00,198.82,1
418.00,218.60,1
463.00,240.19,1
520.00,264.15,1
392.00,289.31,1
318.00,312.27,1
73.00,328.44,1
495.00,337.76,1
142.00,343.62,1
126.00,344.12,1
115.00,337.35,1
71.00,324.53,1
160.00,307.52,1
73.00,288.25,1
99.00,267.41,1
83.00,245.67,1
120.00,224.19,1
99.00,203.94,1
44.00,184.80,1
180.00,167.16,1
159.00,152.88,1
290.00,143.48,1
293.00,140.08,1
179.00,141.67,1
260.00,145.70,1
321.00,152.37,1
474.00,163.88,1
300.00,180.18,1
431.00,199.10,1
296.00,218.97,1
416.00,238.72,1
284.00,257.50,1
403.00,274.72,1
256.00,289.85,1
289.00,301.70,1
146.00,308.82,1
192.00,310.38,1
260.00,307.86,1
203.00,303.32,1
216.00,297.15,1
132.00,288.97,1
48.00,277.52,1
103.00,262.38,1
108.00,245.16,1
100.00,227.40,1
44.00,209.29,1
104.00,191.03,1
76.00,173.54,1
59.00,157.11,1
158.00,142.34,1
290.00,131.91,1
205.00,127.39,1
386.00,128.68,1
380.00,136.62,1
351.00,150.45,1
332.00,167.64,1
288.00,185.96,1
390.00,204.46,1
421.00,224.07,1
418.00,245.22,1
509.00,267.77,1
300.00,290.38,1
238.00,309.08,1
528.00,323.86,1
46.00,335.46,1
276.00,340.53,1
207.00,339.82,1
189.00,335.26,1
261.00,327.69,1
54.00,317.44,1
220.00,303.93,1
119.00,288.66,1
104.00,272.16,1
156.00,254.60,1
62.00,236.78,1
138.00,218.89,1
88.00,201.58,1
81.00,185.01,1
124.00,169.39,1
246.00,156.68,1
270.00,149.16,1
370.00,148.04,1
338.00,153.38,1
347.00,163.89,1
399.00,178.28,1
226.00,194.68,1
352.00,210.65,1
318.00,226.13,1
258.00,240.72,1
336.00,253.52,1
445.00,266.21,1
367.00,280.29,1
509.00,295.65,1
242.00,310.99,1
373.00,323.66,1
160.00,332.07,1
174.00,334.68,1
222.00,331.66,1
251.00,325.54,1
300.00,318.60,1
240.00,311.82,1
323.00,305.47,1
38.00,298.17,1
39.00,286.37,1
81.00,269.61,1
116.00,250.61,1
88.00,231.20,1
48.00,211.60,1
82.00,191.93,1
138.00,173.51,1
100.00,157.56,1
248.00,145.08,1
251.00,137.83,1
202.00,135.62,1
392.00,138.09,1
423.00,147.09,1
390.00,162.59,1
378.00,182.08,1
309.00,202.87,1
252.00,222.31,1
340.00,239.25,1
434.00,255.51,1
217.00,271.19,1
310.00,283.89,1
245.00,293.09,1
291.00,299.41,1
207.00,302.82,1
334.00,304.00,1
307.00,304.61,1
116.00,303.78,1
108.00,298.45,1
53.00,287.68,1
41.00,272.03,1
157.00,253.54,1
74.00,234.63,1
125.00,216.04,1
199.00,199.08,1
101.00,184.78,1
286.00,173.47,1
165.00,166.07,1
165.00,161.42,1
271.00,158.88,1
300.00,160.00,1
269.00,164.97,1
286.00,172.59,1
321.00,182.29,1
337.00,194.14,1
383.00,208.14,1
371.00,224.06,1
445.00,241.79,1
439.00,261.30,1
398.00,281.70,1
361.00,301.10,1
275.00,317.42,1
130.00,327.91,1
296.00,331.94,1
321.00,332.66,1
37.00,330.28,1
362.00,323.78,1
68.00,314.98,1
38.00,302.35,1
42.00,284.29,1
80.00,262.89,1
208.00,241.30,1
44.00,221.39,1
50.00,201.77,1
49.00,181.77,1
207.00,163.48,1
136.00,149.15,1
295.00,139.69,1
290.00,136.34,1
157.00,137.81,1
228.00,141.25,1
324.00,146.99,1
547.00,158.22,1
249.00,175.34,1
322.00,193.93,1
197.00,210.66,1
398.00,225.61,1
502.00,241.84,1
270.00,260.00,1
304.00,276.33,1
237.00,288.83,1
395.00,298.49,1
321.00,307.09,1
330.00,314.78,1
157.00,319.64,1
186.00,319.56,1
252.00,315.38,1
124.00,308.52,1
232.00,299.18,1
78.00,287.67,1
48.00,273.00,1
110.00,255.18,1
149.00,236.59,1
42.00,218.37,1
111.00,200.14,1
164.00,183.18,1
109.00,168.77,1
233.00,157.31,1
349.00,151.10,1
208.00,150.76,1
347.00,154.70,1
442.00,163.71,1
260.00,177.47,1
332.00,192.74,1
340.00,208.44,1
303.00,224.40,1
468.00,240.80,1
444.00,259.22,1
185.00,277.43,1
373.00,291.90,1
353.00,303.86,1
302.00,314.31,1
226.00,321.64,1
190.00,324.38,1
122.00,321.68,1
308.00,315.10,1
47.00,306.17,1
108.00,293.46,1
37.00,276.53,1
42.00,256.35,1
50.00,233.94,1
192.00,211.88,1
52.00,192.12,1
66.00,173.75,1
141.00,156.73,1
130.00,142.56,1
168.00,131.77,1
131.00,124.16,1
114.00,118.78,1
408.00,117.13,1
263.00,121.93,1
556.00,133.94,1
295.00,152.43,1
299.00,173.38,1
199.00,192.59,1
99.00,207.42,1
197.00,216.77,1
457.00,224.55,1
269.00,234.43,1
292.00,244.81,1
204.00,253.35,1
176.00,258.70,1
106.00,259.71,1
204.00,256.79,1
97.00,251.12,1
46.00,242.16,1
48.00,229.27,1
40.00,213.42,1
152.00,196.65,1
98.00,181.05,1
81.00,166.75,1
65.00,153.07,1
151.00,140.61,1
138.00,130.66,1
60.00,122.80,1
111.00,115.81,1
274.00,111.27,1
258.00,111.73,1
288.00,117.29,1
358.00,127.53,1
336.00,142.13,1
303.00,159.57,1
264.00,177.55,1
347.00,195.07,1
281.00,212.18,1
344.00,228.52,1
270.00,243.62,1
224.00,256.21,1
341.00,266.06,1
191.00,273.83,1
272.00,278.88,1
299.00,282.04,1
334.00,285.06,1
289.00,288.33,1
261.00,290.98,1
258.00,292.20,1
85.00,290.54,1
128.00,284.25,1
169.00,274.28,1
53.00,261.87,1
60.00,246.54,1
167.00,229.56,1
61.00,212.82,1
125.00,196.48,1
146.00,181.35,1
206.00,169.00,1
187.00,160.18,1
137.00,154.10,1
178.00,149.66,1
405.00,148.76,1
318.00,154.03,1
285.00,163.89,1
279.00,175.59,1
141.00,186.82,1
363.00,196.82,1
377.00,208.19,1
334.00,221.98,1
350.00,236.63,1
335.00,251.24,1
474.00,266.37,1
120.00,280.65,1
168.00,289.55,1
185.00,292.06,1
275.00,291.06,1
233.00,288.67,1
286.00,285.81,1
76.00,281.46,1
69.00,273.06,1
125.00,260.40,1
63.00,245.29,1
187.00,229.31,1
129.00,214.24,1
192.00,200.98,1
88.00,189.22,1
60.00,177.57,1
134.00,165.68,1
164.00,155.24,1
180.00,147.46,1
260.00,143.18,1
208.00,142.69,1
310.00,145.75,1
411.00,153.54,1
209.00,165.49,1
228.00,177.83,1
409.00,190.19,1
431.00,205.50,1
378.00,223.94,1
147.00,241.59,1
276.00,254.86,1
416.00,265.73,1
376.00,277.48,1
332.00,289.63,1
321.00,300.53,1
308.00,309.49,1
194.00,315.39,1
40.00,315.50,1
110.00,308.33,1
83.00,295.55,1
179.00,279.87,1
66.00,262.87,1
54.00,244.31,1
37.00,223.89,1
134.00,203.15,1
87.00,183.92,1
59.00,166.25,1
188.00,150.57,1
37.00,137.59,1
95.00,126.13,1
234.00,117.05,1
127.00,111.97,1
259.00,110.63,1
302.00,113.74,1
360.00,122.42,1
233.00,135.38,1
372.00,150.63,1
334.00,168.05,1
139.00,185.50,1
328.00,200.39,1
392.00,214.89,1
355.00,230.93,1
206.00,246.32,1
291.00,258.62,1
268.00,268.14,1
301.00,275.83,1
167.00,281.12,1
218.00,282.89,1
120.00,280.86,1
170.00,275.17,1
255.00,267.63,1
101.00,259.52,1
192.00,250.08,1
67.00,239.20,1
40.00,226.06,1
94.00,210.60,1
40.00,194.05,1
154.00,177.77,1
51.00,162.83,1
154.00,149.47,1
365.00,140.38,1
208.00,137.85,1
302.00,140.39,1
314.00,146.99,1
383.00,158.03,1
256.00,172.27,1
370.00,187.83,1
308.00,204.25,1
408.00,221.50,1
311.00,239.16,1
350.00,256.07,1
246.00,270.85,1
196.00,281.69,1
147.00,287.13,1
345.00,288.67,1
108.00,288.08,1
297.00,285.22,1
239.00,281.37,1
142.00,276.73,1
86.00,269.04,1
52.00,257.35,1
222.00,243.39,1
47.00,229.24,1
57.00,213.95,1
156.00,197.88,1
83.00,182.87,1
152.00,169.32,1
194.00,158.23,1
105.00,149.90,1
164.00,143.32,1
221.00,138.98,1
202.00,137.75,1
265.00,139.64,1
303.00,145.08,1
356.00,154.52,1
317.00,167.64,1
326.00,182.94,1
554.00,201.09,1
342.00,222.97,1
320.00,245.17,1
285.00,264.41,1
313.00,280.23,1
100.00,291.31,1
258.00,296.42,1
241.00,297.56,1
45.00,295.01,1
198.00,287.65,1
49.00,276.58,1
114.00,262.35,1
152.00,246.40,1
52.00,230.01,1
166.00,213.41,1
89.00,197.65,1
96.00,182.77,1
127.00,168.77,1
137.00,156.57,1
188.00,147.01,1
53.00,139.57,1
368.00,134.76,1
488.00,137.28,1
197.00,147.45,1
262.00,159.76,1
310.00,172.35,1
292.00,185.91,1
222.00,199.30,1
263.00,211.15,1
332.00,222.09,1
356.00,233.67,1
319.00,246.04,1
37.00,255.82,1
308.00,260.60,1
50.00,261.36,1
348.00,259.53,1
156.00,257.02,1
130.00,253.10,1
339.00,247.99,1
51.00,243.01,1
82.00,235.48,1
42.00,224.08,1
111.00,210.34,1
41.00,195.38,1
43.00,179.53,1
108.00,163.50,1
61.00,148.56,1
224.00,136.04,1
58.00,126.73,1
82.00,118.95,1
146.00,112.15,1
203.00,108.04,1
262.00,108.10,1
402.00,113.91,1
371.00,126.50,1
233.00,143.28,1
320.00,160.90,1
335.00,178.94,1
524.00,199.22,1
271.00,221.75,1
477.00,244.36,1
156.00,264.87,1
311.00,280.79,1
215.00,291.76,1
324.00,299.24,1
278.00,304.47,1
162.00,306.96,1
222.00,305.49,1
67.00,299.82,1
105.00,289.33,1
40.00,274.42,1
127.00,256.59,1
56.00,237.48,1
157.00,218.36,1
222.00,201.50,1
44.00,187.36,1
128.00,174.04,1
244.00,162.65,1
184.00,155.23,1
352.00,152.45,1
280.00,155.03,1
230.00,161.29,1
346.00,169.68,1
374.00,181.23,1
241.00,195.04,1
429.00,209.71,1
282.00,225.38,1
408.00,241.43,1
323.00,257.39,1
343.00,272.55,1
345.00,286.26,1
188.00,297.29,1
282.00,304.16,1
230.00,307.44,1
370.00,308.96,1
120.00,308.91,1
89.00,304.46,1
216.00,295.25,1
237.00,284.78,1
83.00,273.79,1
56.00,260.09,1
86.00,243.43,1
55.00,225.05,1
53.00,205.63,1
304.00,187.91,1
170.00,175.09,1
59.00,165.39,1
176.00,156.38,1
394.00,151.01,1
314.00,152.52,1
208.00,158.80,1
296.00,166.80,1
212.00,175.75,1
345.00,185.56,1
343.00,197.19,1
338.00,210.81,1
302.00,225.14,1
274.00,238.64,1
353.00,250.95,1
266.00,262.31,1
380.00,272.72,1
259.00,282.24,1
305.00,290.08,1
194.00,295.23,1
143.00,296.29,1
248.00,293.31,1
115.00,287.59,1
157.00,278.96,1
78.00,267.37,1
116.00,253.28,1
122.00,237.73,1
51.00,221.44,1
184.00,205.12,1
44.00,189.75,1
175.00,175.49,1
116.00,163.06,1
75.00,152.22,1
188.00,142.69,1
39.00,134.78,1
189.00,128.08,1
280.00,124.55,1
284.00,126.28,1
249.00,132.52,1
506.00,143.59,1
156.00,158.97,1
428.00,175.68,1
335.00,193.69,1
381.00,213.21,1
350.00,232.96,1
374.00,252.29,1
360.00,270.71,1
183.00,286.31,1
300.00,297.20,1
181.00,303.57,1
271.00,306.07,1
57.00,304.27,1
70.00,296.51,1
48.00,282.77,1
125.00,265.31,1
49.00,246.09,1
68.00,225.75,1
87.00,205.10,1
41.00,184.93,1
232.00,166.82,1
158.00,153.00,1
316.00,144.63,1
364.00,143.02,1
262.00,147.82,1
248.00,155.94,1
282.00,165.56,1
194.00,175.70,1
505.00,187.31,1
474.00,203.77,1
278.00,223.83,1
352.00,243.09,1
286.00,260.16,1
468.00,276.04,1
345.00,291.93,1
384.00,307.10,1
89.00,318.43,1
237.00,323.11,1
193.00,322.15,1
284.00,318.28,1
350.00,314.01,1
226.00,310.38,1
105.00,304.87,1
121.00,295.20,1
71.00,281.49,1
75.00,264.56,1
119.00,245.78,1
61.00,226.46,1
94.00,207.05,1
157.00,188.82,1
98.00,172.91,1
171.00,159.42,1
148.00,148.78,1
260.00,141.79,1
168.00,138.69,1
343.00,139.51,1
157.00,143.91,1
196.00,149.53,1
302.00,155.90,1
220.00,164.04,1
248.00,172.98,1
276.00,182.26,1
410.00,193.37,1
308.00,206.99,1
395.00,222.22,1
295.00,237.96,1
375.00,253.29,1
171.00,266.61,1
331.00,276.60,1
189.00,283.48,1
224.00,287.07,1
158.00,286.85,1
248.00,283.73,1
169.00,278.75,1
50.00,270.97,1
131.00,259.38,1
48.00,244.87,1
68.00,228.16,1
122.00,210.40,1
52.00,192.94,1
49.00,175.53,1
182.00,159.23,1
154.00,146.27,1
287.00,138.06,1
266.00,135.57,1
244.00,138.01,1
225.00,143.43,1
246.00,150.62,1
162.00,158.38,1
228.00,165.65,1
321.00,173.47,1
328.00,183.62,1
268.00,195.55,1
347.00,208.20,1
228.00,220.78,1
483.00,233.67,1
219.00,247.47,1
124.00,258.41,1
88.00,262.71,1
59.00,260.17,1
57.00,251.78,1
43.00,238.82,1
58.00,222.66,1
60.00,204.81,1
43.00,186.28,1
60.00,167.73,1
121.00,150.43,1
297.00,137.26,1
262.00,130.82,1
190.00,129.99,1
178.00,131.85,1
203.00,135.08,1
252.00,139.99,1
202.00,146.60,1
410.00,155.58,1
327.00,168.47,1
345.00,184.33,1
197.00,200.31,1
467.00,215.79,1
492.00,233.94,1
424.00,255.55,1
316.00,277.21,1
87.00,293.92,1
81.00,301.64,1
263.00,301.80,1
172.00,298.36,1
150.00,292.13,1
62.00,282.12,1
110.00,268.34,1
122.00,252.33,1
75.00,235.37,1
90.00,217.69,1
124.00,200.16,1
136.00,184.14,1
60.00,169.65,1
250.00,157.21,1
56.00,147.64,1
111.00,139.40,1
234.00,132.75,1
151.00,129.34,1
175.00,128.34,1
294.00,129.89,1
224.00,134.95,1
195.00,142.11,1
123.00,148.95,1
350.00,155.76,1
360.00,165.56,1
378.00,179.46,1
263.00,195.51,1
360.00,211.68,1
317.00,227.73,1
455.00,244.40,1
153.00,260.39,1
283.00,272.52,1
54.00,279.13,1
208.00,279.87,1
212.00,276.77,1
187.00,272.02,1
184.00,265.78,1
125.00,257.88,1
83.00,247.65,1
81.00,234.78,1
239.00,221.26,1
84.00,208.97,1
103.00,196.94,1
92.00,184.45,1
74.00,171.82,1
176.00,159.98,1
284.00,151.55,1
197.00,147.89,1
373.00,148.90,1
302.00,155.01,1
310.00,165.21,1
301.00,177.67,1
420.00,192.26,1
331.00,209.20,1
386.00,227.30,1
297.00,245.10,1
368.00,261.66,1
230.00,276.03,1
383.00,287.84,1
66.00,296.07,1
263.00,299.00,1
236.00,298.15,1
214.00,295.48,1
133.00,290.29,1
121.00,281.71,1
294.00,271.36,1
200.00,262.03,1
214.00,253.78,1
129.00,245.38,1
42.00,235.14,1
102.00,222.17,1
57.00,207.50,1
187.00,192.79,1
100.00,179.62,1
168.00,168.27,1
110.00,158.59,1
247.00,151.25,1
246.00,147.68,1
293.00,148.68,1
163.00,152.76,1
323.00,158.58,1
438.00,168.16,1
112.00,180.68,1
255.00,191.81,1
373.00,202.15,1
366.00,214.63,1
442.00,229.83,1
253.00,246.20,1
238.00,260.31,1
347.00,271.31,1
169.00,279.81,1
210.00,284.42,1
251.00,285.47,1
139.00,283.88,1
155.00,278.92,1
121.00,270.59,1
155.00,259.83,1
83.00,247.33,1
49.00,232.66,1
134.00,216.45,1
54.00,200.05,1
42.00,183.33,1
52.00,166.13,1
51.00,149.20,1
103.00,133.53,1
176.00,120.78,1
368.00,113.89,1
276.00,114.75,1
282.00,121.49,1
170.00,130.99,1
269.00,141.25,1
325.00,152.89,1
375.00,167.35,1
254.00,183.82,1
497.00,201.68,1
260.00,221.04,1
391.00,240.11,1
322.00,257.93,1
375.00,274.59,1
198.00,288.67,1
236.00,298.13,1
218.00,302.79,1
178.00,303.37,1
78.00,299.10,1
106.00,289.63,1
166.00,276.59,1
178.00,262.65,1
79.00,248.34,1
58.00,232.51,1
36.00,214.72,1
66.00,195.73,1
38.00,176.52,1
94.00,158.05,1
130.00,141.73,1
136.00,128.69,1
238.00,119.80,1
189.00,115.67,1
197.00,115.42,1
307.00,118.81,1
319.00,126.79,1
196.00,138.14,1
292.00,150.53,1
206.00,163.11,1
278.00,175.38,1
292.00,187.64,1
397.00,201.14,1
36.00,214.02,1
356.00,223.56,1
233.00,231.51,1
347.00,239.56,1
307.00,247.96,1
163.00,255.43,1
132.00,259.01,1
117.00,257.70,1
135.00,252.34,1
261.00,245.29,1
156.00,238.55,1
110.00,231.19,1
69.00,221.66,1
44.00,209.50,1
67.00,195.21,1
68.00,179.96,1
73.00,164.70,1
187.00,150.96,1
117.00,140.20,1
150.00,132.12,1
148.00,126.31,1
139.00,122.55,1
194.00,120.78,1
285.00,122.20,1
237.00,127.55,1
204.00,135.36,1
293.00,144.62,1
228.00,155.30,1
401.00,167.77,1
295.00,182.73,1
304.00,198.78,1
258.00,214.00,1
443.00,228.97,1
177.00,243.69,1
236.00,255.37,1
201.00,262.78,1
316.00,267.61,1
66.00,269.87,1
120.00,267.35,1
125.00,260.13,1
50.00,249.49,1
109.00,235.90,1
46.00,220.35,1
66.00,203.47,1
39.00,185.72,1
44.00,167.58,1
157.00,150.59,1
119.00,136.64,1
268.00,127.07,1
162.00,122.33,1
238.00,121.53,1
208.00,123.94,1
206.00,128.78,1
290.00,135.73,1
251.00,145.17,1
332.00,156.83,1
187.00,169.64,1
238.00,181.56,1
286.00,192.46,1
325.00,203.77,1
217.00,215.17,1
338.00,225.78,1
155.00,235.05,1
274.00,241.94,1
165.00,246.37,1
252.00,248.64,1
99.00,248.49,1
134.00,245.00,1
130.00,238.35,1
53.00,229.12,1
131.00,217.59,1
82.00,204.94,1
110.00,191.90,1
123.00,179.17,1
40.00,166.85,1
171.00,155.07,1
72.00,144.75,1
166.00,136.09,1
68.00,128.91,1
272.00,123.96,1
215.00,122.91,1
315.00,126.45,1
286.00,134.36,1
331.00,146.00,1
382.00,161.03,1
239.00,178.17,1
551.00,197.02,1
390.00,219.17,1
464.00,243.58,1
283.00,267.35,1
289.00,287.49,1
265.00,302.59,1
137.00,311.89,1
75.00,313.76,1
102.00,308.08,1
178.00,297.32,1
127.00,284.13,1
115.00,269.25,1
328.00,254.71,1
132.00,242.71,1
267.00,232.67,1
133.00,223.95,1
113.00,215.25,1
392.00,207.73,1
65.00,203.09,1
127.00,198.22,1
115.00,191.56,1
112.00,184.02,1
272.00,177.26,1
161.00,173.03,1
306.00,171.55,1
340.00,173.93,1
249.00,180.21,1
344.00,188.81,1
307.00,199.37,1
242.00,210.70,1
304.00,221.41,1
332.00,231.99,1
322.00,243.04,1
311.00,254.06,1
269.00,264.06,1
329.00,272.66,1
228.00,279.73,1
386.00,285.54,1
288.00,291.16,1
200.00,295.40,1
107.00,295.42,1
54.00,289.48,1
202.00,278.80,1
48.00,265.65,1
149.00,250.58,1
133.00,234.80,1
111.00,219.38,1
39.00,203.64,1
138.00,187.67,1
154.00,173.21,1
48.00,160.57,1
223.00,149.57,1
202.00,142.01,1
264.00,138.94,1
318.00,140.76,1
291.00,147.35,1
298.00,157.36,1
333.00,169.93,1
326.00,184.54,1
257.00,199.81,1
274.00,214.03,1
239.00,226.39,1
269.00,236.73,1
234.00,245.12,1
306.00,252.02,1
206.00,257.62,1
287.00,261.66,1
240.00,264.50,1
236.00,266.20,1
205.00,266.27,1
64.00,263.30,1
170.00,256.53,1
67.00,246.79,1
187.00,235.23,1
65.00,222.87,1
116.00,209.67,1
87.00,195.90,1
89.00,182.09,1
172.00,169.18,1
149.00,158.59,1
239.00,151.17,1
171.00,147.15,1
308.00,146.58,1
246.00,149.87,1
271.00,156.27,1
278.00,164.76,1
202.00,174.26,1
282.00,183.69,1
272.00,193.37,1
282.00,203.50,1
292.00,213.81,1
329.00,224.44,1
290.00,235.35,1
251.00,245.45,1
131.00,252.66,1
222.00,255.88,1
234.00,256.57,1
207.00,256.03,1
132.00,253.61,1
106.00,248.14,1
204.00,240.30,1
72.00,231.25,1
180.00,221.08,1
116.00,210.58,1
68.00,199.60,1
145.00,187.95,1
70.00,176.42,1
78.00,164.82,1
153.00,153.67,1
78.00,143.94,1
194.00,135.95,1
171.00,130.64,1
161.00,128.06,1
227.00,127.81,1
252.00,130.54,1
137.00,135.49,1
262.00,141.30,1
221.00,148.32,1
323.00,157.26,1
197.00,167.64,1
387.00,179.11,1
213.00,191.76,1
367.00,204.78,1
264.00,217.90,1
350.00,230.96,1
146.00,242.43,1
277.00,250.73,1
109.00,255.44,1
134.00,255.72,1
231.00,252.53,1
192.00,248.27,1
163.00,243.26,1
92.00,236.46,1
63.00,226.87,1
52.00,214.34,1
52.00,199.57,1
51.00,183.42,1
163.00,167.71,1
54.00,153.79,1
99.00,141.18,1
109.00,129.92,1
170.00,121.08,1
206.00,115.76,1
232.00,114.68,1
384.00,118.74,1
322.00,128.81,1
252.00,142.85,1
167.00,157.02,1
217.00,169.24,1
319.00,180.53,1
309.00,192.80,1
348.00,206.38,1
206.00,219.92,1
392.00,232.46,1
321.00,245.15,1
347.00,258.13,1
165.00,269.22,1
168.00,275.71,1
103.00,276.39,1
169.00,272.28,1
139.00,264.95,1
163.00,255.64,1
144.00,245.16,1
52.00,233.25,1
46.00,218.94,1
84.00,202.67,1
65.00,185.90,1
54.00,169.23,1
118.00,153.36,1
163.00,139.97,1
163.00,130.18,1
192.00,124.06,1
270.00,122.13,1
221.00,124.48,1
295.00,130.47,1
319.00,140.13,1
471.00,154.48,1
305.00,173.18,1
404.00,193.97,1
253.00,214.63,1
371.00,233.82,1
300.00,251.38,1
343.00,267.27,1
211.00,280.41,1
246.00,289.50,1
134.00,293.77,1
218.00,293.35,1
172.00,289.45,1
144.00,282.77,1
114.00,273.03,1
56.00,260.14,1
189.00,245.15,1
43.00,229.57,1
73.00,213.00,1
47.00,195.34,1
42.00,177.16,1
43.00,158.91,1
141.00,142.00,1
127.00,128.20,1
221.00,118.59,1
173.00,113.48,1
263.00,112.69,1
242.00,116.23,1
214.00,123.02,1
332.00,132.40,1
299.00,144.87,1
268.00,159.50,1
335.00,175.01,1
265.00,190.95,1
380.00,207.03,1
280.00,223.19,1
299.00,238.32,1
284.00,251.54,1
247.00,262.47,1
209.00,270.27,1
264.00,274.93,1
67.00,275.99,1
196.00,272.58,1
196.00,266.42,1
267.00,259.99,1
197.00,254.17,1
169.00,248.21,1
240.00,241.89,1
50.00,234.83,1
113.00,225.47,1
112.00,214.13,1
227.00,203.09,1
194.00,194.27,1
38.00,186.53,1
62.00,177.25,1
151.00,166.91,1
210.00,158.27,1
221.00,153.01,1
234.00,151.25,1
391.00,153.84,1
312.00,161.72,1
207.00,172.44,1
292.00,183.30,1
393.00,195.32,1
249.00,208.99,1
360.00,222.80,1
331.00,236.68,1
386.00,251.03,1
357.00,265.70,1
333.00,279.94,1
141.00,291.13,1
202.00,296.78,1
103.00,296.67,1
102.00,291.00,1
82.00,280.32,1
52.00,265.60,1
192.00,248.76,1
178.00,232.78,1
104.00,218.34,1
53.00,203.77,1
45.00,188.06,1
127.00,172.13,1
199.00,158.46,1
168.00,148.58,1
255.00,142.67,1
248.00,141.10,1
146.00,142.64,1
78.00,144.20,1
238.00,145.09,1
212.00,147.28,1
491.00,153.58,1
241.00,165.19,1
306.00,179.09,1
407.00,194.16,1
248.00,210.49,1
308.00,225.96,1
540.00,241.85,1
161.00,258.75,1
452.00,273.89,1
460.00,288.96,1
171.00,303.61,1
242.00,313.29,1
509.00,319.93,1
275.00,327.08,1
200.00,332.08,1
276.00,332.75,1
200.00,330.14,1
61.00,323.36,1
62.00,310.67,1
157.00,293.63,1
80.00,274.74,1
266.00,256.10,1
118.00,239.50,1
67.00,223.68,1
152.00,207.62,1
168.00,193.00,1
195.00,181.16,1
131.00,171.86,1
289.00,165.29,1
198.00,162.34,1
280.00,162.69,1
312.00,166.45,1
157.00,172.62,1
413.00,180.17,1
227.00,189.95,1
338.00,201.10,1
547.00,214.90,1
348.00,232.98,1
100.00,250.12,1
230.00,261.32,1
124.00,266.85,1
225.00,268.08,1
111.00,265.78,1
169.00,260.30,1
87.00,251.95,1
183.00,241.57,1
416.00,232.87,1
116.00,227.92,1
73.00,222.58,1
59.00,213.81,1
166.00,203.02,1
159.00,192.65,1
105.00,183.27,1
133.00,174.23,1
86.00,165.37,1
190.00,157.26,1
111.00,150.68,1
47.00,144.48,1
337.00,139.48,1
57.00,137.53,1
281.00,137.57,1
258.00,140.29,1
367.00,147.33,1
276.00,158.26,1
370.00,171.97,1
147.00,186.29,1
417.00,199.97,1
215.00,213.65,1
394.00,227.22,1
377.00,241.46,1
188.00,255.33,1
87.00,264.39,1
180.00,266.99,1
107.00,264.70,1
188.00,259.00,1
121.00,251.08,1
122.00,241.29,1
335.00,231.67,1
44.00,223.60,1
44.00,213.89,1
215.00,202.27,1
78.00,191.30,1
428.00,183.28,1
99.00,179.69,1
332.00,178.94,1
162.00,180.14,1
97.00,181.32,1
279.00,181.45,1
343.00,183.80,1
315.00,190.06,1
304.00,199.06,1
433.00,210.53,1
406.00,225.31,1
384.00,242.54,1
326.00,260.02,1
258.00,275.40,1
231.00,286.86,1
368.00,295.07,1
262.00,301.71,1
240.00,306.13,1
152.00,306.75,1
97.00,302.30,1
255.00,293.86,1
160.00,284.06,1
208.00,273.67,1
91.00,262.20,1
85.00,248.74,1
94.00,233.14,1
46.00,216.21,1
164.00,199.10,1
48.00,182.97,1
192.00,168.40,1
53.00,155.77,1
175.00,144.94,1
254.00,137.34,1
253.00,134.78,1
303.00,137.22,1
291.00,144.07,1
286.00,154.21,1
149.00,165.16,1
383.00,176.04,1
388.00,189.25,1
533.00,207.00,1
398.00,229.02,1
459.00,252.95,1
220.00,275.48,1
364.00,293.93,1
179.00,307.51,1
150.00,314.86,1
216.00,315.76,1
197.00,312.45,1
165.00,306.02,1
63.00,295.93,1
155.00,282.16,1
63.00,265.96,1
119.00,248.16,1
73.00,229.52,1
184.00,211.44,1
232.00,196.28,1
104.00,184.48,1
55.00,173.50,1
80.00,161.84,1
260.00,151.55,1
260.00,145.88,1
311.00,145.81,1
261.00,150.38,1
320.00,158.37,1
318.00,169.33,1
428.00,183.50,1
407.00,201.32,1
324.00,221.20,1
402.00,241.02,1
270.00,259.67,1
381.00,276.20,1
161.00,289.49,1
675.00,301.41,1
127.00,314.06,1
166.00,322.34,1
285.00,324.09,1
226.00,322.68,1
279.00,319.34,1
109.00,313.60,1
107.00,303.87,1
47.00,289.46,1
143.00,271.74,1
89.00,252.81,1
101.00,233.55,1
132.00,214.67,1
171.00,197.64,1
198.00,183.72,1
217.00,173.58,1
150.00,166.61,1
281.00,162.39,1
268.00,161.96,1
258.00,165.16,1
318.00,171.26,1
405.00,181.05,1
290.00,194.20,1
297.00,208.34,1
260.00,221.67,1
480.00,235.20,1
213.00,249.54,1
450.00,263.42,1
364.00,277.47,1
238.00,290.68,1
124.00,299.06,1
103.00,300.36,1
208.00,295.88,1
257.00,289.12,1
211.00,282.14,1
120.00,274.11,1
168.00,264.06,1
40.00,251.77,1
115.00,237.07,1
51.00,220.69,1
72.00,203.31,1
54.00,185.42,1
58.00,167.66,1
39.00,150.36,1
176.00,134.82,1
222.00,123.65,1
181.00,117.66,1
209.00,115.77,1
300.00,117.93,1
172.00,123.79,1
291.00,131.88,1
359.00,142.88,1
414.00,158.37,1
388.00,177.90,1
412.00,200.13,1
332.00,223.18,1
410.00,245.61,1
163.00,265.40,1
303.00,280.23,1
104.00,289.46,1
209.00,292.82,1
209.00,291.69,1
190.00,287.94,1
178.00,281.89,1
114.00,273.45,1
240.00,263.30,1
65.00,252.33,1
99.00,239.51,1
44.00,224.40,1
65.00,207.58,1
114.00,190.29,1
53.00,173.71,1
195.00,158.79,1
172.00,147.30,1
196.00,139.78,1
230.00,136.04,1
58.00,134.59,1
397.00,135.17,1
235.00,140.12,1
235.00,148.33,1
339.00,158.27,1
393.00,171.40,1
42.00,185.35,1
547.00,198.28,1
339.00,213.79,1
340.00,231.42,1
326.00,248.29,1
330.00,263.83,1
191.00,276.65,1
326.00,285.79,1
227.00,292.11,1
198.00,295.34,1
69.00,293.68,1
149.00,286.73,1
194.00,276.61,1
96.00,264.98,1
52.00,250.96,1
182.00,235.14,1
71.00,219.34,1
51.00,203.17,1
69.00,186.15,1
100.00,169.41,1
95.00,154.10,1
175.00,141.20,1
279.00,132.77,1
303.00,130.55,1
308.00,134.38,1
237.00,142.36,1
296.00,152.65,1
216.00,164.06,1
530.00,177.73,1
438.00,196.51,1
354.00,218.82,1
439.00,241.63,1
440.00,264.79,1
344.00,287.37,1
361.00,307.33,1
211.00,322.89,1
204.00,332.12,1
150.00,334.53,1
242.00,331.45,1
139.00,324.50,1
165.00,314.13,1
124.00,300.77,1
117.00,284.99,1
141.00,267.68,1
88.00,249.68,1
44.00,230.75,1
52.00,210.58,1
92.00,190.29,1
127.00,171.57,1
132.00,155.64,1
314.00,144.19,1
257.00,139.10,1
198.00,139.19,1
283.00,142.41,1
277.00,148.72,1
266.00,157.73,1
310.00,168.60,1
402.00,181.90,1
316.00,197.83,1
183.00,213.45,1
221.00,225.74,1
376.00,235.88,1
277.00,246.13,1
376.00,256.58,1
284.00,266.90,1
296.00,276.16,1
217.00,283.09,1
279.00,287.33,1
178.00,288.92,1
141.00,287.00,1
171.00,281.26,1
131.00,272.65,1
162.00,261.99,1
47.00,249.34,1
59.00,234.09,1
48.00,216.49,1
71.00,197.77,1
98.00,179.39,1
166.00,163.07,1
234.00,150.79,1
217.00,143.51,1
307.00,141.28,1
283.00,144.14,1
257.00,150.88,1
403.00,160.94,1
290.00,174.45,1
361.00,190.05,1
351.00,206.91,1
371.00,224.75,1
282.00,242.24,1
356.00,258.20,1
315.00,272.61,1
378.00,285.84,1
164.00,296.65,1
258.00,303.02,1
356.00,306.42,1
344.00,309.74,1
508.00,314.86,1
311.00,322.16,1
343.00,329.24,1
67.00,332.52,1
176.00,329.36,1
48.00,319.87,1
36.00,304.58,1
188.00,285.47,1
123.00,265.92,1
119.00,246.83,1
79.00,227.78,1
234.00,209.97,1
323.00,196.71,1
105.00,188.26,1
114.00,180.96,1
240.00,174.16,1
422.00,171.63,1
360.00,175.93,1
391.00,186.14,1
195.00,198.80,1
456.00,212.06,1
155.00,225.54,1
539.00,239.11,1
133.00,252.79,1
375.00,264.59,1
329.00,274.82,1
942.00,289.83,1
208.00,311.69,1
222.00,331.06,1
626.00,345.41,1
339.00,359.90,1
406.00,373.15,1
221.00,382.17,1
312.00,385.94,1
446.00,386.71,1
184.00,385.96,1
148.00,380.55,1
185.00,369.38,1
80.00,353.54,1
441.00,336.30,1
131.00,321.12,1
90.00,305.51,1
293.00,288.54,1
178.00,273.15,1
164.00,259.15,1
284.00,246.46,1
248.00,236.78,1
552.00,232.59,1
394.00,236.18,1
604.00,247.16,1
271.00,262.84,1
360.00,278.55,1
228.00,291.35,1
329.00,300.91,1
240.00,307.55,1
418.00,312.56,1
248.00,316.97,1
234.00,319.35,1
301.00,319.00,1
194.00,316.71,1
197.00,311.82,1
84.00,303.35,1
132.00,290.92,1
48.00,275.10,1
68.00,256.47,1
41.00,235.67,1
89.00,214.07,1
87.00,193.09,1
91.00,173.69,1
164.00,156.79,1
198.00,143.87,1
361.00,136.90,1
259.00,136.87,1
284.00,141.94,1
297.00,150.40,1
309.00,161.74,1
297.00,175.01,1
256.00,188.88,1
440.00,203.53,1
352.00,220.21,1
429.00,238.59,1
286.00,257.01,1
371.00,273.86,1
224.00,287.97,1
294.00,298.35,1
307.00,305.64,1
348.00,311.46,1
272.00,316.13,1
194.00,318.21,1
209.00,316.48,1
182.00,311.22,1
140.00,302.79,1
95.00,290.93,1
99.00,275.76,1
65.00,258.02,1
49.00,238.24,1
171.00,218.05,1
45.00,199.09,1
265.00,182.45,1
200.00,170.20,1
292.00,163.21,1
92.00,159.80,1
282.00,158.20,1
412.00,160.62,1
266.00,168.62,1
422.00,180.48,1
534.00,197.19,1
212.00,217.47,1
364.00,236.64,1
325.00,253.84,1
361.00,269.90,1
578.00,286.64,1
241.00,304.47,1
296.00,319.15,1
145.00,327.79,1
239.00,330.22,1
183.00,327.76,1
107.00,320.92,1
63.00,308.81,1
69.00,291.81,1
343.00,273.71,1
105.00,258.02,1
63.00,242.65,1
87.00,225.56,1
261.00,209.22,1
281.00,197.25,1
144.00,189.63,1
435.00,185.86,1
416.00,188.76,1
337.00,197.99,1
416.00,210.96,1
311.00,226.06,1
381.00,241.80,1
425.00,258.17,1
503.00,276.49,1
454.00,296.84,1
418.00,317.60,1
274.00,335.81,1
136.00,347.67,1
262.00,351.91,1
398.00,352.20,1
139.00,350.66,1
55.00,343.95,1
399.00,332.87,1
199.00,322.14,1
231.00,311.83,1
83.00,299.83,1
328.00,286.79,1
47.00,273.88,1
106.00,259.36,1
429.00,245.42,1
59.00,235.18,1
254.00,226.23,1
363.00,219.64,1
220.00,217.30,1
377.00,218.11,1
166.00,220.95,1
332.00,224.43,1
298.00,228.99,1
422.00,236.04,1
121.00,244.01,1
569.00,252.22,1
474.00,264.47,1
421.00,281.05,1
363.00,298.30,1
412.00,314.43,1
410.00,329.48,1
406.00,343.58,1
204.00,354.74,1
52.00,358.63,1
211.00,353.95,1
42.00,342.94,1
281.00,328.01,1
59.00,311.30,1
91.00,292.31,1
99.00,271.04,1
69.00,248.86,1
63.00,226.25,1
574.00,207.93,1
80.00,197.81,1
178.00,191.12,1
376.00,186.44,1
179.00,185.87,1
355.00,188.29,1
210.00,193.03,1
263.00,198.83,1
243.00,204.75,1
291.00,211.10,1
501.00,219.92,1
466.00,233.94,1
50.00,249.13,1
509.00,261.32,1
512.00,274.99,1
412.00,292.32,1
408.00,310.29,1
124.00,324.85,1
310.00,333.18,1
128.00,335.61,1
318.00,333.65,1
86.00,328.15,1
207.00,318.79,1
258.00,307.40,1
456.00,298.33,1
69.00,291.84,1
96.00,282.98,1
41.00,269.42,1
217.00,253.39,1
274.00,239.01,1
232.00,228.43,1
444.00,222.62,1
201.00,221.78,1
348.00,223.68,1
488.00,229.16,1
296.00,239.12,1
95.00,248.49,1
426.00,254.92,1
126.00,260.25,1
279.00,263.60,1
253.00,265.16,1
255.00,266.18,1
429.00,268.01,1
570.00,274.47,1
77.00,283.88,1
226.00,289.51,1
247.00,290.63,1
456.00,291.59,1
409.00,295.64,1
235.00,301.44,1
129.00,304.24,1
481.00,304.33,1
172.00,304.78,1
41.00,302.18,1
264.00,294.53,1
220.00,285.50,1
127.00,276.06,1
40.00,264.00,1
200.00,249.46,1
127.00,234.84,1
272.00,221.96,1
127.00,211.44,1
453.00,204.58,1
209.00,202.88,1
147.00,203.30,1
214.00,202.81,1
204.00,202.17,1
383.00,203.31,1
475.00,209.37,1
305.00,220.65,1
549.00,235.48,1
420.00,253.99,1
359.00,274.10,1
432.00,293.30,1
389.00,311.53,1
118.00,326.06,1
603.00,336.45,1
518.00,348.44,1
423.00,363.05,1
191.00,375.00,1
254.00,380.43,1
115.00,378.73,1
80.00,369.51,1
60.00,353.11,1
87.00,331.38,1
142.00,307.04,1
64.00,281.98,1
40.00,256.20,1
59.00,229.80,1
139.00,204.56,1
56.00,181.86,1
235.00,162.63,1
166.00,148.36,1
168.00,138.69,1
332.00,133.64,1
333.00,134.97,1
368.00,142.87,1
484.00,157.03,1
214.00,175.40,1
273.00,193.34,1
365.00,209.89,1
528.00,228.16,1
455.00,250.03,1
396.00,273.60,1
85.00,293.48,1
386.00,306.75,1
360.00,316.77,1
368.00,326.09,1
208.00,333.17,1
222.00,335.88,1
223.00,334.09,1
193.00,328.81,1
248.00,321.01,1
47.00,310.56,1
127.00,296.15,1
161.00,279.18,1
37.00,261.06,1
183.00,242.09,1
126.00,224.05,1
97.00,207.33,1
100.00,191.24,1
227.00,177.01,1
38.00,165.25,1
348.00,156.22,1
242.00,152.32,1
514.00,155.44,1
389.00,166.37,1
554.00,184.64,1
403.00,208.07,1
39.00,230.56,1
448.00,247.66,1
495.00,264.27,1
476.00,283.99,1
395.00,304.83,1
348.00,323.94,1
161.00,338.09,1
320.00,345.88,1
269.00,349.17,1
223.00,349.03,1
181.00,344.78,1
172.00,336.43,1
352.00,326.21,1
308.00,317.45,1
219.00,310.10,1
39.00,300.69,1
92.00,286.81,1
71.00,269.20,1
111.00,249.77,1
58.00,229.63,1
164.00,209.97,1
154.00,192.56,1
164.00,178.21,1
261.00,167.56,1
293.00,162.03,1
407.00,162.90,1
425.00,170.90,1
284.00,184.09,1
543.00,200.74,1
444.00,221.80,1
383.00,245.49,1
350.00,268.27,1
328.00,288.37,1
347.00,305.30,1
335.00,319.29,1
212.00,329.49,1
399.00,335.91,1
297.00,340.49,1
147.00,342.11,1
250.00,338.98,1
64.00,331.24,1
128.00,318.62,1
223.00,302.97,1
103.00,286.63,1
154.00,269.55,1
52.00,251.47,1
61.00,232.07,1
80.00,211.79,1
72.00,191.75,1
68.00,172.60,1
204.00,155.74,1
274.00,143.96,1
187.00,138.00,1
276.00,136.52,1
120.00,137.98,1
352.00,141.74,1
373.00,149.77,1
446.00,163.69,1
331.00,182.05,1
378.00,202.29,1
262.00,222.14,1
491.00,241.40,1
258.00,260.50,1
315.00,277.33,1
108.00,289.16,1
290.00,295.36,1
143.00,297.21,1
352.00,296.46,1
278.00,295.40,1
261.00,294.49,1
186.00,292.20,1
254.00,288.11,1
175.00,282.63,1
100.00,274.92,1
167.00,264.44,1
34.00,251.56,1
87.00,236.14,1
204.00,220.04,1
71.00,205.21,1
102.00,190.86,1
99.00,176.75,1
130.00,163.74,1
198.00,153.06,1
231.00,146.15,1
133.00,142.62,1
227.00,141.22,1
204.00,142.04,1
381.00,146.39,1
299.00,155.30,1
354.00,168.03,1
789.00,186.92,1
455.00,214.79,1
354.00,245.83,1
256.00,273.03,1
287.00,294.18,1
264.00,309.53,1
195.00,319.26,1
68.00,322.08,1
88.00,316.94,1
311.00,307.09,1
83.00,296.01,1
110.00,282.63,1
172.00,267.00,1
98.00,250.86,1
40.00,233.66,1
78.00,214.93,1
331.00,197.95,1
88.00,185.33,1
198.00,175.46,1
168.00,167.54,1
148.00,161.62,1
198.00,157.25,1
436.00,156.86,1
290.00,162.64,1
246.00,172.06,1
383.00,183.21,1
351.00,196.91,1
459.00,213.57,1
339.00,232.51,1
429.00,252.16,1
296.00,271.12,1
374.00,288.10,1
323.00,302.78,1
411.00,315.75,1
267.00,326.84,1
295.00,334.70,1
94.00,337.49,1
221.00,334.32,1
198.00,326.94,1
211.00,317.37,1
130.00,305.79,1
125.00,291.80,1
42.00,274.90,1
200.00,256.34,1
78.00,238.06,1
221.00,221.07,1
59.00,205.63,1
122.00,190.92,1
120.00,176.92,1
58.00,163.90,1
180.00,152.02,1
65.00,141.95,1
300.00,134.68,1
245.00,132.19,1
308.00,134.97,1
335.00,142.57,1
398.00,154.99,1
346.00,171.46,1
387.00,190.51,1
293.00,210.39,1
339.00,229.38,1
397.00,247.54,1
404.00,265.85,1
168.00,282.32,1
342.00,294.44,1
241.00,302.95,1
367.00,309.24,1
161.00,313.20,1
106.00,312.45,1
130.00,305.65,1
84.00,294.11,1
138.00,279.21,1
62.00,262.16,1
51.00,243.12,1
58.00,222.48,1
123.00,201.85,1
54.00,182.46,1
297.00,166.06,1
209.00,155.20,1
158.00,149.07,1
215.00,145.61,1
359.00,146.00,1
392.00,152.45,1
304.00,164.23,1
266.00,178.21,1
250.00,191.91,1
218.00,204.10,1
398.00,215.57,1
357.00,228.53,1
436.00,243.60,1
322.00,259.83,1
235.00,274.45,1
305.00,285.56,1
237.00,293.51,1
275.00,298.54,1
288.00,301.38,1
264.00,302.78,1
222.00,302.42,1
53.00,298.45,1
72.00,288.80,1
73.00,274.16,1
41.00,256.03,1
109.00,235.94,1
59.00,215.51,1
111.00,195.64,1
100.00,177.21,1
270.00,162.16,1
186.00,152.18,1
44.00,145.24,1
159.00,138.74,1
202.00,133.87,1
294.00,132.88,1
341.00,137.09,1
315.00,146.39,1
233.00,158.57,1
266.00,171.22,1
330.00,184.25,1
304.00,198.22,1
434.00,213.62,1
384.00,231.15,1
348.00,249.65,1
201.00,266.04,1
350.00,278.81,1
298.00,289.20,1
389.00,298.57,1
277.00,307.00,1
197.00,312.69,1
47.00,312.61,1
250.00,306.54,1
232.00,298.20,1
73.00,288.49,1
44.00,274.94,1
96.00,257.66,1
124.00,239.00,1
55.00,220.15,1
172.00,201.91,1
395.00,187.95,1
72.00,179.68,1
292.00,174.31,1
153.00,171.16,1
300.00,170.53,1
230.00,172.56,1
301.00,177.16,1
252.00,183.77,1
272.00,191.62,1
361.00,200.80,1
151.00,210.59,1
239.00,218.51,1
321.00,225.16,1
246.00,232.08,1
273.00,238.65,1
550.00,246.84,1
179.00,257.73,1
295.00,267.43,1
297.00,274.75,1
302.00,281.08,1
284.00,286.38,1
222.00,289.95,1
141.00,290.24,1
44.00,285.34,1
74.00,274.56,1
60.00,259.29,1
52.00,241.09,1
56.00,221.02,1
106.00,200.66,1
96.00,181.57,1
172.00,164.94,1
292.00,152.93,1
344.00,147.87,1
287.00,149.73,1
237.00,155.78,1
249.00,163.64,1
308.00,172.84,1
287.00,183.68,1
412.00,196.61,1
417.00,212.61,1
456.00,231.76,1
344.00,252.55,1
269.00,271.69,1
382.00,287.70,1
482.00,302.88,1
205.00,317.23,1
147.00,326.25,1
166.00,327.82,1
39.00,322.45,1
215.00,311.47,1
46.00,297.09,1
114.00,279.76,1
48.00,259.99,1
52.00,238.53,1
57.00,216.01,1
125.00,194.16,1
122.00,174.68,1
125.00,158.18,1
222.00,145.33,1
147.00,136.70,1
270.00,132.09,1
180.00,131.43,1
282.00,134.13,1
347.00,140.77,1
366.00,152.22,1
348.00,167.71,1
312.00,185.30,1
412.00,203.98,1
383.00,224.07,1
370.00,244.71,1
293.00,264.00,1
243.00,279.82,1
309.00,291.55,1
232.00,299.85,1
165.00,303.93,1
138.00,302.72,1
173.00,296.82,1
251.00,288.57,1
151.00,279.58,1
40.00,268.37,1
59.00,253.33,1
140.00,235.95,1
109.00,218.63,1
174.00,202.62,1
128.00,188.60,1
259.00,177.41,1
157.00,169.71,1
183.00,164.51,1
299.00,161.90,1
281.00,163.39,1
338.00,169.08,1
364.00,178.75,1
392.00,192.23,1
294.00,208.08,1
289.00,223.76,1
283.00,237.83,1
344.00,250.57,1
284.00,262.35,1
389.00,273.40,1
307.00,284.08,1
231.00,293.00,1
269.00,298.64,1
150.00,300.60,1
248.00,298.83,1
37.00,293.18,1
100.00,282.59,1
98.00,267.86,1
117.00,251.16,1
72.00,233.51,1
105.00,215.35,1
168.00,198.13,1
152.00,183.41,1
214.00,171.84,1
189.00,163.74,1
277.00,159.36,1
227.00,158.82,1
314.00,161.78,1
353.00,168.64,1
259.00,178.95,1
358.00,191.06,1
306.00,204.57,1
344.00,218.98,1
271.00,233.17,1
230.00,245.48,1
233.00,254.67,1
260.00,261.11,1
156.00,264.85,1
163.00,264.97,1
219.00,262.06,1
70.00,256.68,1
60.00,247.50,1
42.00,234.21,1
60.00,217.94,1
84.00,200.39,1
211.00,184.05,1
62.00,170.23,1
71.00,157.46,1
96.00,145.03,1
230.00,134.88,1
359.00,130.29,1
244.00,132.41,1
291.00,139.06,1
282.00,148.72,1
327.00,160.91,1
251.00,174.67,1
317.00,188.83,1
292.00,203.06,1
316.00,217.26,1
411.00,231.89,1
328.00,247.46,1
367.00,262.95,1
322.00,277.49,1
231.00,289.62,1
89.00,296.49,1
161.00,296.51,1
324.00,292.80,1
76.00,287.61,1
174.00,279.47,1
59.00,268.03,1
109.00,253.80,1
42.00,237.18,1
76.00,218.96,1
97.00,200.30,1
37.00,182.02,1
111.00,164.44,1
215.00,149.57,1
173.00,139.25,1
312.00,134.10,1
291.00,134.77,1
252.00,140.34,1
376.00,149.70,1
332.00,162.98,1
329.00,179.02,1
353.00,196.46,1
250.00,213.87,1
306.00,229.60,1
312.00,243.68,1
307.00,256.55,1
259.00,267.64,1
267.00,276.22,1
201.00,281.80,1
197.00,283.84,1
147.00,282.12,1
107.00,276.41,1
143.00,267.10,1
44.00,254.77,1
97.00,239.70,1
46.00,222.64,1
72.00,204.46,1
112.00,186.38,1
74.00,169.53,1
189.00,154.83,1
362.00,145.31,1
144.00,142.04,1
268.00,142.54,1
249.00,145.90,1
288.00,152.36,1
305.00,161.65,1
367.00,173.83,1
351.00,188.86,1
348.00,205.83,1
343.00,223.43,1
317.00,240.63,1
246.00,255.85,1
346.00,268.49,1
167.00,278.34,1
280.00,284.51,1
242.00,287.80,1
242.00,289.08,1
239.00,288.46,1
50.00,284.78,1
97.00,276.07,1
100.00,263.20,1
57.00,247.65,1
182.00,230.92,1
160.00,215.37,1
92.00,201.35,1
331.00,189.61,1
259.00,182.79,1
242.00,180.58,1
240.00,181.04,1
248.00,183.41,1
329.00,187.98,1
337.00,195.56,1
262.00,205.33,1
465.00,216.95,1
310.00,231.08,1
514.00,247.48,1
394.00,266.12,1
509.00,286.51,1
296.00,306.69,1
306.00,323.51,1
66.00,333.62,1
129.00,334.80,1
241.00,329.28,1
171.00,320.65,1
100.00,309.04,1
56.00,293.48,1
202.00,275.29,1
76.00,256.75,1
70.00,237.69,1
167.00,218.51,1
64.00,200.56,1
52.00,183.18,1
56.00,165.75,1
96.00,149.17,1
209.00,135.42,1
237.00,126.69,1
256.00,123.59,1
215.00,125.11,1
231.00,129.69,1
366.00,137.47,1
523.00,151.13,1
283.00,170.59,1
351.00,191.62,1
67.00,209.96,1
401.00,224.29,1
265.00,237.14,1
463.00,250.60,1
358.00,265.35,1
309.00,280.07,1
156.00,291.35,1
289.00,297.83,1
257.00,301.11,1
235.00,302.21,1
254.00,301.14,1
193.00,298.11,1
211.00,292.96,1
130.00,285.50,1
135.00,275.42,1
100.00,262.80,1
109.00,248.20,1
107.00,232.43,1
70.00,216.03,1
64.00,198.94,1
92.00,181.80,1
52.00,165.23,1
167.00,150.19,1
230.00,138.92,1
136.00,132.09,1
314.00,129.37,1
286.00,131.72,1
64.00,137.05,1
351.00,142.93,1
364.00,152.03,1
320.00,165.55,1
115.00,179.63,1
431.00,192.51,1
285.00,206.38,1
316.00,221.04,1
188.00,234.00,1
528.00,246.21,1
215.00,259.46,1
180.00,270.36,1
182.00,275.99,1
56.00,275.98,1
138.00,270.38,1
87.00,260.63,1
107.00,248.00,1
68.00,233.23,1
81.00,216.94,1
133.00,200.36,1
168.00,185.39,1
222.00,173.62,1
260.00,166.16,1
385.00,164.40,1
328.00,169.01,1
311.00,178.14,1
320.00,189.72,1
363.00,203.18,1
336.00,218.16,1
230.00,232.80,1
374.00,245.91,1
230.00,257.73,1
430.00,268.64,1
370.00,280.16,1
335.00,292.10,1
194.00,301.71,1
160.00,306.33,1
167.00,305.37,1
152.00,299.85,1
146.00,290.79,1
152.00,279.26,1
141.00,266.13,1
37.00,251.17,1
51.00,233.73,1
148.00,215.09,1
153.00,197.93,1
165.00,183.46,1
238.00,172.39,1
335.00,166.40,1
204.00,165.60,1
214.00,167.43,1
214.00,170.31,1
277.00,174.48,1
300.00,180.73,1
416.00,190.27,1
397.00,203.88,1
259.00,219.66,1
316.00,234.59,1
266.00,247.74,1
298.00,259.01,1
244.00,268.15,1
156.00,274.00,1
219.00,275.77,1
420.00,276.38,1
166.00,277.83,1
80.00,276.61,1
114.00,270.16,1
215.00,260.67,1
105.00,250.22,1
69.00,238.09,1
58.00,223.41,1
97.00,207.20,1
123.00,191.14,1
136.00,176.56,1
226.00,164.79,1
277.00,157.56,1
364.00,156.35,1
260.00,160.77,1
438.00,169.76,1
369.00,183.43,1
338.00,200.28,1
427.00,218.62,1
461.00,238.95,1
236.00,259.65,1
345.00,277.35,1
424.00,292.80,1
299.00,307.19,1
362.00,319.42,1
314.00,329.20,1
217.00,335.72,1
242.00,337.74,1
203.00,335.59,1
261.00,330.37,1
107.00,322.26,1
69.00,309.87,1
129.00,293.17,1
146.00,274.65,1
71.00,255.54,1
107.00,235.75,1
87.00,215.98,1
64.00,196.64,1
255.00,179.32,1
273.00,167.27,1
217.00,161.04,1
109.00,157.75,1
272.00,155.90,1
249.00,156.82,1
340.00,161.56,1
293.00,169.98,1
393.00,181.74,1
383.00,196.76,1
358.00,214.22,1
426.00,233.03,1
340.00,252.42,1
340.00,270.74,1
240.00,286.14,1
93.00,295.85,1
246.00,298.93,1
188.00,297.72,1
115.00,292.95,1
164.00,284.45,1
89.00,272.96,1
118.00,258.93,1
47.00,242.73,1
91.00,224.87,1
43.00,206.06,1
111.00,187.31,1
78.00,169.68,1
160.00,154.20,1
256.00,142.77,1
200.00,136.63,1
299.00,135.40,1
481.00,140.60,1
383.00,153.67,1
312.00,171.43,1
252.00,189.64,1
303.00,206.47,1
358.00,222.49,1
361.00,238.71,1
189.00,253.63,1
271.00,264.91,1
217.00,272.58,1
404.00,278.56,1
66.00,282.90,1
229.00,283.19,1
150.00,279.60,1
100.00,272.77,1
155.00,262.72,1
132.00,250.85,1
127.00,238.03,1
121.00,224.62,1
43.00,210.40,1
82.00,195.02,1
36.00,178.89,1
83.00,162.70,1
185.00,148.22,1
345.00,138.96,1
296.00,137.07,1
278.00,141.15,1
295.00,149.18,1
248.00,159.60,1
334.00,171.59,1
391.00,185.91,1
348.00,202.73,1
449.00,221.56,1
279.00,241.21,1
314.00,259.11,1
328.00,274.34,1
222.00,286.68,1
239.00,294.91,1
161.00,298.49,1
154.00,297.19,1
96.00,291.03,1
50.00,279.98,1
113.00,264.81,1
92.00,247.55,1
46.00,229.05,1
40.00,209.29,1
34.00,188.69,1
120.00,168.70,1
63.00,150.72,1
62.00,134.61,1
155.00,120.74,1
44.00,109.66,1
284.00,101.96,1
216.00,99.55,1
406.00,103.79,1
250.00,114.12,1
285.00,128.05,1
278.00,143.45,1
327.00,160.04,1
241.00,177.05,1
320.00,193.45,1
372.00,209.86,1
394.00,227.44,1
224.00,244.75,1
404.00,260.11,1
285.00,274.06,1
282.00,285.98,1
190.00,294.17,1
276.00,298.44,1
199.00,299.54,1
116.00,297.00,1
233.00,290.72,1
60.00,281.54,1
112.00,269.08,1
39.00,253.32,1
81.00,235.10,1
187.00,216.67,1
112.00,200.18,1
74.00,185.02,1
127.00,170.57,1
226.00,158.53,1
210.00,150.70,1
282.00,147.50,1
253.00,148.79,1
325.00,154.09,1
268.00,162.72,1
272.00,173.34,1
486.00,186.45,1
353.00,203.41,1
350.00,222.37,1
318.00,240.78,1
264.00,257.13,1
151.00,269.28,1
213.00,276.07,1
215.00,278.61,1
194.00,278.26,1
274.00,276.04,1
179.00,272.84,1
126.00,267.62,1
126.00,259.33,1
81.00,248.21,1
63.00,234.47,1
121.00,218.93,1
55.00,202.85,1
88.00,186.56,1
180.00,171.39,1
145.00,159.10,1
253.00,150.48,1
199.00,146.02,1
230.00,145.10,1
362.00,148.04,1
199.00,154.99,1
302.00,163.94,1
298.00,174.43,1
430.00,187.69,1
224.00,203.00,1
336.00,217.97,1
261.00,231.72,1
309.00,244.15,1
255.00,254.90,1
260.00,263.55,1
251.00,269.87,1
140.00,273.20,1
165.00,272.38,1
103.00,267.44,1
112.00,258.80,1
76.00,246.97,1
61.00,232.47,1
73.00,215.98,1
57.00,198.42,1
88.00,180.79,1
175.00,164.79,1
134.00,151.93,1
163.00,142.15,1
275.00,136.12,1
401.00,136.23,1
322.00,143.38,1
323.00,155.43,1
278.00,169.81,1
219.00,184.20,1
284.00,197.31,1
276.00,209.55,1
223.00,220.68,1
435.00,231.41,1
374.00,244.07,1
282.00,257.71,1
141.00,268.49,1
246.00,274.51,1
356.00,278.19,1
187.00,281.25,1
177.00,281.76,1
81.00,277.91,1
169.00,270.00,1
79.00,259.17,1
281.00,247.41,1
77.00,236.21,1
60.00,223.97,1
78.00,209.49,1
38.00,193.62,1
166.00,177.80,1
172.00,164.37,1
269.00,155.19,1
120.00,149.94,1
75.00,145.82,1
204.00,141.79,1
205.00,139.73,1
391.00,141.86,1
259.00,149.15,1
270.00,159.54,1
239.00,170.72,1
342.00,182.59,1
302.00,195.70,1
399.00,210.31,1
296.00,226.00,1
369.00,241.69,1
332.00,256.91,1
234.00,270.46,1
152.00,279.69,1
217.00,283.66,1
146.00,283.34,1
138.00,279.07,1
136.00,271.17,1
82.00,260.24,1
147.00,247.02,1
112.00,232.85,1
116.00,218.40,1
135.00,204.16,1
39.00,190.09,1
165.00,176.21,1
124.00,163.91,1
168.00,153.95,1
310.00,147.69,1
205.00,146.24,1
312.00,148.85,1
121.00,153.77,1
363.00,159.99,1
93.00,167.21,1
255.00,173.81,1
302.00,180.57,1
336.00,189.63,1
322.00,200.95,1
338.00,213.84,1
279.00,227.13,1
372.00,240.19,1
138.00,251.78,1
418.00,261.06,1
150.00,268.78,1
186.00,273.24,1
168.00,273.27,1
92.00,269.31,1
118.00,261.32,1
70.00,249.90,1
45.00,235.46,1
58.00,218.50,1
99.00,200.54,1
63.00,182.88,1
71.00,165.88,1
114.00,150.10,1
93.00,136.39,1
174.00,125.37,1
136.00,117.61,1
264.00,113.68,1
315.00,115.01,1
342.00,122.44,1
342.00,135.17,1
250.00,150.89,1
283.00,167.19,1
242.00,182.80,1
211.00,196.70,1
340.00,209.05,1
380.00,222.02,1
326.00,236.32,1
334.00,250.66,1
211.00,263.23,1
341.00,273.15,1
212.00,280.80,1
147.00,284.86,1
182.00,284.24,1
114.00,279.57,1
214.00,271.91,1
108.00,262.43,1
107.00,251.00,1
76.00,237.33,1
71.00,221.86,1
40.00,204.87,1
65.00,186.94,1
66.00,169.08,1
96.00,152.35,1
94.00,137.51,1
190.00,125.59,1
212.00,118.04,1
139.00,114.65,1
195.00,113.94,1
227.00,115.89,1
270.00,121.19,1
263.00,129.73,1
261.00,140.64,1
353.00,153.71,1
418.00,169.99,1
504.00,190.74,1
293.00,214.39,1
403.00,237.62,1
267.00,258.71,1
334.00,276.69,1
189.00,290.47,1
349.00,300.10,1
219.00,306.62,1
255.00,310.01,1
189.00,309.92,1
124.00,305.87,1
192.00,297.92,1
94.00,287.01,1
166.00,273.74,1
38.00,258.47,1
88.00,240.99,1
127.00,222.55,1
124.00,205.04,1
87.00,188.77,1
146.00,173.83,1
139.00,161.01,1
164.00,150.80,1
163.00,143.29,1
229.00,138.77,1
272.00,138.15,1
320.00,142.19,1
412.00,151.56,1
442.00,166.78,1
389.00,186.81,1
348.00,208.78,1
305.00,230.05,1
383.00,249.70,1
256.00,267.34,1
348.00,282.19,1
269.00,294.23,1
361.00,303.96,1
235.00,311.44,1
227.00,315.56,1
175.00,315.43,1
131.00,310.72,1
208.00,302.15,1
71.00,290.76,1
103.00,276.23,1
140.00,259.50,1
217.00,243.15,1
52.00,227.87,1
76.00,211.97,1
73.00,195.19,1
59.00,178.31,1
71.00,161.71,1
191.00,146.99,1
243.00,136.71,1
173.00,131.45,1
239.00,129.95,1
315.00,132.52,1
275.00,139.64,1
363.00,150.57,1
343.00,165.02,1
379.00,182.35,1
235.00,200.57,1
334.00,217.55,1
304.00,233.25,1
335.00,248.03,1
239.00,261.09,1
281.00,271.42,1
339.00,279.72,1
207.00,286.41,1
190.00,289.84,1
238.00,289.70,1
218.00,287.28,1
163.00,282.88,1
231.00,276.61,1
177.00,269.29,1
106.00,260.53,1
228.00,250.36,1
34.00,239.26,1
87.00,226.07,1
65.00,210.80,1
125.00,195.02,1
160.00,180.51,1
159.00,168.50,1
140.00,158.91,1
293.00,152.45,1
300.00,150.95,1
287.00,154.60,1
328.00,162.27,1
341.00,173.32,1
386.00,187.54,1
246.00,203.41,1
419.00,219.48,1
309.00,235.94,1
383.00,252.36,1
299.00,267.86,1
304.00,281.40,1
284.00,292.24,1
321.00,300.68,1
215.00,306.58,1
167.00,308.49,1
204.00,305.93,1
115.00,299.51,1
136.00,289.42,1
76.00,276.00,1
107.00,259.89,1
61.00,241.99,1
109.00,223.17,1
185.00,205.30,1
82.00,189.57,1
203.00,175.91,1
177.00,165.23,1
248.00,158.33,1
227.00,155.29,1
329.00,156.46,1
419.00,162.95,1
453.00,175.97,1
316.00,193.60,1
381.00,212.68,1
383.00,232.23,1
250.00,250.96,1
377.00,267.32,1
406.00,282.56,1
282.00,296.96,1
314.00,308.70,1
200.00,316.58,1
329.00,320.71,1
239.00,322.30,1
127.00,320.59,1
182.00,314.31,1
160.00,304.56,1
46.00,291.57,1
95.00,274.88,1
58.00,255.55,1
105.00,235.04,1
108.00,214.76,1
50.00,195.33,1
40.00,176.18,1
83.00,157.51,1
69.00,140.39,1
136.00,125.69,1
160.00,114.53,1
245.00,108.04,1
293.00,107.31,1
292.00,112.45,1
326.00,122.58,1
324.00,136.70,1
330.00,153.64,1
376.00,172.68,1
337.00,193.19,1
339.00,213.87,1
277.00,233.18,1
336.00,250.31,1
294.00,265.32,1
379.00,278.73,1
268.00,290.61,1
266.00,299.79,1
168.00,304.88,1
241.00,305.66,1
196.00,303.10,1
148.00,297.60,1
194.00,289.27,1
77.00,278.38,1
108.00,264.68,1
44.00,248.27,1
40.00,229.51,1
90.00,209.46,1
111.00,190.04,1
72.00,172.17,1
75.00,155.63,1
309.00,142.30,1
140.00,134.36,1
248.00,130.78,1
208.00,130.78,1
471.00,135.85,1
282.00,147.07,1
170.00,160.72,1
349.00,173.82,1
393.00,188.46,1
418.00,206.18,1
341.00,225.79,1
577.00,247.05,1
306.00,269.94,1
360.00,291.23,1
266.00,308.45,1
309.00,321.25,1
244.00,329.64,1
162.00,333.05,1
301.00,331.77,1
236.00,328.05,1
327.00,323.48,1
88.00,317.39,1
80.00,307.02,1
189.00,292.61,1
127.00,276.81,1
90.00,260.08,1
56.00,241.78,1
198.00,223.20,1
270.00,207.67,1
181.00,196.63,1
249.00,189.02,1
200.00,184.25,1
200.00,181.55,1
204.00,180.15,1
252.00,180.24,1
139.00,181.35,1
219.00,182.40,1
288.00,184.32,1
320.00,188.93,1
315.00,196.45,1
280.00,205.87,1
131.00,214.54,1
252.00,220.58,1
292.00,225.54,1
233.00,230.69,1
334.00,236.01,1
180.00,241.19,1
69.00,243.48,1
156.00,241.07,1
124.00,235.39,1
109.00,227.53,1
71.00,217.47,1
63.00,205.19,1
44.00,191.06,1
38.00,175.57,1
48.00,159.38,1
86.00,143.63,1
112.00,129.66,1
151.00,118.56,1
136.00,110.79,1
294.00,107.13,1
215.00,108.53,1
122.00,113.06,1
193.00,118.14,1
378.00,125.42,1
311.00,137.18,1
292.00,152.34,1
457.00,170.03,1
299.00,190.26,1
288.00,210.47,1
201.00,227.75,1
279.00,241.36,1
241.00,251.99,1
250.00,260.08,1
50.00,264.16,1
93.00,262.19,1
135.00,255.05,1
82.00,244.85,1
158.00,232.79,1
77.00,219.80,1
174.00,206.69,1
46.00,193.77,1
138.00,180.86,1
66.00,168.29,1
150.00,156.64,1
112.00,146.57,1
103.00,138.00,1
134.00,130.67,1
181.00,125.35,1
297.00,123.76,1
152.00,126.12,1
217.00,130.53,1
193.00,136.00,1
294.00,143.07,1
372.00,153.25,1
210.00,166.26,1
291.00,179.63,1
293.00,192.82,1
248.00,205.77,1
304.00,217.85,1
203.00,228.58,1
187.00,236.60,1
280.00,241.92,1
115.00,245.08,1
139.00,244.75,1
204.00,241.28,1
100.00,236.01,1
69.00,228.10,1
120.00,217.46,1
44.00,205.08,1
149.00,191.84,1
55.00,178.71,1
172.00,166.39,1
194.00,156.42,1
94.00,149.08,1
126.00,142.78,1
88.00,136.85,1
225.00,132.18,1
248.00,130.75,1
218.00,133.10,1
196.00,137.76,1
280.00,144.08,1
190.00,151.94,1
286.00,160.70,1
251.00,170.41,1
316.00,181.28,1
312.00,193.42,1
387.00,207.22,1
302.00,222.32,1
323.00,237.33,1
193.00,250.32,1
346.00,260.65,1
224.00,269.04,1
145.00,274.27,1
179.00,274.89,1
137.00,271.59,1
145.00,265.01,1
37.00,255.10,1
102.00,241.82,1
245.00,227.74,1
74.00,215.01,1
58.00,201.94,1
64.00,187.43,1
50.00,172.13,1
90.00,156.92,1
61.00,142.59,1
147.00,129.95,1
176.00,120.45,1
303.00,115.91,1
232.00,117.00,1
190.00,121.86,1
308.00,129.14,1
292.00,139.49,1
205.00,151.84,1
340.00,164.82,1
288.00,178.91,1
335.00,194.04,1
236.00,209.00,1
306.00,222.67,1
172.00,234.12,1
233.00,242.36,1
232.00,247.81,1
305.00,252.04,1
204.00,255.57,1
371.00,258.77,1
258.00,262.58,1
190.00,265.71,1
117.00,265.53,1
119.00,261.06,1
54.00,252.39,1
82.00,239.94,1
56.00,224.81,1
71.00,208.08,1
83.00,190.83,1
128.00,174.40,1
63.00,159.48,1
74.00,145.57,1
221.00,133.77,1
366.00,127.66,1
270.00,128.94,1
243.00,135.17,1
225.00,143.54,1
308.00,153.40,1
347.00,165.62,1
276.00,180.08,1
257.00,194.68,1
260.00,208.01,1
339.00,220.51,1
258.00,232.60,1
196.00,242.78,1
174.00,249.25,1
208.00,252.15,1
220.00,252.73,1
149.00,251.39,1
55.00,246.77,1
75.00,237.89,1
36.00,225.30,1
67.00,210.09,1
121.00,193.98,1
43.00,178.23,1
221.00,163.91,1
55.00,152.06,1
54.00,141.22,1
141.00,130.82,1
52.00,121.81,1
151.00,114.20,1
164.00,108.95,1
186.00,106.83,1
325.00,108.88,1
323.00,116.38,1
246.00,128.30,1
302.00,142.38,1
308.00,157.96,1
392.00,175.43,1
205.00,193.68,1
292.00,210.19,1
290.00,224.70,1
353.00,238.43,1
299.00,251.69,1
182.00,262.80,1
226.00,269.93,1
175.00,273.11,1
222.00,273.06,1
138.00,270.25,1
157.00,264.60,1
159.00,256.62,1
58.00,246.44,1
177.00,234.32,1
48.00,221.17,1
75.00,206.75,1
83.00,191.29,1
110.00,176.10,1
162.00,162.57,1
213.00,152.25,1
126.00,145.31,1
153.00,140.33,1
221.00,137.29,1
207.00,137.09,1
114.00,138.59,1
204.00,140.44,1
252.00,143.58,1
214.00,148.83,1
328.00,156.20,1
305.00,166.36,1
208.00,178.02,1
286.00,189.32,1
300.00,200.61,1
298.00,212.34,1
251.00,223.72,1
334.00,234.34,1
221.00,244.08,1
296.00,252.28,1
198.00,258.53,1
212.00,262.18,1
185.00,262.97,1
228.00,261.59,1
218.00,258.98,1
108.00,254.82,1
192.00,248.43,1
93.00,240.19,1
58.00,229.57,1
60.00,216.12,1
105.00,201.07,1
54.00,185.68,1
118.00,170.57,1
50.00,156.24,1
186.00,143.53,1
123.00,133.65,1
176.00,126.75,1
232.00,123.17,1
262.00,123.89,1
326.00,129.30,1
307.00,139.20,1
200.00,151.51,1
241.00,163.70,1
173.00,174.62,1
323.00,184.66,1
163.00,194.31,1
372.00,203.66,1
229.00,213.42,1
330.00,223.36,1
154.00,232.15,1
350.00,239.32,1
164.00,245.27,1
160.00,248.60,1
152.00,248.18,1
203.00,245.18,1
198.00,241.02,1
43.00,235.20,1
53.00,225.76,1
94.00,213.16,1
48.00,198.86,1
73.00,183.62,1
92.00,168.34,1
42.00,153.64,1
76.00,139.47,1
206.00,127.39,1
215.00,119.80,1
216.00,117.14,1
175.00,118.02,1
226.00,121.34,1
294.00,127.47,1
158.00,135.95,1
540.00,147.40,1
184.00,163.03,1
316.00,179.67,1
348.00,196.01,1
348.00,213.18,1
256.00,229.96,1
251.00,244.29,1
200.00,255.03,1
311.00,262.68,1
137.00,267.72,1
87.00,268.26,1
90.00,263.03,1
186.00,254.14,1
150.00,244.02,1
52.00,232.71,1
48.00,218.89,1
98.00,203.16,1
56.00,186.97,1
72.00,170.78,1
41.00,154.85,1
120.00,139.87,1
133.00,127.29,1
126.00,117.74,1
143.00,110.95,1
140.00,106.68,1
218.00,105.19,1
236.00,107.28,1
344.00,113.83,1
371.00,125.76,1
301.00,142.19,1
278.00,160.35,1
360.00,178.90,1
296.00,197.79,1
394.00,216.73,1
269.00,235.14,1
347.00,251.92,1
284.00,266.65,1
347.00,279.46,1
205.00,289.73,1
225.00,296.08,1
209.00,298.28,1
228.00,297.30,1
170.00,293.65,1
186.00,287.41,1
242.00,279.65,1
90.00,270.81,1
125.00,259.69,1
41.00,245.77,1
99.00,229.61,1
52.00,212.16,1
50.00,193.99,1
93.00,175.77,1
115.00,159.01,1
170.00,145.09,1
384.00,136.70,1
190.00,135.11,1
236.00,137.75,1
243.00,142.71,1
311.00,150.27,1
125.00,159.22,1
332.00,168.14,1
228.00,177.80,1
310.00,188.37,1
311.00,199.75,1
349.00,212.42,1
267.00,225.58,1
322.00,238.09,1
269.00,249.48,1
248.00,259.04,1
248.00,266.13,1
527.00,273.23,1
210.00,282.07,1
163.00,288.65,1
47.00,288.87,1
88.00,282.33,1
170.00,271.27,1
122.00,258.44,1
50.00,243.93,1
113.00,227.59,1
81.00,210.60,1
123.00,194.01,1
111.00,178.62,1
107.00,164.75,1
127.00,152.51,1
122.00,142.15,1
198.00,134.29,1
293.00,130.55,1
288.00,132.23,1
310.00,138.94,1
250.00,149.00,1
289.00,160.83,1
324.00,174.00,1
192.00,187.61,1
238.00,199.57,1
266.00,209.77,1
329.00,219.69,1
144.00,228.80,1
328.00,235.96,1
162.00,241.53,1
197.00,244.80,1
227.00,245.66,1
161.00,244.90,1
219.00,242.56,1
109.00,238.62,1
155.00,232.64,1
53.00,224.27,1
68.00,213.20,1
88.00,200.04,1
101.00,186.26,1
140.00,173.18,1
162.00,162.01,1
75.00,152.62,1
148.00,144.23,1
46.00,136.55,1
124.00,129.19,1
199.00,123.42,1
246.00,121.28,1
296.00,123.81,1
263.00,130.75,1
347.00,141.35,1
310.00,155.23,1
247.00,170.69,1
337.00,186.24,1
212.00,201.28,1
392.00,215.58,1
310.00,230.14,1
384.00,245.15,1
221.00,259.20,1
331.00,270.87,1
88.00,278.78,1
166.00,281.17,1
198.00,278.80,1
99.00,273.22,1
134.00,264.37,1
40.00,252.23,1
120.00,237.43,1
42.00,221.02,1
44.00,203.31,1
56.00,184.70,1
46.00,166.12,1
36.00,148.04,1
69.00,130.97,1
106.00,115.98,1
251.00,105.16,1
182.00,100.00,1
272.00,100.09,1
284.00,105.24,1
174.00,114.09,1
368.00,125.32,1
282.00,139.59,1
253.00,155.58,1
370.00,172.17,1
278.00,189.58,1
334.00,206.96,1
366.00,224.16,1
257.00,240.74,1
212.00,254.42,1
482.00,266.01,1
199.00,277.39,1
212.00,285.88,1
140.00,289.19,1
213.00,288.00,1
217.00,284.06,1
220.00,278.86,1
193.00,272.70,1
62.00,264.53,1
165.00,253.59,1
83.00,240.83,1
119.00,226.83,1
73.00,211.97,1
45.00,196.26,1
59.00,179.60,1
214.00,164.13,1
95.00,151.76,1
131.00,141.77,1
281.00,134.75,1
135.00,131.82,1
198.00,131.43,1
348.00,134.08,1
362.00,142.05,1
337.00,155.11,1
220.00,170.31,1
312.00,185.23,1
317.00,200.06,1
386.00,215.75,1
368.00,232.57,1
324.00,249.63,1
232.00,264.66,1
261.00,275.99,1
224.00,283.54,1
202.00,287.43,1
281.00,288.35,1
154.00,287.09,1
200.00,283.14,1
165.00,276.68,1
118.00,267.96,1
59.00,256.28,1
188.00,242.40,1
80.00,228.09,1
40.00,212.88,1
150.00,196.85,1
110.00,181.87,1
205.00,169.22,1
516.00,162.56,1
231.00,164.42,1
140.00,169.64,1
246.00,174.25,1
314.00,179.85,1
286.00,187.76,1
423.00,198.39,1
324.00,212.00,1
494.00,228.27,1
185.00,245.47,1
339.00,260.36,1
368.00,273.25,1
500.00,287.03,1
274.00,301.63,1
222.00,313.24,1
239.00,319.58,1
234.00,321.49,1
40.00,318.45,1
44.00,308.50,1
181.00,293.18,1
44.00,275.54,1
65.00,255.77,1
56.00,234.17,1
40.00,211.76,1
85.00,189.58,1
62.00,168.67,1
57.00,149.40,1
119.00,132.25,1
309.00,119.89,1
281.00,114.94,1
238.00,116.57,1
304.00,122.82,1
176.00,131.93,1
293.00,142.34,1
322.00,154.54,1
362.00,169.43,1
403.00,187.12,1
309.00,206.63,1
331.00,225.83,1
229.00,242.88,1
140.00,255.47,1
191.00,262.33,1
174.00,264.60,1
208.00,263.76,1
173.00,260.69,1
201.00,256.00,1
180.00,250.21,1
43.00,242.55,1
222.00,232.70,1
195.00,223.15,1
81.00,214.25,1
89.00,204.03,1
184.00,193.20,1
76.00,182.98,1
152.00,173.19,1
133.00,164.27,1
186.00,157.05,1
219.00,152.36,1
178.00,150.39,1
381.00,151.83,1
300.00,158.14,1
311.00,168.42,1
380.00,181.44,1
284.00,196.50,1
344.00,212.12,1
274.00,227.30,1
700.00,244.47,1
330.00,265.98,1
393.00,288.10,1
245.00,306.64,1
227.00,319.80,1
221.00,326.73,1
454.00,330.48,1
171.00,333.15,1
45.00,331.05,1
166.00,322.05,1
98.00,308.53,1
173.00,292.43,1
77.00,274.80,1
81.00,255.69,1
94.00,235.43,1
87.00,215.16,1
142.00,196.03,1
91.00,178.84,1
169.00,163.93,1
115.00,151.68,1
299.00,143.13,1
195.00,139.38,1
202.00,139.32,1
331.00,142.37,1
296.00,149.57,1
239.00,159.67,1
326.00,171.19,1
341.00,184.47,1
369.00,199.87,1
372.00,216.96,1
373.00,235.03,1
311.00,252.80,1
243.00,268.18,1
288.00,279.98,1
306.00,288.99,1
226.00,295.59,1
84.00,297.74,1
124.00,293.77,1
178.00,285.27,1
44.00,273.63,1
73.00,258.54,1
79.00,240.72,1
90.00,221.88,1
40.00,202.67,1
89.00,183.50,1
113.00,165.62,1
95.00,149.94,1
91.00,136.33,1
99.00,124.58,1
110.00,114.84,1
304.00,108.80,1
306.00,109.03,1
278.00,115.42,1
291.00,126.06,1
164.00,138.42,1
329.00,151.06,1
350.00,165.36,1
335.00,182.01,1
451.00,200.79,1
340.00,221.48,1
410.00,242.65,1
245.00,262.33,1
310.00,278.62,1
175.00,290.38,1
315.00,297.78,1
138.00,301.34,1
252.00,301.07,1
214.00,297.95,1
230.00,293.25,1
139.00,286.70,1
45.00,276.77,1
95.00,262.72,1
34.00,245.55,1
75.00,226.36,1
44.00,206.16,1
60.00,185.85,1
142.00,166.81,1
77.00,150.30,1
110.00,136.15,1
135.00,124.46,1
207.00,116.34,1
249.00,112.97,1
280.00,114.84,1
317.00,121.84,1
280.00,133.03,1
270.00,146.63,1
308.00,161.51,1
328.00,177.54,1
410.00,195.23,1
406.00,215.14,1
274.00,235.56,1
119.00,252.12,1
163.00,261.90,1
186.00,265.88,1
156.00,265.77,1
128.00,262.05,1
187.00,255.47,1
68.00,246.68,1
38.00,234.76,1
57.00,219.58,1
116.00,202.92,1
187.00,187.48,1
138.00,174.74,1
39.00,163.42,1
142.00,152.37,1
253.00,143.70,1
226.00,139.62,1
422.00,141.27,1
227.00,148.55,1
183.00,157.95,1
306.00,167.32,1
318.00,178.10,1
397.00,191.51,1
268.00,206.77,1
342.00,222.06,1
168.00,235.60,1
339.00,246.49,1
216.00,255.40,1
320.00,262.74,1
331.00,269.45,1
269.00,275.98,1
168.00,280.39,1
126.00,280.45,1
166.00,276.05,1
68.00,267.96,1
182.00,256.88,1
54.00,244.00,1
107.00,229.42,1
67.00,213.46,1
72.00,196.87,1
76.00,180.10,1
109.00,164.14,1
106.00,149.89,1
240.00,138.74,1
254.00,132.62,1
270.00,132.00,1
262.00,135.87,1
247.00,142.92,1
321.00,152.49,1
335.00,164.89,1
238.00,179.05,1
357.00,193.58,1
318.00,208.74,1
354.00,224.50,1
338.00,240.32,1
338.00,255.72,1
208.00,269.07,1
97.00,277.32,1
123.00,278.67,1
266.00,275.48,1
169.00,270.77,1
120.00,264.19,1
133.00,254.92,1
147.00,243.85,1
98.00,231.72,1
57.00,218.16,1
132.00,203.45,1
53.00,188.65,1
50.00,173.53,1
126.00,158.60,1
135.00,145.63,1
220.00,136.08,1
176.00,130.55,1
206.00,128.50,1
292.00,130.01,1
238.00,135.37,1
338.00,144.15,1
285.00,156.01,1
346.00,170.22,1
169.00,184.87,1
352.00,198.47,1
319.00,212.10,1
352.00,226.56,1
220.00,240.33,1
268.00,251.62,1
146.00,259.33,1
232.00,263.17,1
205.00,264.14,1
177.00,262.88,1
155.00,259.15,1
112.00,252.71,1
127.00,243.59,1
67.00,232.18,1
141.00,219.12,1
47.00,205.21,1
56.00,190.28,1
101.00,174.76,1
60.00,159.81,1
151.00,146.24,1
186.00,135.63,1
230.00,129.32,1
158.00,126.91,1
234.00,127.31,1
264.00,130.81,1
259.00,137.57,1
404.00,148.00,1
335.00,162.73,1
308.00,179.98,1
279.00,197.28,1
352.00,213.97,1
198.00,229.35,1
318.00,242.26,1
234.00,252.90,1
304.00,261.62,1
211.00,268.30,1
207.00,272.23,1
164.00,272.76,1
161.00,269.87,1
101.00,263.61,1
123.00,254.12,1
186.00,242.86,1
50.00,230.77,1
136.00,217.43,1
49.00,203.16,1
62.00,188.03,1
117.00,172.69,1
86.00,158.50,1
112.00,145.78,1
134.00,134.96,1
167.00,126.79,1
154.00,121.56,1
138.00,118.64,1
201.00,117.70,1
279.00,119.92,1
76.00,124.54,1
457.00,131.25,1
295.00,142.71,1
319.00,158.04,1
357.00,175.16,1
318.00,193.60,1
341.00,212.25,1
408.00,231.03,1
299.00,249.68,1
109.00,264.82,1
241.00,273.79,1
166.00,277.84,1
131.00,277.54,1
76.00,272.33,1
148.00,262.96,1
327.00,252.94,1
205.00,245.28,1
132.00,238.53,1
154.00,230.67,1
112.00,221.64,1
117.00,211.54,1
78.00,200.39,1
216.00,189.34,1
298.00,181.39,1
192.00,177.65,1
227.00,176.44,1
114.00,175.97,1
184.00,175.08,1
266.00,174.79,1
235.00,176.68,1
358.00,181.34,1
518.00,191.07,1
370.00,206.70,1
461.00,225.95,1
345.00,246.61,1
315.00,266.29,1
251.00,282.57,1
237.00,294.30,1
244.00,301.48,1
341.00,305.77,1
42.00,306.90,1
87.00,301.88,1
172.00,291.34,1
166.00,278.64,1
187.00,265.48,1
120.00,252.16,1
127.00,238.27,1
42.00,223.22,1
138.00,207.28,1
104.00,191.82,1
72.00,177.15,1
98.00,163.01,1
41.00,149.43,1
135.00,136.76,1
41.00,125.53,1
220.00,116.45,1
268.00,111.90,1
380.00,114.21,1
355.00,123.63,1
247.00,137.75,1
282.00,153.26,1
214.00,168.45,1
444.00,183.95,1
200.00,200.39,1
355.00,216.16,1
298.00,230.99,1
389.00,245.71,1
383.00,260.86,1
293.00,275.73,1
183.00,287.44,1
269.00,294.49,1
239.00,298.04,1
202.00,298.71,1
253.00,296.76,1
40.00,291.60,1
173.00,282.22,1
45.00,269.29,1
206.00,254.38,1
43.00,238.75,1
62.00,221.92,1
61.00,203.62,1
92.00,185.27,1
141.00,168.38,1
94.00,153.86,1
320.00,143.10,1
292.00,138.64,1
139.00,139.29,1
233.00,141.83,1
233.00,145.99,1
260.00,152.27,1
286.00,160.58,1
395.00,171.71,1
343.00,186.21,1
700.00,205.79,1
208.00,230.06,1
391.00,253.37,1
158.00,272.20,1
327.00,286.03,1
36.00,294.07,1
238.00,295.73,1
194.00,293.00,1
283.00,288.73,1
175.00,283.68,1
139.00,276.85,1
126.00,267.26,1
75.00,255.00,1
59.00,240.02,1
52.00,222.67,1
82.00,204.16,1
143.00,186.33,1
38.00,169.96,1
103.00,154.57,1
96.00,140.57,1
183.00,129.25,1
184.00,121.74,1
300.00,119.03,1
116.00,120.46,1
313.00,124.59,1
375.00,132.83,1
547.00,147.96,1
93.00,167.43,1
155.00,184.03,1
406.00,197.23,1
308.00,211.28,1
280.00,225.75,1
265.00,238.64,1
427.00,250.78,1
192.00,262.57,1
544.00,274.04,1
289.00,286.69,1
230.00,297.99,1
115.00,303.88,1
185.00,303.66,1
135.00,298.56,1
69.00,289.12,1
39.00,274.91,1
94.00,256.99,1
123.00,237.80,1
43.00,218.53,1
71.00,198.96,1
70.00,179.63,1
113.00,161.68,1
41.00,145.47,1
204.00,131.65,1
249.00,122.54,1
322.00,120.03,1
291.00,123.89,1
360.00,133.15,1
407.00,147.53,1
340.00,166.08,1
395.00,186.97,1
412.00,209.43,1
208.00,231.38,1
506.00,251.44,1
396.00,271.74,1
317.00,291.56,1
143.00,306.68,1
430.00,316.54,1
197.00,323.48,1
336.00,327.65,1
224.00,329.01,1
147.00,326.84,1
120.00,319.58,1
52.00,307.13,1
93.00,290.10,1
53.00,269.96,1
138.00,248.52,1
156.00,228.01,1
42.00,208.95,1
50.00,189.97,1
204.00,172.11,1
52.00,157.07,1
383.00,146.18,1
213.00,141.62,1
127.00,141.23,1
224.00,142.00,1
403.00,145.99,1
325.00,155.39,1
217.00,167.96,1
271.00,180.46,1
508.00,194.45,1
307.00,211.81,1
401.00,230.58,1
144.00,247.57,1
367.00,261.03,1
222.00,271.70,1
298.00,279.99,1
208.00,285.53,1
215.00,287.99,1
198.00,287.25,1
250.00,284.31,1
239.00,280.44,1
287.00,276.61,1
157.00,272.58,1
87.00,266.20,1
270.00,257.54,1
136.00,248.76,1
159.00,239.67,1
91.00,229.35,1
146.00,217.97,1
77.00,205.89,1
50.00,192.81,1
91.00,178.71,1
78.00,164.65,1
107.00,151.44,1
145.00,140.01,1
246.00,131.99,1
383.00,130.08,1
194.00,134.31,1
300.00,141.97,1
350.00,152.62,1
360.00,166.90,1
335.00,183.83,1
343.00,202.03,1
300.00,220.10,1
302.00,236.84,1
385.00,252.41,1
240.00,266.74,1
142.00,277.12,1
306.00,282.73,1
216.00,285.64,1
220.00,286.32,1
170.00,284.20,1
94.00,278.55,1
253.00,270.08,1
88.00,260.42,1
177.00,249.49,1
92.00,237.37,1
69.00,223.84,1
122.00,209.08,1
64.00,194.05,1
126.00,179.32,1
140.00,165.96,1
116.00,154.65,1
236.00,145.96,1
313.00,142.02,1
173.00,142.94,1
254.00,146.45,1
266.00,152.12,1
346.00,160.85,1
318.00,172.72,1
389.00,187.34,1
271.00,203.54,1
333.00,219.58,1
328.00,234.96,1
302.00,249.56,1
362.00,263.11,1
157.00,274.49,1
427.00,283.16,1
222.00,290.58,1
130.00,294.90,1
136.00,293.54,1
190.00,287.71,1
166.00,279.37,1
45.00,268.46,1
126.00,254.46,1
235.00,239.78,1
64.00,226.15,1
95.00,212.09,1
175.00,197.91,1
122.00,185.29,1
173.00,174.46,1
48.00,164.73,1
238.00,156.07,1
249.00,150.72,1
383.00,150.91,1
304.00,157.09,1
358.00,167.75,1
291.00,181.12,1
371.00,196.19,1
383.00,212.88,1
394.00,231.15,1
350.00,250.02,1
432.00,268.69,1
274.00,286.30,1
337.00,301.10,1
210.00,311.95,1
185.00,317.70,1
170.00,317.72,1
197.00,313.18,1
241.00,306.05,1
161.00,297.45,1
138.00,286.84,1
87.00,273.64,1
67.00,257.74,1
55.00,239.45,1
36.00,219.40,1
122.00,198.94,1
119.00,180.11,1
121.00,163.83,1
195.00,150.63,1
163.00,141.18,1
166.00,134.99,1
104.00,130.78,1
274.00,128.60,1
288.00,130.44,1
305.00,137.16,1
361.00,148.12,1
360.00,163.01,1
354.00,180.83,1
453.00,201.01,1
266.00,222.34,1
396.00,242.61,1
355.00,261.67,1
363.00,279.63,1
233.00,294.90,1
196.00,305.25,1
210.00,309.83,1
262.00,310.32,1
203.00,308.20,1
94.00,302.69,1
149.00,292.96,1
98.00,279.91,1
179.00,265.04,1
45.00,249.10,1
35.00,231.25,1
89.00,211.66,1
56.00,191.96,1
155.00,173.59,1
269.00,159.13,1
89.00,149.34,1
108.00,141.55,1
203.00,135.14,1
128.00,131.11,1
376.00,130.62,1
317.00,135.87,1
326.00,146.46,1
412.00,161.13,1
351.00,179.32,1
531.00,200.85,1
372.00,225.40,1
601.00,252.08,1
375.00,280.18,1
388.00,306.66,1
65.00,326.73,1
350.00,338.32,1
303.00,344.71,1
165.00,347.43,1
210.00,345.01,1
181.00,338.11,1
187.00,327.97,1
51.00,314.41,1
128.00,297.13,1
61.00,277.17,1
149.00,256.13,1
248.00,236.70,1
258.00,221.56,1
519.00,213.42,1
98.00,211.71,1
146.00,210.53,1
130.00,206.92,1
459.00,204.48,1
120.00,205.53,1
204.00,207.00,1
305.00,208.17,1
450.00,212.66,1
354.00,221.89,1
248.00,233.18,1
123.00,242.11,1
257.00,247.07,1
639.00,253.24,1
260.00,264.40,1
405.00,277.10,1
99.00,287.22,1
84.00,291.08,1
482.00,290.60,1
49.00,289.69,1
284.00,286.54,1
287.00,282.14,1
448.00,280.27,1
306.00,281.91,1
352.00,285.50,1
412.00,290.57,1
665.00,300.06,1
645.00,317.15,1
155.00,337.08,1
64.00,349.45,1
51.00,350.12,1
338.00,343.24,1
76.00,333.30,1
52.00,319.16,1
347.00,302.25,1
135.00,286.69,1
160.00,271.79,1
234.00,257.16,1
91.00,243.48,1
252.00,230.54,1
372.00,221.08,1
353.00,217.71,1
103.00,217.79,1
286.00,217.64,1
338.00,218.70,1
283.00,222.63,1
514.00,229.96,1
126.00,239.84,1
228.00,247.63,1
579.00,254.96,1
84.00,264.25,1
518.00,273.03,1
388.00,283.14,1
160.00,293.48,1
674.00,303.06,1
93.00,313.56,1
160.00,319.63,1
122.00,318.14,1
182.00,311.36,1
36.00,300.23,1
115.00,284.87,1
562.00,270.63,1
525.00,265.44,1
290.00,268.43,1
474.00,274.88,1
806.00,287.53,1
365.00,308.02,1
199.00,327.75,1
273.00,340.47,1
610.00,350.07,1
369.00,361.19,1
37.00,369.16,1
182.00,368.19,1
453.00,362.28,1
318.00,357.43,1
210.00,352.66,1
180.00,344.91,1
400.00,335.63,1
253.00,327.67,1
328.00,320.99,1
443.00,316.49,1
466.00,316.46,1
103.00,318.18,1
75.00,315.09,1
130.00,305.46,1
41.00,291.19,1
76.00,273.11,1
236.00,253.87,1
142.00,236.57,1
146.00,221.10,1
328.00,208.33,1
176.00,199.83,1
107.00,193.27,1
265.00,187.30,1
155.00,183.11,1
568.00,183.30,1
260.00,190.23,1
232.00,200.10,1
270.00,209.20,1
340.00,218.38,1
287.00,228.35,1
295.00,238.36,1
254.00,247.44,1
564.00,257.45,1
454.00,271.76,1
278.00,288.12,1
250.00,301.43,1
333.00,310.72,1
387.00,318.29,1
78.00,323.31,1
223.00,322.80,1
282.00,318.41,1
117.00,312.02,1
96.00,301.94,1
105.00,287.72,1
132.00,270.96,1
55.00,252.80,1
264.00,234.84,1
48.00,218.64,1
88.00,202.80,1
209.00,187.63,1
229.00,175.99,1
204.00,168.53,1
143.00,163.72,1
254.00,160.80,1
357.00,161.63,1
235.00,166.85,1
582.00,176.92,1
383.00,193.45,1
315.00,213.44,1
407.00,233.31,1
409.00,253.39,1
351.00,273.32,1
332.00,291.36,1
303.00,306.32,1
505.00,319.49,1
324.00,332.46,1
330.00,343.59,1
173.00,350.26,1
144.00,350.58,1
167.00,344.44,1
148.00,333.52,1
372.00,321.07,1
50.00,308.77,1
138.00,294.26,1
78.00,276.87,1
204.00,258.61,1
43.00,240.56,1
110.00,222.21,1
111.00,204.01,1
213.00,187.93,1
270.00,176.15,1
125.00,168.64,1
87.00,162.38,1
168.00,156.12,1
468.00,153.54,1
383.00,158.74,1
369.00,170.69,1
302.00,185.85,1
331.00,201.99,1
164.00,216.91,1
146.00,227.72,1
226.00,234.05,1
280.00,238.38,1
279.00,242.59,1
339.00,247.50,1
394.00,254.20,1
290.00,262.62,1
250.00,270.45,1
70.00,274.56,1
193.00,273.45,1
121.00,268.26,1
60.00,259.54,1
102.00,247.18,1
79.00,232.47,1
123.00,216.78,1
74.00,201.01,1
164.00,185.98,1
65.00,172.26,1
174.00,160.01,1
36.00,149.12,1
54.00,138.40,1
146.00,128.07,1
223.00,120.67,1
136.00,117.06,1
45.00,114.91,1
39.00,111.67,1
266.00,108.73,1
430.00,111.20,1
284.00,121.19,1
349.00,135.87,1
362.00,153.66,1
133.00,172.05,1
318.00,188.15,1
310.00,203.09,1
434.00,219.04,1
262.00,235.81,1
356.00,251.61,1
447.00,267.05,1
273.00,282.54,1
249.00,295.22,1
298.00,303.93,1
205.00,309.19,1
205.00,310.44,1
130.00,307.24,1
173.00,299.96,1
212.00,290.12,1
274.00,280.24,1
112.00,270.68,1
70.00,259.10,1
56.00,244.31,1
45.00,226.84,1
83.00,207.93,1
161.00,189.75,1
108.00,173.91,1
196.00,160.85,1
263.00,151.95,1
288.00,148.52,1
280.00,150.28,1
323.00,156.37,1
338.00,166.26,1
383.00,179.71,1
568.00,197.76,1
342.00,220.33,1
460.00,244.31,1
336.00,267.66,1
381.00,289.04,1
304.00,307.32,1
321.00,321.89,1
216.00,331.90,1
295.00,337.13,1
188.00,338.13,1
263.00,335.45,1
124.00,329.22,1
107.00,318.67,1
170.00,304.30,1
45.00,287.34,1
84.00,267.80,1
37.00,246.15,1
54.00,223.31,1
57.00,200.22,1
79.00,178.09,1
506.00,161.33,1
577.00,157.23,1
245.00,164.64,1
155.00,174.92,1
298.00,184.00,1
242.00,193.03,1
356.00,202.93,1
286.00,214.02,1
271.00,225.29,1
103.00,234.10,1
408.00,240.37,1
196.00,246.41,1
336.00,252.24,1
619.00,260.60,1
366.00,274.32,1
330.00,289.60,1
276.00,302.40,1
262.00,311.59,1
284.00,317.20,1
180.00,319.32,1
173.00,317.15,1
79.00,309.89,1
165.00,298.27,1
56.00,283.44,1
70.00,265.64,1
54.00,245.38,1
512.00,227.58,1
51.00,215.84,1
133.00,205.97,1
63.00,194.82,1
89.00,182.76,1
305.00,172.06,1
166.00,165.39,1
356.00,163.08,1
224.00,165.07,1
302.00,170.27,1
240.00,177.42,1
274.00,185.73,1
306.00,194.97,1
296.00,205.35,1
433.00,217.42,1
328.00,231.77,1
112.00,244.95,1
309.00,254.00,1
340.00,261.31,1
273.00,268.66,1
239.00,274.67,1
289.00,278.75,1
448.00,283.10,1
343.00,289.68,1
491.00,298.55,1
244.00,308.42,1
150.00,315.07,1
184.00,315.69,1
67.00,310.47,1
92.00,299.67,1
119.00,284.61,1
108.00,267.28,1
158.00,249.36,1
55.00,231.44,1
490.00,216.45,1
286.00,208.85,1
389.00,208.15,1
334.00,212.39,1
368.00,220.39,1
286.00,230.37,1
347.00,240.99,1
354.00,252.14,1
306.00,263.53,1
264.00,273.64,1
409.00,282.55,1
346.00,291.78,1
157.00,299.54,1
347.00,303.84,1
124.00,305.12,1
435.00,304.51,1
187.00,303.75,1
270.00,302.04,1
84.00,297.48,1
47.00,288.22,1
102.00,274.01,1
62.00,256.70,1
111.00,237.83,1
53.00,218.41,1
111.00,199.08,1
329.00,182.80,1
54.00,171.18,1
145.00,161.51,1
182.00,153.17,1
344.00,148.81,1
257.00,149.99,1
336.00,155.76,1
230.00,164.56,1
334.00,175.18,1
333.00,187.62,1
339.00,201.93,1
383.00,217.65,1
333.00,234.32,1
443.00,251.56,1
335.00,269.16,1
320.00,285.48,1
286.00,298.87,1
324.00,309.20,1
275.00,316.83,1
279.00,321.66,1
314.00,324.19,1
342.00,325.71,1
115.00,325.26,1
66.00,319.44,1
198.00,308.06,1
68.00,293.54,1
199.00,277.19,1
89.00,260.16,1
72.00,242.27,1
222.00,224.43,1
129.00,208.79,1
56.00,194.42,1
160.00,180.37,1
254.00,168.94,1
263.00,162.34,1
284.00,160.74,1
302.00,163.62,1
249.00,169.76,1
365.00,178.51,1
405.00,190.70,1
328.00,206.06,1
248.00,221.72,1
395.00,236.37,1
474.00,252.18,1
388.00,270.21,1
306.00,287.88,1
294.00,302.48,1
214.00,312.72,1
320.00,318.73,1
157.00,321.10,1
208.00,319.19,1
203.00,313.49,1
118.00,304.84,1
152.00,293.05,1
42.00,278.17,1
94.00,260.39,1
51.00,240.57,1
42.00,219.47,1
48.00,197.72,1
360.00,178.77,1
48.00,165.24,1
153.00,154.53,1
251.00,146.29,1
234.00,142.51,1
276.00,143.18,1
214.00,147.23,1
241.00,153.23,1
409.00,161.88,1
399.00,175.19,1
412.00,192.92,1
366.00,213.12,1
396.00,234.20,1
391.00,255.26,1
365.00,275.56,1
358.00,294.11,1
237.00,309.38,1
132.00,318.69,1
224.00,321.16,1
184.00,318.71,1
215.00,313.01,1
229.00,305.28,1
43.00,295.19,1
54.00,280.83,1
57.00,262.28,1
110.00,241.75,1
99.00,221.27,1
90.00,201.68,1
46.00,182.77,1
196.00,165.48,1
111.00,151.41,1
64.00,139.70,1
244.00,130.18,1
236.00,125.13,1
151.00,124.32,1
242.00,126.05,1
216.00,130.24,1
286.00,137.05,1
494.00,148.31,1
452.00,166.27,1
274.00,188.20,1
313.00,209.48,1
344.00,229.02,1
378.00,247.69,1
286.00,265.15,1
264.00,279.68,1
172.00,289.64,1
68.00,293.20,1
267.00,290.89,1
268.00,286.69,1
223.00,282.50,1
132.00,276.95,1
42.00,267.98,1
42.00,254.48,1
91.00,237.62,1
130.00,219.82,1
51.00,202.34,1
86.00,185.01,1
48.00,167.94,1
91.00,151.66,1
165.00,137.55,1
177.00,127.25,1
352.00,122.43,1
297.00,124.51,1
320.00,132.51,1
305.00,144.44,1
431.00,160.01,1
384.00,179.48,1
365.00,201.26,1
300.00,222.85,1
352.00,242.78,1
448.00,261.91,1
345.00,280.95,1
355.00,298.47,1
161.00,311.95,1
473.00,321.36,1
257.00,329.16,1
239.00,334.34,1
162.00,334.62,1
166.00,329.83,1
47.00,319.79,1
293.00,306.10,1
74.00,291.43,1
193.00,275.89,1
91.00,259.46,1
150.00,242.74,1
224.00,227.09,1
72.00,213.23,1
90.00,199.43,1
44.00,184.78,1
184.00,170.52,1
155.00,158.75,1
127.00,149.68,1
76.00,141.86,1
208.00,135.25,1
700.00,135.64,1
272.00,147.10,1
258.00,163.49,1
357.00,180.02,1
240.00,196.65,1
395.00,212.99,1
264.00,229.07,1
170.00,242.74,1
215.00,251.83,1
164.00,256.72,1
100.00,257.23,1
133.00,253.17,1
74.00,245.33,1
254.00,235.67,1
125.00,226.36,1
726.00,222.03,1
195.00,226.11,1
39.00,231.29,1
119.00,230.80,1
188.00,226.61,1
212.00,221.77,1
152.00,217.07,1
48.00,210.99,1
166.00,202.77,1
362.00,195.96,1
195.00,193.30,1
202.00,192.82,1
294.00,193.47,1
211.00,195.86,1
423.00,200.63,1
295.00,208.83,1
299.00,219.00,1
327.00,229.59,1
272.00,240.17,1
176.00,248.92,1
351.00,255.40,1
371.00,262.22,1
267.00,269.97,1
201.00,276.07,1
194.00,278.70,1
278.00,278.66,1
70.00,276.19,1
138.00,269.80,1
98.00,259.66,1
51.00,246.58,1
148.00,231.34,1
41.00,215.29,1
267.00,200.08,1
112.00,187.59,1
184.00,177.50,1
300.00,170.40,1
220.00,167.71,1
241.00,168.28,1
267.00,171.15,1
207.00,175.80,1
339.00,181.98,1
338.00,190.78,1
194.00,201.16,1
482.00,212.44,1
316.00,226.15,1
226.00,240.17,1
358.00,252.19,1
320.00,263.41,1
134.00,272.59,1
265.00,277.60,1
153.00,278.94,1
125.00,276.53,1
110.00,269.80,1
65.00,259.18,1
133.00,245.57,1
113.00,230.77,1
126.00,215.91,1
102.00,201.35,1
48.00,186.74,1
48.00,171.52,1
38.00,155.79,1
61.00,140.20,1
46.00,125.43,1
142.00,112.50,1
193.00,103.29,1
249.00,99.34,1
270.00,100.99,1
220.00,107.31,1
221.00,116.27,1
237.00,126.68,1
262.00,138.32,1
122.00,149.89,1
199.00,159.55,1
266.00,168.12,1
424.00,178.61,1
255.00,192.01,1
247.00,205.60,1
354.00,218.24,1
265.00,230.71,1
191.00,241.45,1
234.00,248.92,1
166.00,253.17,1
179.00,254.18,1
169.00,252.26,1
206.00,248.42,1
76.00,242.72,1
83.00,234.02,1
196.00,223.29,1
102.00,212.51,1
51.00,200.99,1
78.00,187.91,1
40.00,173.73,1
107.00,159.42,1
59.00,145.85,1
55.00,133.03,1
112.00,121.21,1
276.00,112.81,1
272.00,110.40,1
42.00,112.11,1
315.00,115.24,1
237.00,121.35,1
394.00,131.77,1
332.00,146.54,1
404.00,164.99,1
273.00,185.26,1
258.00,204.54,1
352.00,221.86,1
327.00,238.33,1
219.00,253.10,1
242.00,264.27,1
125.00,270.86,1
225.00,272.79,1
153.00,271.23,1
227.00,267.35,1
127.00,261.59,1
127.00,253.60,1
87.00,243.04,1
204.00,231.15,1
113.00,219.49,1
82.00,207.60,1
40.00,194.33,1
113.00,180.06,1
59.00,165.96,1
200.00,153.33,1
56.00,142.91,1
146.00,134.05,1
240.00,127.75,1
185.00,125.42,1
200.00,126.24,1
328.00,130.22,1
227.00,137.86,1
269.00,147.80,1
325.00,159.50,1
300.00,173.17,1
371.00,188.52,1
283.00,204.92,1
396.00,221.65,1
312.00,238.52,1
437.00,255.50,1
359.00,272.76,1
336.00,289.18,1
133.00,301.70,1
244.00,308.22,1
124.00,309.17,1
146.00,304.95,1
62.00,295.56,1
39.00,281.18,1
52.00,262.53,1
169.00,242.29,1
86.00,222.79,1
46.00,203.80,1
95.00,184.89,1
204.00,168.04,1
155.00,155.13,1
127.00,145.48,1
196.00,138.38,1
185.00,134.22,1
207.00,133.04,1
212.00,134.51,1
404.00,139.75,1
320.00,150.24,1
372.00,165.07,1
300.00,182.19,1
184.00,198.75,1
389.00,213.50,1
357.00,228.56,1
258.00,243.70,1
230.00,256.27,1
66.00,263.80,1
273.00,266.09,1
118.00,264.99,1
233.00,261.53,1
207.00,256.81,1
114.00,251.00,1
64.00,242.42,1
53.00,230.33,1
43.00,215.24,1
176.00,199.21,1
53.00,184.15,1
52.00,169.38,1
121.00,154.83,1
167.00,142.46,1
205.00,133.82,1
247.00,129.63,1
298.00,130.37,1
317.00,136.21,1
335.00,146.64,1
359.00,160.83,1
315.00,177.57,1
270.00,194.86,1
413.00,212.06,1
338.00,229.99,1
244.00,247.04,1
411.00,262.04,1
368.00,276.63,1
231.00,289.96,1
449.00,301.07,1
239.00,310.86,1
298.00,318.16,1
279.00,322.38,1
227.00,323.90,1
144.00,321.57,1
253.00,315.47,1
104.00,306.61,1
127.00,294.57,1
299.00,281.10,1
99.00,268.38,1
52.00,254.34,1
100.00,237.76,1
97.00,220.20,1
103.00,202.84,1
285.00,187.81,1
134.00,176.83,1
211.00,168.95,1
313.00,164.56,1
251.00,164.75,1
279.00,168.47,1
273.00,174.65,1
265.00,182.57,1
351.00,192.10,1
240.00,202.95,1
305.00,213.88,1
314.00,224.72,1
392.00,236.48,1
323.00,249.32,1
368.00,262.46,1
199.00,274.17,1
302.00,282.85,1
247.00,288.77,1
304.00,292.80,1
284.00,295.60,1
422.00,298.64,1
147.00,301.63,1
94.00,300.63,1
165.00,294.08,1
60.00,283.40,1
199.00,269.92,1
105.00,255.40,1
70.00,239.90,1
44.00,222.61,1
156.00,204.70,1
98.00,188.09,1
104.00,173.01,1
83.00,159.04,1
63.00,145.92,1
234.00,134.80,1
216.00,128.09,1
229.00,126.18,1
398.00,129.43,1
362.00,139.04,1
385.00,154.32,1
317.00,172.79,1
455.00,193.29,1
46.00,213.01,1
254.00,227.58,1
310.00,238.27,1
345.00,248.59,1
260.00,258.63,1
188.00,266.41,1
246.00,270.83,1
218.00,272.65,1
185.00,272.17,1
193.00,269.27,1
303.00,265.38,1
326.00,262.95,1
158.00,261.60,1
82.00,257.91,1
50.00,249.57,1
79.00,237.17,1
40.00,221.99,1
51.00,204.86,1
83.00,186.95,1
84.00,169.62,1
146.00,154.13,1
172.00,141.80,1
124.00,132.81,1
54.00,125.50,1
259.00,119.86,1
344.00,119.20,1
294.00,125.01,1
335.00,135.79,1
259.00,149.65,1
321.00,164.93,1
232.00,180.44,1
197.00,194.38,1
416.00,207.16,1
391.00,221.74,1
280.00,237.70,1
260.00,252.00,1
251.00,263.22,1
99.00,270.19,1
321.00,272.92,1
308.00,274.64,1
229.00,276.51,1
234.00,277.05,1
107.00,274.95,1
112.00,268.89,1
122.00,259.15,1
122.00,247.13,1
80.00,233.53,1
85.00,218.49,1
70.00,202.49,1
53.00,185.89,1
117.00,169.54,1
186.00,155.43,1
212.00,145.39,1
193.00,139.60,1
245.00,137.56,1
484.00,141.10,1
245.00,151.14,1
266.00,164.00,1
258.00,176.91,1
294.00,189.76,1
152.00,201.50,1
425.00,212.21,1
267.00,223.82,1
384.00,236.39,1
356.00,249.61,1
380.00,263.58,1
318.00,277.33,1
287.00,289.39,1
134.00,297.46,1
99.00,299.18,1
202.00,295.00,1
53.00,286.66,1
113.00,274.32,1
137.00,259.35,1
105.00,243.44,1
51.00,226.62,1
129.00,209.11,1
79.00,192.07,1
111.00,176.06,1
104.00,161.42,1
43.00,147.95,1
127.00,135.45,1
148.00,125.15,1
156.00,117.96,1
131.00,113.48,1
288.00,112.14,1
339.00,116.06,1
298.00,125.68,1
423.00,140.03,1
303.00,158.30,1
338.00,178.21,1
348.00,198.44,1
422.00,219.28,1
377.00,240.85,1
352.00,261.90,1
389.00,281.40,1
336.00,299.02,1
289.00,313.69,1
421.00,325.49,1
374.00,336.13,1
151.00,344.02,1
242.00,346.25,1
141.00,342.92,1
245.00,335.44,1
231.00,325.75,1
230.00,315.39,1
71.00,303.37,1
85.00,287.97,1
54.00,269.17,1
227.00,249.39,1
56.00,230.77,1
53.00,212.21,1
104.00,193.27,1
144.00,175.83,1
49.00,160.41,1
130.00,146.46,1
230.00,135.48,1
234.00,129.46,1
309.00,129.00,1
399.00,134.78,1
159.00,145.18,1
357.00,157.16,1
349.00,171.23,1
280.00,187.31,1
318.00,203.48,1
315.00,219.25,1
141.00,232.97,1
276.00,242.90,1
239.00,250.08,1
379.00,256.63,1
108.00,262.26,1
194.00,264.36,1
133.00,262.43,1
89.00,256.82,1
163.00,247.95,1
75.00,237.05,1
89.00,224.25,1
50.00,209.58,1
54.00,193.52,1
64.00,176.72,1
56.00,160.04,1
171.00,144.94,1
148.00,133.18,1
67.00,124.25,1
232.00,117.61,1
253.00,115.15,1
324.00,118.26,1
251.00,126.31,1
299.00,137.54,1
243.00,150.57,1
330.00,164.72,1
289.00,179.87,1
402.00,196.28,1
350.00,214.16,1
398.00,233.06,1
304.00,251.69,1
257.00,267.96,1
124.00,279.26,1
225.00,284.63,1
188.00,285.57,1
125.00,282.83,1
197.00,276.65,1
152.00,268.38,1
265.00,259.55,1
113.00,250.84,1
128.00,241.00,1
144.00,229.81,1
85.00,217.84,1
37.00,204.37,1
94.00,189.46,1
79.00,174.35,1
78.00,159.82,1
163.00,146.78,1
82.00,136.04,1
178.00,127.54,1
387.00,123.71,1
228.00,126.42,1
345.00,134.09,1
244.00,145.08,1
347.00,158.45,1
