40.00,37.05,1
31.00,37.04,1
33.00,36.92,1
31.00,36.67,1
42.00,36.40,1
34.00,36.22,1
50.00,36.21,1
32.00,36.38,1
35.00,36.54,1
41.00,36.63,1
37.00,36.77,1
33.00,36.88,1
46.00,36.97,1
34.00,37.13,1
39.00,37.30,1
44.00,37.48,1
32.00,37.69,1
55.00,37.95,1
31.00,38.33,1
31.00,38.57,1
41.00,38.58,1
40.00,38.58,1
35.00,38.59,1
36.00,38.53,1
40.00,38.42,1
38.00,38.35,1
33.00,38.25,1
40.00,38.11,1
41.00,38.01,1
31.00,37.94,1
37.00,37.79,1
32.00,37.56,1
31.00,37.24,1
46.00,36.92,1
34.00,36.75,1
47.00,36.74,1
30.00,36.82,1
55.00,37.01,1
39.00,37.40,1
40.00,37.90,1
44.00,38.37,1
32.00,38.78,1
46.00,39.08,1
34.00,39.33,1
96.00,39.95,1
31.00,41.22,1
62.00,42.64,1
63.00,44.11,1
35.00,45.62,1
70.00,46.93,1
128.00,48.89,1
36.00,51.75,1
37.00,54.17,1
36.00,55.42,1
45.00,55.80,1
96.00,56.08,1
55.00,56.85,1
48.00,57.66,1
50.00,58.03,1
31.00,57.87,1
59.00,57.25,1
70.00,56.70,1
32.00,56.31,1
54.00,55.71,1
34.00,54.85,1
47.00,53.78,1
103.00,53.09,1
34.00,53.21,1
34.00,53.23,1
32.00,52.59,1
41.00,51.51,1
48.00,50.33,1
440.00,52.50,1
58.00,60.58,1
46.00,69.72,1
33.00,75.86,1
53.00,79.39,1
32.00,80.83,1
41.00,80.56,1
32.00,78.89,1
35.00,76.15,1
73.00,72.99,1
70.00,70.25,1
79.00,68.27,1
33.00,66.66,1
34.00,64.71,1
34.00,62.19,1
56.00,59.53,1
136.00,57.87,1
50.00,57.85,1
35.00,58.16,1
82.00,58.14,1
39.00,58.18,1
49.00,58.00,1
48.00,57.48,1
39.00,56.70,1
31.00,55.53,1
44.00,53.99,1
31.00,52.29,1
64.00,50.66,1
39.00,49.39,1
64.00,48.50,1
58.00,48.07,1
31.00,47.91,1
43.00,47.54,1
37.00,46.96,1
74.00,46.54,1
31.00,46.47,1
49.00,46.41,1
65.00,46.44,1
68.00,46.97,1
34.00,47.76,1
45.00,48.27,1
32.00,48.36,1
43.00,48.08,1
35.00,47.54,1
114.00,47.44,1
38.00,48.29,1
84.00,49.60,1
43.00,51.03,1
60.00,52.32,1
51.00,53.35,1
42.00,54.04,1
137.00,55.03,1
156.00,57.87,1
118.00,62.85,1
81.00,68.47,1
43.00,73.13,1
72.00,76.23,1
199.00,79.26,1
135.00,83.93,1
159.00,89.91,1
120.00,96.22,1
245.00,103.16,1
421.00,113.56,1
174.00,128.23,1
118.00,142.46,1
224.00,153.81,1
256.00,164.15,1
184.00,174.19,1
64.00,181.74,1
222.00,185.89,1
66.00,187.62,1
151.00,186.92,1
604.00,188.24,1
232.00,196.22,1
134.00,205.77,1
233.00,212.27,1
360.00,218.14,1
201.00,224.93,1
310.00,231.51,1
52.00,236.06,1
323.00,237.83,1
109.00,237.98,1
274.00,236.97,1
135.00,234.90,1
270.00,232.29,1
160.00,229.53,1
286.00,227.09,1
95.00,224.56,1
74.00,219.76,1
439.00,214.49,1
75.00,211.87,1
99.00,208.57,1
183.00,202.95,1
258.00,197.94,1
208.00,195.09,1
100.00,192.86,1
111.00,189.06,1
377.00,185.69,1
219.00,185.92,1
81.00,187.35,1
431.00,188.95,1
34.00,191.99,1
228.00,193.96,1
68.00,193.66,1
98.00,190.81,1
202.00,186.18,1
168.00,182.05,1
210.00,179.07,1
79.00,176.40,1
153.00,172.85,1
89.00,168.37,1
156.00,163.42,1
248.00,159.62,1
196.00,158.45,1
312.00,160.22,1
171.00,164.45,1
205.00,169.31,1
179.00,173.70,1
213.00,177.70,1
132.00,180.95,1
103.00,182.25,1
236.00,181.96,1
54.00,180.93,1
125.00,178.05,1
149.00,173.73,1
268.00,170.42,1
194.00,169.56,1
313.00,171.31,1
273.00,175.99,1
160.00,182.15,1
221.00,187.53,1
163.00,191.74,1
72.00,193.73,1
80.00,192.04,1
193.00,187.90,1
343.00,185.22,1
327.00,187.06,1
85.00,191.24,1
95.00,193.01,1
242.00,192.25,1
169.00,191.51,1
96.00,190.20,1
161.00,187.25,1
132.00,183.35,1
176.00,179.28,1
169.00,175.66,1
369.00,174.41,1
481.00,179.31,1
127.00,189.17,1
67.00,197.03,1
160.00,199.91,1
66.00,199.21,1
86.00,195.22,1
212.00,189.46,1
119.00,184.01,1
216.00,179.29,1
522.00,178.65,1
107.00,183.61,1
131.00,188.48,1
33.00,189.29,1
94.00,186.07,1
334.00,182.05,1
257.00,181.41,1
271.00,184.20,1
155.00,188.12,1
184.00,191.21,1
142.00,192.75,1
134.00,192.51,1
105.00,190.24,1
279.00,187.37,1
84.00,185.16,1
146.00,182.26,1
153.00,178.39,1
146.00,174.50,1
356.00,172.40,1
218.00,173.99,1
278.00,178.26,1
92.00,182.77,1
82.00,184.63,1
150.00,183.31,1
95.00,180.19,1
186.00,176.18,1
126.00,172.22,1
121.00,168.13,1
82.00,163.18,1
180.00,157.86,1
616.00,157.33,1
157.00,164.70,1
71.00,173.13,1
62.00,176.82,1
97.00,176.20,1
164.00,173.39,1
459.00,172.87,1
210.00,177.43,1
42.00,182.64,1
35.00,183.29,1
158.00,179.98,1
56.00,174.88,1
112.00,168.39,1
508.00,164.42,1
282.00,167.57,1
120.00,174.30,1
364.00,180.98,1
42.00,187.43,1
81.00,190.48,1
128.00,189.24,1
52.00,185.22,1
230.00,179.86,1
199.00,175.71,1
104.00,172.80,1
406.00,171.60,1
59.00,173.05,1
36.00,173.07,1
53.00,168.84,1
149.00,162.45,1
112.00,156.05,1
222.00,150.95,1
298.00,149.12,1
97.00,150.37,1
88.00,151.15,1
120.00,150.00,1
83.00,147.56,1
99.00,144.01,1
36.00,139.16,1
137.00,133.41,1
189.00,128.75,1
44.00,125.58,1
102.00,122.16,1
204.00,119.26,1
50.00,117.73,1
82.00,115.86,1
59.00,112.88,1
44.00,108.90,1
97.00,104.29,1
69.00,99.88,1
186.00,96.70,1
43.00,95.09,1
176.00,94.44,1
151.00,95.33,1
152.00,98.06,1
169.00,102.08,1
157.00,107.10,1
33.00,111.65,1
94.00,114.02,1
59.00,114.35,1
236.00,114.52,1
131.00,116.32,1
354.00,120.94,1
148.00,128.63,1
56.00,136.06,1
89.00,140.05,1
221.00,142.21,1
45.00,143.90,1
54.00,143.43,1
142.00,140.79,1
260.00,139.07,1
183.00,140.12,1
87.00,142.19,1
121.00,143.02,1
226.00,143.51,1
39.00,144.19,1
48.00,142.86,1
55.00,138.70,1
115.00,133.20,1
184.00,128.50,1
82.00,125.36,1
259.00,123.84,1
82.00,124.24,1
108.00,124.83,1
109.00,124.52,1
73.00,123.46,1
127.00,121.74,1
78.00,119.75,1
179.00,118.10,1
81.00,117.22,1
276.00,117.77,1
90.00,120.29,1
122.00,123.02,1
51.00,124.20,1
412.00,126.25,1
195.00,132.52,1
33.00,139.79,1
36.00,143.13,1
186.00,143.33,1
149.00,143.33,1
285.00,144.95,1
45.00,147.69,1
57.00,148.43,1
104.00,146.23,1
182.00,143.43,1
34.00,140.70,1
234.00,137.97,1
56.00,135.95,1
61.00,133.29,1
69.00,128.87,1
160.00,124.23,1
202.00,121.48,1
147.00,121.25,1
56.00,121.63,1
108.00,120.93,1
74.00,119.27,1
60.00,116.67,1
89.00,113.19,1
136.00,109.89,1
600.00,111.66,1
126.00,121.49,1
117.00,132.96,1
166.00,141.64,1
115.00,148.21,1
120.00,152.56,1
53.00,154.20,1
63.00,152.70,1
166.00,149.38,1
108.00,146.08,1
98.00,142.71,1
164.00,139.30,1
236.00,137.55,1
304.00,139.47,1
137.00,144.45,1
430.00,151.78,1
170.00,161.94,1
172.00,172.09,1
213.00,180.12,1
248.00,187.25,1
219.00,194.16,1
258.00,200.79,1
257.00,207.39,1
174.00,213.37,1
178.00,217.34,1
101.00,218.36,1
240.00,217.03,1
135.00,214.77,1
193.00,211.76,1
256.00,208.90,1
200.00,207.29,1
298.00,207.09,1
151.00,207.92,1
194.00,208.23,1
170.00,207.44,1
102.00,205.24,1
80.00,200.52,1
69.00,193.03,1
49.00,183.19,1
127.00,172.09,1
151.00,161.71,1
188.00,153.58,1
48.00,147.06,1
166.00,140.97,1
103.00,135.66,1
218.00,132.03,1
146.00,130.54,1
178.00,130.79,1
114.00,131.74,1
88.00,132.19,1
226.00,132.42,1
245.00,134.71,1
340.00,140.73,1
127.00,149.32,1
65.00,156.35,1
158.00,159.94,1
270.00,162.75,1
327.00,167.98,1
70.00,174.63,1
210.00,179.51,1
192.00,182.92,1
212.00,186.13,1
91.00,188.27,1
198.00,188.57,1
72.00,187.19,1
132.00,183.86,1
592.00,182.90,1
127.00,188.01,1
74.00,193.28,1
105.00,194.04,1
230.00,192.47,1
218.00,191.38,1
114.00,190.67,1
180.00,189.00,1
63.00,185.93,1
130.00,181.03,1
261.00,176.15,1
432.00,175.57,1
164.00,179.96,1
196.00,185.23,1
148.00,188.93,1
192.00,191.15,1
182.00,192.42,1
117.00,192.59,1
186.00,191.30,1
292.00,190.45,1
204.00,191.54,1
184.00,193.36,1
136.00,194.21,1
181.00,193.69,1
120.00,192.01,1
202.00,189.54,1
131.00,186.82,1
91.00,183.16,1
157.00,178.23,1
599.00,176.91,1
57.00,181.73,1
252.00,187.37,1
127.00,191.14,1
40.00,192.18,1
51.00,188.76,1
74.00,181.71,1
64.00,172.54,1
136.00,162.67,1
166.00,153.94,1
128.00,147.16,1
226.00,142.49,1
195.00,140.66,1
150.00,140.94,1
192.00,142.18,1
169.00,144.22,1
245.00,147.40,1
175.00,151.85,1
181.00,156.62,1
305.00,162.03,1
182.00,168.86,1
396.00,177.26,1
189.00,187.38,1
70.00,195.85,1
131.00,199.63,1
112.00,199.60,1
140.00,197.08,1
138.00,193.00,1
176.00,188.41,1
269.00,184.97,1
97.00,182.95,1
56.00,179.66,1
121.00,173.96,1
52.00,166.79,1
232.00,159.60,1
145.00,154.32,1
114.00,150.46,1
215.00,147.41,1
169.00,146.14,1
77.00,145.54,1
59.00,143.44,1
210.00,140.44,1
180.00,138.96,1
343.00,140.78,1
119.00,145.64,1
165.00,150.69,1
242.00,155.25,1
149.00,160.19,1
206.00,164.81,1
219.00,169.31,1
185.00,173.98,1
118.00,177.63,1
126.00,179.05,1
206.00,178.96,1
112.00,178.34,1
78.00,176.14,1
162.00,172.17,1
116.00,167.74,1
184.00,163.60,1
111.00,159.96,1
110.00,156.17,1
119.00,151.83,1
299.00,148.85,1
68.00,148.16,1
91.00,147.07,1
96.00,144.24,1
154.00,140.92,1
54.00,137.53,1
55.00,133.04,1
372.00,129.66,1
208.00,131.12,1
106.00,135.32,1
94.00,138.28,1
192.00,139.97,1
178.00,142.06,1
145.00,144.68,1
235.00,147.70,1
248.00,152.27,1
189.00,158.29,1
222.00,164.64,1
160.00,170.57,1
312.00,176.51,1
188.00,183.23,1
228.00,189.85,1
188.00,195.48,1
242.00,200.29,1
182.00,204.38,1
176.00,207.20,1
60.00,207.41,1
196.00,204.80,1
112.00,200.69,1
118.00,195.35,1
74.00,188.33,1
343.00,181.79,1
186.00,178.64,1
82.00,176.93,1
122.00,173.69,1
202.00,169.86,1
110.00,166.59,1
261.00,164.24,1
344.00,165.09,1
199.00,169.79,1
303.00,176.39,1
292.00,184.63,1
265.00,194.32,1
181.00,203.54,1
162.00,210.35,1
159.00,214.05,1
99.00,214.57,1
232.00,212.76,1
102.00,209.84,1
243.00,206.30,1
133.00,202.74,1
156.00,198.83,1
150.00,194.21,1
201.00,189.70,1
307.00,187.12,1
206.00,187.42,1
107.00,188.29,1
84.00,186.89,1
110.00,182.83,1
135.00,177.35,1
78.00,171.08,1
116.00,164.02,1
128.00,156.85,1
71.00,149.87,1
207.00,143.56,1
142.00,139.20,1
106.00,136.23,1
160.00,133.71,1
81.00,131.57,1
97.00,129.05,1
400.00,128.46,1
96.00,131.99,1
195.00,136.79,1
270.00,142.18,1
144.00,148.83,1
194.00,155.17,1
188.00,160.81,1
193.00,166.08,1
132.00,170.44,1
313.00,174.48,1
232.00,179.95,1
157.00,185.89,1
124.00,189.78,1
105.00,190.68,1
70.00,188.43,1
39.00,182.78,1
98.00,174.47,1
151.00,165.57,1
187.00,158.18,1
183.00,153.18,1
70.00,149.46,1
252.00,146.45,1
68.00,144.63,1
47.00,142.04,1
184.00,138.23,1
111.00,135.11,1
52.00,132.06,1
178.00,128.61,1
78.00,125.76,1
262.00,124.36,1
86.00,124.87,1
250.00,126.77,1
146.00,130.07,1
344.00,135.58,1
77.00,142.81,1
75.00,148.31,1
86.00,150.17,1
157.00,149.93,1
498.00,152.21,1
209.00,160.12,1
254.00,170.51,1
114.00,179.64,1
149.00,185.86,1
54.00,188.29,1
252.00,188.06,1
132.00,187.38,1
246.00,186.96,1
54.00,186.05,1
114.00,183.09,1
259.00,179.26,1
51.00,176.07,1
52.00,171.23,1
48.00,163.57,1
79.00,154.18,1
103.00,144.50,1
80.00,135.36,1
144.00,127.31,1
48.00,120.43,1
105.00,114.06,1
186.00,109.12,1
131.00,106.79,1
88.00,105.94,1
219.00,106.13,1
90.00,107.89,1
207.00,110.69,1
264.00,115.50,1
132.00,122.53,1
127.00,129.24,1
174.00,134.69,1
95.00,139.08,1
145.00,142.03,1
83.00,143.44,1
145.00,143.52,1
56.00,142.38,1
64.00,139.44,1
119.00,135.08,1
210.00,131.54,1
53.00,129.40,1
83.00,126.78,1
83.00,123.09,1
187.00,119.82,1
117.00,118.11,1
280.00,118.74,1
50.00,121.32,1
87.00,123.13,1
176.00,123.72,1
80.00,124.38,1
290.00,125.94,1
138.00,129.60,1
83.00,133.46,1
197.00,136.12,1
181.00,139.08,1
82.00,142.04,1
224.00,144.29,1
163.00,146.97,1
104.00,149.55,1
157.00,150.92,1
82.00,151.10,1
144.00,150.08,1
166.00,148.77,1
40.00,147.12,1
197.00,144.65,1
89.00,142.32,1
49.00,139.35,1
212.00,135.79,1
52.00,132.93,1
259.00,131.11,1
276.00,132.39,1
249.00,137.83,1
80.00,144.47,1
181.00,149.62,1
100.00,153.04,1
127.00,154.78,1
211.00,155.66,1
272.00,157.98,1
128.00,161.83,1
214.00,165.54,1
151.00,168.72,1
124.00,170.85,1
304.00,172.64,1
120.00,175.32,1
62.00,176.56,1
192.00,175.25,1
51.00,172.56,1
131.00,168.32,1
72.00,162.71,1
167.00,156.73,1
222.00,152.21,1
46.00,149.17,1
117.00,145.49,1
87.00,140.92,1
110.00,136.08,1
39.00,130.77,1
57.00,124.43,1
72.00,117.34,1
127.00,110.78,1
129.00,105.90,1
215.00,103.68,1
53.00,103.64,1
143.00,104.03,1
46.00,104.06,1
175.00,104.03,1
55.00,104.29,1
209.00,105.14,1
100.00,107.04,1
193.00,109.91,1
210.00,114.24,1
190.00,120.41,1
171.00,127.40,1
79.00,133.56,1
186.00,138.07,1
254.00,142.76,1
92.00,148.12,1
148.00,152.14,1
339.00,156.18,1
253.00,163.02,1
39.00,170.14,1
157.00,173.96,1
112.00,174.95,1
132.00,174.16,1
95.00,171.70,1
127.00,167.88,1
118.00,163.30,1
45.00,157.77,1
100.00,150.91,1
80.00,143.40,1
87.00,135.82,1
71.00,128.25,1
159.00,121.47,1
111.00,116.43,1
117.00,112.88,1
270.00,111.52,1
320.00,114.91,1
136.00,122.36,1
208.00,130.60,1
232.00,139.04,1
77.00,147.05,1
54.00,151.91,1
82.00,152.80,1
61.00,150.73,1
180.00,147.33,1
165.00,144.72,1
67.00,142.73,1
176.00,140.41,1
316.00,140.08,1
104.00,142.73,1
128.00,145.42,1
112.00,146.56,1
214.00,147.26,1
87.00,148.10,1
50.00,147.46,1
304.00,146.16,1
233.00,147.71,1
62.00,150.90,1
155.00,152.56,1
141.00,153.01,1
80.00,152.56,1
100.00,150.49,1
67.00,146.82,1
208.00,142.82,1
90.00,139.79,1
154.00,137.35,1
122.00,135.26,1
64.00,133.00,1
176.00,130.41,1
234.00,129.50,1
202.00,131.54,1
200.00,135.67,1
61.00,139.81,1
35.00,141.26,1
182.00,140.28,1
52.00,138.62,1
62.00,135.65,1
285.00,132.71,1
46.00,131.71,1
83.00,130.39,1
41.00,127.16,1
197.00,123.49,1
63.00,120.73,1
108.00,118.21,1
49.00,115.09,1
41.00,110.95,1
64.00,105.76,1
52.00,100.13,1
62.00,94.45,1
189.00,90.03,1
104.00,88.18,1
168.00,88.52,1
176.00,90.94,1
127.00,95.13,1
84.00,99.43,1
63.00,102.37,1
190.00,104.53,1
127.00,107.42,1
167.00,111.12,1
32.00,114.33,1
142.00,116.07,1
139.00,117.32,1
66.00,118.40,1
184.00,119.07,1
118.00,120.21,1
212.00,122.32,1
169.00,125.76,1
168.00,130.16,1
142.00,134.56,1
107.00,138.07,1
292.00,141.53,1
185.00,146.71,1
266.00,153.47,1
246.00,161.48,1
252.00,170.60,1
146.00,179.29,1
171.00,185.88,1
42.00,189.11,1
127.00,188.44,1
162.00,185.48,1
424.00,184.32,1
101.00,186.61,1
123.00,188.37,1
61.00,186.85,1
86.00,182.22,1
247.00,176.64,1
272.00,173.59,1
113.00,173.00,1
61.00,171.43,1
160.00,167.82,1
301.00,165.17,1
196.00,165.67,1
288.00,168.68,1
54.00,172.22,1
225.00,174.32,1
70.00,174.91,1
156.00,173.89,1
114.00,171.43,1
93.00,167.85,1
161.00,163.38,1
223.00,159.85,1
212.00,158.65,1
147.00,159.07,1
110.00,159.22,1
48.00,157.49,1
241.00,154.68,1
143.00,152.98,1
101.00,151.82,1
168.00,150.15,1
141.00,148.69,1
248.00,148.44,1
119.00,149.61,1
137.00,150.70,1
133.00,150.89,1
218.00,151.17,1
84.00,151.79,1
376.00,153.53,1
261.00,158.86,1
153.00,166.38,1
79.00,171.94,1
180.00,174.51,1
141.00,175.47,1
114.00,175.16,1
219.00,174.00,1
106.00,172.81,1
127.00,170.79,1
122.00,167.57,1
171.00,164.07,1
175.00,161.27,1
234.00,160.05,1
56.00,159.61,1
88.00,157.57,1
74.00,153.30,1
46.00,147.32,1
199.00,140.94,1
264.00,137.29,1
89.00,136.72,1
169.00,136.82,1
156.00,137.20,1
141.00,138.09,1
250.00,139.88,1
158.00,143.26,1
228.00,147.64,1
100.00,151.99,1
169.00,155.20,1
120.00,157.12,1
187.00,158.31,1
170.00,159.47,1
404.00,162.80,1
211.00,169.76,1
223.00,178.09,1
68.00,184.51,1
261.00,188.40,1
132.00,191.10,1
161.00,192.49,1
206.00,192.65,1
270.00,193.37,1
56.00,194.15,1
121.00,192.45,1
56.00,187.71,1
119.00,180.81,1
68.00,172.54,1
117.00,163.63,1
256.00,156.06,1
119.00,151.35,1
109.00,147.75,1
108.00,143.80,1
129.00,139.81,1
364.00,138.20,1
171.00,140.91,1
133.00,145.24,1
452.00,151.07,1
132.00,160.19,1
101.00,168.58,1
214.00,173.89,1
138.00,177.69,1
336.00,181.53,1
201.00,186.82,1
183.00,192.29,1
75.00,195.39,1
217.00,195.83,1
82.00,194.56,1
310.00,192.88,1
54.00,191.47,1
68.00,188.07,1
54.00,181.28,1
157.00,172.86,1
72.00,164.37,1
60.00,155.46,1
58.00,145.61,1
51.00,135.18,1
127.00,125.15,1
132.00,116.99,1
155.00,111.46,1
144.00,108.44,1
151.00,107.46,1
296.00,109.32,1
177.00,114.76,1
86.00,121.18,1
150.00,126.17,1
163.00,130.32,1
155.00,134.39,1
150.00,138.19,1
126.00,141.30,1
278.00,144.62,1
153.00,149.27,1
100.00,153.52,1
120.00,155.58,1
523.00,159.15,1
115.00,167.18,1
295.00,176.44,1
212.00,185.23,1
84.00,192.42,1
95.00,195.43,1
52.00,193.94,1
244.00,190.05,1
90.00,186.02,1
76.00,180.94,1
101.00,173.96,1
131.00,166.29,1
73.00,158.55,1
162.00,151.07,1
136.00,144.79,1
175.00,140.26,1
156.00,137.49,1
136.00,135.99,1
79.00,134.54,1
165.00,132.78,1
131.00,131.52,1
202.00,131.42,1
165.00,132.78,1
212.00,135.59,1
158.00,139.43,1
233.00,144.02,1
205.00,149.58,1
93.00,154.95,1
208.00,158.85,1
141.00,161.94,1
141.00,164.15,1
127.00,164.95,1
67.00,163.94,1
156.00,161.20,1
130.00,157.99,1
101.00,154.59,1
198.00,151.28,1
52.00,148.30,1
171.00,145.05,1
42.00,141.38,1
213.00,137.79,1
47.00,134.77,1
89.00,131.28,1
133.00,127.25,1
156.00,124.21,1
74.00,122.08,1
123.00,119.96,1
88.00,117.74,1
371.00,117.72,1
185.00,122.20,1
81.00,128.39,1
406.00,135.06,1
237.00,144.97,1
87.00,155.69,1
155.00,163.37,1
324.00,169.76,1
364.00,178.66,1
206.00,189.94,1
475.00,202.60,1
129.00,216.17,1
162.00,226.74,1
193.00,232.63,1
82.00,234.59,1
266.00,233.49,1
86.00,230.71,1
61.00,225.11,1
149.00,216.40,1
86.00,206.32,1
131.00,195.55,1
56.00,184.26,1
81.00,172.27,1
51.00,159.65,1
212.00,148.04,1
215.00,140.03,1
164.00,135.96,1
214.00,134.64,1
142.00,135.24,1
287.00,137.74,1
160.00,142.35,1
79.00,146.81,1
177.00,149.43,1
87.00,150.78,1
222.00,151.56,1
131.00,152.61,1
77.00,153.01,1
79.00,151.26,1
75.00,147.51,1
118.00,142.67,1
204.00,138.52,1
155.00,136.44,1
195.00,136.20,1
329.00,138.72,1
147.00,144.39,1
121.00,150.07,1
77.00,153.29,1
146.00,154.17,1
232.00,154.71,1
78.00,155.69,1
129.00,155.56,1
134.00,154.20,1
116.00,152.31,1
121.00,149.86,1
83.00,146.69,1
115.00,142.76,1
84.00,138.32,1
115.00,133.67,1
109.00,129.22,1
224.00,126.18,1
206.00,125.98,1
84.00,127.62,1
216.00,129.52,1
59.00,131.44,1
245.00,133.33,1
176.00,136.35,1
158.00,140.38,1
150.00,144.10,1
184.00,147.48,1
72.00,150.04,1
342.00,152.56,1
156.00,156.99,1
109.00,161.47,1
136.00,163.77,1
190.00,164.81,1
165.00,165.79,1
80.00,166.00,1
184.00,164.86,1
266.00,164.44,1
136.00,165.75,1
65.00,166.24,1
127.00,164.36,1
220.00,161.96,1
127.00,160.52,1
118.00,159.01,1
230.00,157.50,1
155.00,157.21,1
107.00,157.13,1
166.00,156.31,1
253.00,156.23,1
127.00,157.61,1
137.00,158.77,1
154.00,158.97,1
138.00,158.69,1
106.00,157.67,1
365.00,157.59,1
123.00,160.28,1
190.00,163.64,1
267.00,167.15,1
213.00,172.04,1
228.00,177.66,1
178.00,183.07,1
223.00,187.79,1
180.00,191.81,1
112.00,194.27,1
118.00,194.04,1
383.00,193.48,1
91.00,194.72,1
62.00,194.40,1
61.00,189.97,1
129.00,182.91,1
158.00,175.44,1
189.00,169.20,1
64.00,163.83,1
197.00,158.58,1
87.00,153.85,1
264.00,150.42,1
227.00,149.79,1
218.00,152.12,1
232.00,156.26,1
173.00,161.29,1
181.00,166.05,1
150.00,169.85,1
120.00,172.09,1
206.00,173.02,1
230.00,174.30,1
304.00,177.51,1
305.00,183.51,1
167.00,190.94,1
187.00,197.09,1
180.00,201.23,1
187.00,203.79,1
176.00,205.03,1
274.00,205.92,1
53.00,206.21,1
44.00,203.10,1
100.00,195.96,1
42.00,186.40,1
183.00,175.99,1
282.00,167.98,1
169.00,163.92,1
127.00,161.59,1
117.00,158.94,1
116.00,155.62,1
107.00,151.72,1
150.00,147.70,1
188.00,144.69,1
297.00,144.42,1
238.00,147.95,1
309.00,154.69,1
151.00,163.03,1
179.00,170.50,1
318.00,177.37,1
155.00,184.76,1
121.00,190.46,1
249.00,193.82,1
87.00,195.80,1
127.00,195.39,1
70.00,192.01,1
126.00,186.31,1
169.00,179.89,1
202.00,174.57,1
219.00,171.30,1
150.00,169.69,1
99.00,167.95,1
108.00,164.85,1
191.00,161.22,1
313.00,159.76,1
127.00,161.15,1
84.00,162.26,1
242.00,162.17,1
113.00,162.38,1
85.00,161.74,1
55.00,158.69,1
67.00,153.29,1
197.00,147.30,1
168.00,143.08,1
171.00,140.96,1
60.00,139.39,1
196.00,137.62,1
220.00,137.28,1
130.00,138.81,1
122.00,140.36,1
258.00,142.12,1
65.00,144.56,1
130.00,145.92,1
411.00,148.21,1
223.00,154.73,1
98.00,162.45,1
70.00,167.01,1
222.00,168.77,1
194.00,170.38,1
347.00,173.87,1
379.00,181.22,1
275.00,192.19,1
130.00,202.94,1
146.00,210.05,1
237.00,213.96,1
55.00,215.45,1
128.00,213.32,1
61.00,207.73,1
91.00,199.44,1
202.00,190.25,1
157.00,182.36,1
249.00,176.65,1
69.00,172.46,1
177.00,168.24,1
147.00,164.18,1
120.00,160.55,1
154.00,156.95,1
95.00,153.36,1
184.00,149.91,1
262.00,148.33,1
336.00,150.89,1
99.00,156.41,1
255.00,161.95,1
315.00,168.44,1
342.00,177.91,1
184.00,188.99,1
309.00,199.57,1
218.00,209.45,1
212.00,217.94,1
226.00,224.37,1
519.00,231.62,1
289.00,242.30,1
151.00,252.71,1
41.00,257.52,1
93.00,255.29,1
102.00,247.83,1
44.00,236.75,1
59.00,222.55,1
44.00,206.09,1
115.00,188.94,1
88.00,172.65,1
371.00,160.05,1
98.00,152.86,1
336.00,149.82,1
182.00,150.40,1
96.00,152.44,1
258.00,154.18,1
186.00,157.00,1
373.00,162.25,1
216.00,170.39,1
134.00,178.70,1
207.00,184.83,1
109.00,188.81,1
180.00,190.58,1
241.00,191.50,1
360.00,194.33,1
172.00,199.42,1
266.00,204.70,1
203.00,209.44,1
212.00,213.43,1
262.00,216.75,1
255.00,220.30,1
225.00,223.95,1
199.00,226.80,1
131.00,227.70,1
198.00,226.30,1
65.00,222.65,1
127.00,216.25,1
83.00,207.58,1
160.00,197.83,1
175.00,188.67,1
92.00,180.44,1
88.00,171.93,1
202.00,163.66,1
265.00,158.20,1
158.00,156.17,1
162.00,155.62,1
106.00,154.92,1
100.00,153.19,1
244.00,151.36,1
285.00,152.21,1
140.00,155.68,1
129.00,158.92,1
336.00,162.19,1
215.00,167.71,1
182.00,174.22,1
276.00,180.47,1
170.00,186.73,1
297.00,192.86,1
370.00,200.51,1
353.00,211.21,1
196.00,222.88,1
341.00,233.35,1
232.00,242.77,1
251.00,250.62,1
148.00,255.61,1
83.00,256.18,1
112.00,251.66,1
100.00,243.31,1
127.00,232.55,1
272.00,221.86,1
134.00,213.06,1
114.00,204.73,1
202.00,196.29,1
173.00,189.10,1
193.00,183.52,1
323.00,180.50,1
228.00,181.09,1
194.00,183.61,1
355.00,187.46,1
205.00,193.35,1
351.00,200.65,1
183.00,208.56,1
267.00,215.81,1
174.00,221.56,1
217.00,225.46,1
240.00,227.99,1
297.00,230.59,1
181.00,233.33,1
247.00,235.19,1
213.00,236.16,1
257.00,236.77,1
350.00,238.31,1
411.00,242.91,1
146.00,249.24,1
151.00,252.87,1
151.00,252.24,1
70.00,247.75,1
176.00,240.03,1
61.00,230.23,1
152.00,218.91,1
91.00,206.85,1
74.00,194.24,1
61.00,180.68,1
225.00,167.89,1
116.00,157.79,1
136.00,149.80,1
78.00,142.63,1
176.00,136.33,1
56.00,131.05,1
126.00,126.13,1
58.00,121.25,1
103.00,116.38,1
82.00,111.70,1
86.00,107.37,1
62.00,103.14,1
72.00,98.85,1
105.00,94.89,1
133.00,92.18,1
92.00,90.91,1
132.00,90.64,1
105.00,91.25,1
95.00,92.31,1
111.00,93.42,1
54.00,94.25,1
70.00,94.14,1
49.00,92.96,1
35.00,90.66,1
44.00,87.25,1
38.00,83.10,1
32.00,78.44,1
34.00,73.41,1
32.00,68.26,1
37.00,63.20,1
43.00,58.50,1
54.00,54.45,1
46.00,51.21,1
55.00,48.71,1
37.00,46.79,1
41.00,45.20,1
46.00,43.86,1
40.00,42.82,1
36.00,41.95,1
39.00,41.16,1
68.00,40.70,1
34.00,40.73,1
44.00,40.90,1
38.00,40.99,1
46.00,41.08,1
34.00,41.14,1
39.00,41.10,1
32.00,40.89,1
54.00,40.68,1
37.00,40.64,1
36.00,40.62,1
34.00,40.44,1
36.00,40.13,1
31.00,39.70,1
35.00,39.16,1
31.00,38.54,1
39.00,37.93,1
31.00,37.36,1
37.00,36.84,1
36.00,36.39,1
32.00,36.01,1
38.00,35.67,1
32.00,35.39,1
37.00,35.15,1
36.00,34.99,1
39.00,34.93,1
36.00,34.97,1
34.00,35.04,1
32.00,35.06,1
43.00,35.09,1
32.00,35.18,1
42.00,35.32,1
34.00,35.50,1
40.00,35.71,1
32.00,35.89,1
40.00,36.03,1
32.00,36.13,1
37.00,36.18,1
33.00,36.18,1
48.00,36.22,1
31.00,36.38,1
40.00,36.54,1
34.00,36.65,1
38.00,36.73,1
31.00,36.74,1
31.00,36.61,1
34.00,36.36,1
42.00,36.12,1
36.00,36.03,1
35.00,36.00,1
40.00,35.99,1
35.00,36.03,1
42.00,36.13,1
36.00,36.29,1
36.00,36.46,1
34.00,36.55,1
48.00,36.67,1
41.00,36.96,1
42.00,37.38,1
32.00,37.76,1
44.00,38.04,1
32.00,38.26,1
38.00,38.36,1
32.00,38.33,1
38.00,38.19,1
32.00,37.98,1
42.00,37.75,1
32.00,37.56,1
44.00,37.41,1
32.00,37.31,1
33.00,37.17,1
32.00,36.91,1
39.00,36.61,1
41.00,36.43,1
35.00,36.37,1
44.00,36.41,1
33.00,36.52,1
37.00,36.61,1
33.00,36.63,1
40.00,36.62,1
34.00,36.61,1
42.00,36.63,1
37.00,36.72,1
32.00,36.80,1
34.00,36.76,1
42.00,36.68,1
35.00,36.68,1
42.00,36.74,1
36.00,36.85,1
44.00,37.02,1
33.00,37.22,1
37.00,37.36,1
33.00,37.39,1
52.00,37.46,1
38.00,37.71,1
42.00,38.06,1
32.00,38.35,1
56.00,38.63,1
32.00,39.02,1
50.00,39.44,1
31.00,39.79,1
37.00,39.98,1
32.00,39.93,1
38.00,39.72,1
35.00,39.43,1
39.00,39.12,1
37.00,38.83,1
32.00,38.53,1
44.00,38.22,1
37.00,38.02,1
34.00,37.87,1
61.00,37.88,1
59.00,38.41,1
37.00,39.33,1
44.00,40.19,1
35.00,40.83,1
39.00,41.24,1
37.00,41.43,1
47.00,41.52,1
37.00,41.61,1
32.00,41.56,1
47.00,41.38,1
57.00,41.38,1
42.00,41.70,1
68.00,42.29,1
37.00,43.12,1
36.00,43.80,1
36.00,44.06,1
60.00,44.20,1
37.00,44.43,1
62.00,44.76,1
33.00,45.14,1
88.00,45.71,1
33.00,46.64,1
31.00,47.32,1
31.00,47.31,1
54.00,46.96,1
42.00,46.63,1
45.00,46.35,1
42.00,46.05,1
33.00,45.63,1
37.00,45.01,1
40.00,44.26,1
37.00,43.50,1
46.00,42.80,1
34.00,42.21,1
43.00,41.66,1
46.00,41.23,1
42.00,41.01,1
44.00,40.93,1
45.00,40.95,1
48.00,41.12,1
40.00,41.39,1
46.00,41.66,1
38.00,41.90,1
34.00,41.98,1
32.00,41.80,1
38.00,41.41,1
66.00,41.17,1
58.00,41.53,1
37.00,42.24,1
33.00,42.75,1
32.00,42.83,1
47.00,42.67,1
42.00,42.52,1
35.00,42.38,1
66.00,42.34,1
35.00,42.58,1
37.00,42.78,1
56.00,42.89,1
33.00,43.05,1
32.00,43.03,1
33.00,42.66,1
33.00,42.06,1
44.00,41.39,1
40.00,40.84,1
33.00,40.38,1
32.00,39.83,1
54.00,39.34,1
37.00,39.14,1
60.00,39.24,1
37.00,39.62,1
45.00,40.09,1
57.00,40.63,1
59.00,41.51,1
31.00,42.51,1
35.00,43.15,1
31.00,43.30,1
49.00,43.18,1
41.00,43.08,1
32.00,42.92,1
30.00,42.49,1
48.00,41.92,1
34.00,41.42,1
48.00,41.03,1
34.00,40.73,1
33.00,40.39,1
33.00,39.89,1
41.00,39.35,1
66.00,39.13,1
36.00,39.41,1
50.00,39.87,1
38.00,40.34,1
39.00,40.73,1
33.00,40.91,1
33.00,40.83,1
34.00,40.52,1
44.00,40.14,1
52.00,39.96,1
44.00,40.10,1
31.00,40.29,1
51.00,40.40,1
38.00,40.56,1
45.00,40.76,1
38.00,40.94,1
50.00,41.14,1
32.00,41.33,1
45.00,41.43,1
34.00,41.42,1
49.00,41.39,1
32.00,41.35,1
46.00,41.26,1
31.00,41.12,1
31.00,40.79,1
33.00,40.24,1
42.00,39.63,1
50.00,39.25,1
34.00,39.11,1
32.00,38.95,1
31.00,38.61,1
43.00,38.20,1
31.00,37.85,1
44.00,37.56,1
34.00,37.37,1
60.00,37.41,1
32.00,37.74,1
33.00,38.05,1
32.00,38.09,1
46.00,38.05,1
31.00,38.04,1
47.00,38.06,1
31.00,38.11,1
50.00,38.19,1
34.00,38.36,1
38.00,38.51,1
30.00,38.51,1
51.00,38.46,1
34.00,38.53,1
32.00,38.56,1
33.00,38.38,1
41.00,38.13,1
46.00,38.01,1
31.00,38.02,1
36.00,37.96,1
31.00,37.77,1
35.00,37.47,1
32.00,37.11,1
48.00,36.82,1
45.00,36.81,1
40.00,37.06,1
31.00,37.31,1
40.00,37.45,1
31.00,37.48,1
53.00,37.55,1
70.00,38.08,1
50.00,39.24,1
31.00,40.49,1
62.00,41.54,1
31.00,42.50,1
50.00,43.26,1
34.00,43.78,1
46.00,44.08,1
33.00,44.16,1
65.00,44.23,1
43.00,44.52,1
44.00,44.88,1
34.00,45.04,1
38.00,44.91,1
40.00,44.57,1
42.00,44.15,1
33.00,43.68,1
32.00,43.03,1
48.00,42.31,1
34.00,41.70,1
53.00,41.26,1
33.00,40.99,1
50.00,40.83,1
33.00,40.73,1
68.00,40.83,1
44.00,41.31,1
51.00,42.03,1
34.00,42.67,1
33.00,43.00,1
31.00,42.92,1
40.00,42.55,1
31.00,42.04,1
43.00,41.46,1
31.00,40.87,1
37.00,40.25,1
38.00,39.62,1
70.00,39.35,1
34.00,39.59,1
62.00,40.13,1
37.00,40.82,1
32.00,41.39,1
33.00,41.55,1
40.00,41.44,1
36.00,41.22,1
34.00,40.90,1
39.00,40.48,1
41.00,40.09,1
48.00,39.86,1
38.00,39.82,1
32.00,39.76,1
39.00,39.57,1
42.00,39.37,1
64.00,39.46,1
58.00,40.11,1
32.00,41.03,1
52.00,41.82,1
42.00,42.50,1
54.00,43.19,1
49.00,43.92,1
54.00,44.74,1
30.00,45.42,1
52.00,45.81,1
32.00,45.96,1
56.00,45.98,1
31.00,45.92,1
32.00,45.60,1
42.00,44.98,1
80.00,44.64,1
32.00,44.84,1
57.00,45.17,1
36.00,45.44,1
33.00,45.47,1
32.00,45.10,1
34.00,44.41,1
40.00,43.58,1
41.00,42.78,1
52.00,42.20,1
34.00,41.84,1
38.00,41.49,1
44.00,41.13,1
72.00,41.13,1
54.00,41.78,1
40.00,42.71,1
36.00,43.41,1
135.00,44.54,1
36.00,46.76,1
50.00,49.03,1
31.00,50.51,1
55.00,51.35,1
60.00,51.94,1
46.00,52.51,1
32.00,52.72,1
40.00,52.38,1
41.00,51.65,1
89.00,51.13,1
31.00,51.12,1
64.00,51.20,1
31.00,51.14,1
39.00,50.76,1
51.00,50.13,1
47.00,49.54,1
53.00,49.09,1
32.00,48.66,1
32.00,47.95,1
39.00,46.94,1
59.00,46.01,1
35.00,45.38,1
38.00,44.78,1
87.00,44.47,1
41.00,44.86,1
66.00,45.62,1
50.00,46.52,1
35.00,47.34,1
86.00,48.09,1
109.00,49.69,1
83.00,52.45,1
41.00,55.42,1
74.00,57.82,1
58.00,59.78,1
49.00,61.26,1
39.00,61.96,1
95.00,62.29,1
43.00,62.73,1
86.00,63.19,1
78.00,63.88,1
43.00,64.64,1
34.00,64.71,1
70.00,64.13,1
40.00,63.33,1
34.00,62.16,1
53.00,60.54,1
64.00,59.00,1
35.00,57.66,1
107.00,56.73,1
63.00,56.73,1
35.00,57.06,1
52.00,56.96,1
36.00,56.44,1
40.00,55.54,1
52.00,54.40,1
46.00,53.31,1
58.00,52.39,1
118.00,52.27,1
97.00,53.69,1
134.00,56.69,1
80.00,60.77,1
66.00,64.84,1
59.00,68.02,1
82.00,70.39,1
112.00,72.63,1
160.00,75.81,1
43.00,79.66,1
132.00,83.07,1
39.00,85.77,1
141.00,87.89,1
42.00,89.60,1
153.00,91.06,1
94.00,92.82,1
92.00,94.67,1
112.00,96.17,1
128.00,97.80,1
37.00,99.15,1
48.00,98.98,1
34.00,96.92,1
63.00,93.62,1
92.00,90.10,1
142.00,87.67,1
121.00,87.03,1
103.00,87.69,1
53.00,88.43,1
126.00,88.84,1
139.00,89.88,1
159.00,92.35,1
223.00,96.84,1
87.00,102.78,1
203.00,108.85,1
98.00,114.75,1
243.00,120.76,1
221.00,127.97,1
162.00,136.24,1
37.00,142.82,1
80.00,145.72,1
38.00,145.05,1
122.00,142.02,1
35.00,137.63,1
98.00,132.13,1
124.00,126.51,1
125.00,121.95,1
32.00,117.81,1
44.00,112.69,1
37.00,106.37,1
43.00,99.38,1
115.00,92.75,1
87.00,87.62,1
114.00,84.16,1
117.00,82.32,1
120.00,82.08,1
66.00,82.69,1
84.00,83.19,1
93.00,83.53,1
168.00,84.65,1
140.00,87.41,1
221.00,92.17,1
66.00,98.12,1
127.00,103.36,1
183.00,108.09,1
138.00,113.32,1
60.00,117.84,1
42.00,119.87,1
256.00,120.76,1
145.00,123.24,1
73.00,126.17,1
54.00,127.09,1
36.00,125.36,1
78.00,121.57,1
142.00,117.43,1
38.00,113.71,1
110.00,109.82,1
77.00,106.00,1
41.00,102.11,1
109.00,98.00,1
71.00,94.35,1
84.00,91.24,1
55.00,88.28,1
161.00,86.05,1
39.00,84.94,1
69.00,83.84,1
88.00,82.41,1
109.00,81.53,1
166.00,82.07,1
128.00,84.49,1
170.00,88.42,1
118.00,93.34,1
113.00,98.29,1
127.00,102.69,1
95.00,106.46,1
71.00,109.00,1
190.00,110.86,1
87.00,113.06,1
112.00,114.92,1
89.00,115.84,1
80.00,115.77,1
47.00,114.31,1
114.00,111.80,1
145.00,109.66,1
71.00,108.34,1
76.00,106.76,1
47.00,104.26,1
157.00,101.62,1
156.00,100.53,1
71.00,100.85,1
35.00,100.52,1
66.00,98.65,1
50.00,95.77,1
127.00,92.84,1
134.00,91.18,1
52.00,90.60,1
52.00,89.56,1
307.00,89.63,1
93.00,93.03,1
122.00,97.62,1
192.00,102.25,1
141.00,107.74,1
154.00,113.54,1
114.00,118.84,1
42.00,122.45,1
261.00,124.94,1
243.00,129.37,1
162.00,135.99,1
68.00,141.77,1
170.00,145.35,1
75.00,147.26,1
90.00,147.24,1
49.00,144.86,1
71.00,140.40,1
190.00,135.51,1
47.00,131.43,1
107.00,127.21,1
44.00,122.33,1
102.00,117.02,1
150.00,112.40,1
145.00,109.71,1
147.00,108.87,1
117.00,109.25,1
194.00,110.69,1
138.00,113.43,1
86.00,116.36,1
56.00,117.75,1
212.00,118.31,1
156.00,120.09,1
90.00,122.54,1
151.00,124.37,1
34.00,125.17,1
173.00,124.87,1
51.00,124.08,1
38.00,121.97,1
53.00,117.79,1
88.00,112.66,1
143.00,108.10,1
64.00,104.68,1
33.00,101.13,1
36.00,96.45,1
198.00,92.21,1
56.00,89.97,1
107.00,88.74,1
123.00,88.12,1
88.00,88.40,1
97.00,88.95,1
128.00,89.82,1
44.00,90.79,1
132.00,91.40,1
57.00,91.86,1
111.00,92.12,1
224.00,93.43,1
69.00,96.52,1
36.00,98.96,1
138.00,99.84,1
42.00,100.13,1
162.00,100.22,1
111.00,100.93,1
203.00,103.01,1
34.00,105.74,1
39.00,106.89,1
42.00,105.48,1
162.00,103.29,1
38.00,101.55,1
154.00,100.11,1
368.00,101.62,1
186.00,108.30,1
247.00,117.93,1
41.00,127.30,1
79.00,133.55,1
59.00,136.04,1
59.00,135.57,1
80.00,132.86,1
123.00,129.24,1
124.00,125.93,1
174.00,123.77,1
110.00,122.84,1
52.00,121.76,1
35.00,118.99,1
220.00,115.78,1
66.00,114.00,1
271.00,114.02,1
64.00,115.82,1
131.00,117.75,1
118.00,118.99,1
144.00,120.22,1
111.00,121.46,1
288.00,123.80,1
96.00,127.96,1
121.00,131.86,1
136.00,134.38,1
112.00,136.03,1
176.00,137.22,1
154.00,138.69,1
72.00,139.82,1
249.00,140.57,1
98.00,142.02,1
110.00,143.02,1
35.00,141.96,1
42.00,138.29,1
56.00,132.34,1
42.00,125.06,1
36.00,116.84,1
63.00,108.15,1
95.00,100.10,1
58.00,93.24,1
56.00,87.15,1
180.00,82.53,1
152.00,81.00,1
79.00,81.84,1
138.00,83.47,1
150.00,86.13,1
118.00,89.89,1
73.00,93.58,1
100.00,96.29,1
121.00,98.42,1
50.00,100.03,1
132.00,100.86,1
117.00,101.72,1
83.00,102.72,1
104.00,103.28,1
158.00,104.00,1
122.00,105.60,1
48.00,107.04,1
159.00,107.71,1
90.00,108.43,1
136.00,109.32,1
81.00,110.04,1
95.00,110.20,1
82.00,109.60,1
67.00,108.22,1
49.00,105.80,1
84.00,102.50,1
122.00,99.41,1
232.00,98.41,1
54.00,99.68,1
42.00,100.52,1
147.00,100.18,1
52.00,99.82,1
103.00,99.17,1
156.00,98.82,1
70.00,99.30,1
140.00,99.99,1
212.00,101.85,1
116.00,105.55,1
57.00,109.01,1
165.00,111.30,1
123.00,113.59,1
97.00,115.76,1
44.00,116.58,1
88.00,115.61,1
92.00,113.64,1
99.00,111.45,1
83.00,109.19,1
91.00,106.79,1
42.00,103.98,1
35.00,100.13,1
50.00,95.24,1
46.00,89.87,1
68.00,84.55,1
120.00,80.21,1
167.00,78.21,1
118.00,78.83,1
190.00,81.59,1
259.00,87.27,1
211.00,96.31,1
166.00,107.01,1
208.00,117.80,1
224.00,128.77,1
215.00,140.04,1
274.00,151.64,1
253.00,163.88,1
314.00,176.79,1
257.00,190.17,1
250.00,202.97,1
197.00,213.87,1
277.00,222.69,1
153.00,229.50,1
186.00,233.45,1
374.00,236.17,1
184.00,239.66,1
163.00,241.87,1
124.00,240.81,1
345.00,238.29,1
51.00,235.66,1
69.00,230.13,1
58.00,220.36,1
129.00,208.25,1
107.00,195.65,1
138.00,183.58,1
91.00,172.26,1
105.00,161.47,1
286.00,152.80,1
155.00,148.05,1
270.00,146.72,1
173.00,148.03,1
138.00,150.37,1
264.00,153.07,1
160.00,156.91,1
286.00,161.82,1
278.00,168.54,1
262.00,177.18,1
270.00,186.73,1
210.00,196.18,1
109.00,203.48,1
281.00,208.17,1
268.00,212.61,1
313.00,218.29,1
138.00,223.92,1
335.00,228.43,1
279.00,233.28,1
125.00,237.67,1
119.00,238.49,1
193.00,235.82,1
96.00,230.93,1
84.00,223.39,1
164.00,213.78,1
85.00,203.50,1
185.00,193.23,1
118.00,183.78,1
237.00,175.97,1
255.00,171.20,1
89.00,168.81,1
112.00,165.92,1
112.00,161.73,1
363.00,158.98,1
200.00,160.21,1
182.00,163.68,1
178.00,167.04,1
288.00,170.89,1
220.00,176.26,1
218.00,182.32,1
113.00,187.24,1
106.00,189.31,1
211.00,189.07,1
336.00,189.78,1
265.00,193.54,1
226.00,199.06,1
391.00,205.84,1
272.00,214.79,1
104.00,223.07,1
188.00,227.52,1
88.00,228.06,1
80.00,224.59,1
67.00,217.16,1
77.00,206.77,1
75.00,194.51,1
201.00,182.29,1
176.00,172.37,1
141.00,164.87,1
229.00,159.39,1
208.00,156.63,1
173.00,156.11,1
174.00,156.57,1
277.00,158.33,1
268.00,162.67,1
189.00,168.89,1
223.00,175.21,1
254.00,181.58,1
206.00,188.17,1
189.00,194.02,1
188.00,198.43,1
211.00,201.63,1
221.00,204.26,1
407.00,208.29,1
197.00,214.67,1
154.00,220.32,1
111.00,222.37,1
133.00,220.79,1
72.00,216.02,1
125.00,208.59,1
154.00,199.94,1
171.00,191.75,1
62.00,183.80,1
392.00,177.36,1
120.00,174.61,1
141.00,173.15,1
243.00,171.64,1
185.00,171.53,1
169.00,172.24,1
190.00,172.98,1
166.00,173.73,1
174.00,174.31,1
228.00,175.12,1
155.00,176.44,1
101.00,176.88,1
167.00,175.71,1
285.00,174.96,1
256.00,176.81,1
213.00,180.73,1
122.00,184.38,1
349.00,187.72,1
303.00,193.33,1
166.00,200.50,1
175.00,206.01,1
237.00,209.60,1
142.00,211.94,1
167.00,212.41,1
71.00,210.25,1
107.00,205.10,1
91.00,197.51,1
74.00,188.20,1
238.00,178.85,1
92.00,171.14,1
138.00,164.25,1
174.00,158.06,1
234.00,154.08,1
148.00,152.48,1
248.00,152.64,1
144.00,154.23,1
134.00,155.87,1
318.00,158.01,1
392.00,163.98,1
355.00,175.19,1
366.00,190.16,1
167.00,205.62,1
236.00,218.31,1
315.00,228.60,1
159.00,237.34,1
187.00,242.89,1
239.00,245.43,1
331.00,247.49,1
339.00,251.11,1
227.00,255.78,1
115.00,258.36,1
181.00,257.00,1
102.00,252.26,1
60.00,243.94,1
70.00,231.98,1
188.00,218.43,1
264.00,206.78,1
252.00,199.07,1
220.00,194.82,1
103.00,191.71,1
236.00,188.48,1
296.00,187.01,1
180.00,188.01,1
267.00,190.21,1
78.00,192.13,1
209.00,192.48,1
187.00,192.03,1
210.00,191.89,1
204.00,192.15,1
285.00,193.45,1
293.00,196.90,1
426.00,203.72,1
280.00,213.94,1
214.00,224.57,1
163.00,232.44,1
568.00,239.90,1
343.00,251.23,1
366.00,264.96,1
154.00,276.79,1
79.00,282.83,1
158.00,281.84,1
542.00,279.51,1
204.00,280.48,1
96.00,280.58,1
134.00,275.72,1
93.00,266.67,1
77.00,254.25,1
108.00,239.37,1
115.00,223.55,1
205.00,208.62,1
248.00,196.79,1
204.00,188.78,1
112.00,182.79,1
385.00,178.95,1
153.00,178.65,1
527.00,182.56,1
327.00,192.26,1
251.00,205.13,1
228.00,216.86,1
140.00,225.57,1
255.00,231.05,1
365.00,235.97,1
120.00,241.05,1
546.00,246.45,1
355.00,255.36,1
306.00,266.63,1
395.00,277.64,1
88.00,286.60,1
158.00,289.96,1
88.00,286.93,1
186.00,279.43,1
107.00,269.16,1
228.00,257.64,1
370.00,248.08,1
149.00,241.84,1
225.00,236.48,1
106.00,230.41,1
212.00,223.54,1
143.00,216.50,1
169.00,209.49,1
174.00,202.66,1
126.00,196.08,1
273.00,190.37,1
390.00,188.50,1
190.00,191.13,1
328.00,195.88,1
189.00,201.56,1
356.00,207.99,1
273.00,215.73,1
240.00,223.92,1
189.00,230.52,1
583.00,237.85,1
276.00,249.10,1
126.00,259.83,1
179.00,265.21,1
250.00,266.56,1
139.00,265.54,1
133.00,261.42,1
122.00,254.00,1
108.00,243.93,1
86.00,231.70,1
118.00,218.03,1
146.00,204.29,1
74.00,191.08,1
72.00,177.76,1
179.00,165.04,1
151.00,154.72,1
182.00,147.25,1
188.00,142.53,1
256.00,140.99,1
365.00,143.99,1
245.00,151.76,1
160.00,161.03,1
243.00,169.43,1
344.00,178.41,1
248.00,189.08,1
283.00,200.22,1
139.00,209.95,1
293.00,217.45,1
241.00,223.95,1
314.00,230.49,1
272.00,237.27,1
109.00,242.57,1
103.00,243.45,1
120.00,239.66,1
227.00,233.57,1
172.00,227.38,1
68.00,220.44,1
80.00,211.07,1
346.00,201.71,1
98.00,195.13,1
186.00,189.69,1
544.00,187.70,1
56.00,191.02,1
612.00,197.67,1
503.00,211.07,1
337.00,230.44,1
457.00,251.03,1
221.00,270.58,1
262.00,286.08,1
200.00,296.21,1
390.00,302.77,1
243.00,307.85,1
284.00,311.13,1
314.00,312.62,1
459.00,314.75,1
569.00,320.84,1
324.00,330.76,1
345.00,340.29,1
569.00,349.37,1
385.00,360.16,1
383.00,370.70,1
766.00,382.29,1
182.00,395.81,1
119.00,403.31,1
360.00,402.11,1
170.00,396.26,1
614.00,389.58,1
226.00,385.06,1
254.00,379.81,1
622.00,374.47,1
290.00,372.86,1
309.00,371.79,1
179.00,367.69,1
153.00,359.18,1
613.00,349.91,1
444.00,346.36,1
251.00,346.72,1
685.00,349.01,1
178.00,354.08,1
484.00,358.84,1
396.00,363.34,1
384.00,368.47,1
240.00,371.79,1
472.00,373.06,1
134.00,372.58,1
292.00,368.40,1
389.00,362.18,1
532.00,358.76,1
254.00,358.42,1
79.00,355.55,1
189.00,346.47,1
200.00,333.55,1
184.00,319.08,1
234.00,304.14,1
316.00,290.73,1
901.00,285.47,1
305.00,292.16,1
95.00,300.87,1
67.00,302.18,1
225.00,296.94,1
695.00,293.17,1
107.00,294.85,1
220.00,295.71,1
338.00,293.90,1
99.00,291.05,1
244.00,285.70,1
510.00,281.26,1
352.00,282.00,1
210.00,285.00,1
127.00,285.30,1
314.00,282.45,1
774.00,283.61,1
275.00,292.77,1
236.00,302.98,1
288.00,309.27,1
270.00,312.76,1
276.00,314.20,1
203.00,313.36,1
322.00,310.68,1
415.00,308.80,1
116.00,307.64,1
404.00,305.28,1
79.00,301.67,1
201.00,295.21,1
65.00,285.01,1
99.00,271.38,1
84.00,254.85,1
125.00,237.11,1
398.00,221.84,1
342.00,213.35,1
153.00,210.09,1
365.00,209.03,1
105.00,209.48,1
217.00,209.45,1
134.00,208.05,1
646.00,209.45,1
256.00,217.54,1
458.00,229.83,1
284.00,243.59,1
309.00,257.01,1
277.00,268.46,1
199.00,277.05,1
314.00,282.60,1
447.00,288.00,1
322.00,295.23,1
202.00,301.66,1
263.00,304.71,1
87.00,303.74,1
285.00,298.95,1
238.00,292.84,1
177.00,286.27,1
116.00,277.67,1
147.00,266.58,1
151.00,253.96,1
255.00,241.78,1
123.00,231.00,1
132.00,220.41,1
183.00,209.77,1
80.00,199.54,1
260.00,190.15,1
194.00,183.28,1
258.00,179.51,1
393.00,179.83,1
317.00,185.33,1
464.00,195.68,1
184.00,208.88,1
248.00,220.92,1
154.00,229.68,1
152.00,234.56,1
127.00,235.33,1
198.00,233.12,1
324.00,230.74,1
616.00,233.38,1
289.00,242.86,1
113.00,252.86,1
175.00,257.78,1
162.00,258.16,1
268.00,256.22,1
165.00,253.41,1
300.00,250.32,1
524.00,250.39,1
337.00,256.05,1
449.00,265.53,1
340.00,276.99,1
274.00,288.12,1
395.00,297.66,1
257.00,305.99,1
102.00,310.57,1
207.00,309.34,1
173.00,303.80,1
93.00,294.92,1
555.00,285.98,1
209.00,281.45,1
208.00,278.46,1
229.00,274.06,1
170.00,268.55,1
310.00,262.73,1
503.00,260.33,1
224.00,262.66,1
534.00,268.06,1
261.00,276.13,1
227.00,283.74,1
193.00,287.65,1
252.00,288.28,1
251.00,287.06,1
191.00,284.46,1
306.00,280.82,1
173.00,276.84,1
264.00,272.22,1
223.00,267.34,1
155.00,261.95,1
141.00,254.75,1
320.00,247.10,1
318.00,242.20,1
82.00,239.05,1
228.00,234.59,1
263.00,230.07,1
155.00,226.54,1
164.00,222.44,1
314.00,218.55,1
168.00,216.31,1
105.00,213.70,1
268.00,209.97,1
357.00,208.45,1
114.00,209.46,1
200.00,209.79,1
122.00,208.37,1
551.00,208.62,1
362.00,215.03,1
136.00,224.47,1
250.00,231.53,1
175.00,235.93,1
344.00,239.28,1
194.00,242.64,1
138.00,244.36,1
306.00,243.98,1
378.00,244.94,1
248.00,248.41,1
100.00,250.86,1
192.00,249.72,1
113.00,245.52,1
203.00,239.35,1
101.00,231.85,1
270.00,224.05,1
258.00,218.14,1
229.00,214.89,1
283.00,213.56,1
356.00,215.02,1
265.00,219.44,1
337.00,225.67,1
135.00,231.82,1
213.00,235.60,1
245.00,237.34,1
385.00,239.81,1
303.00,244.68,1
103.00,249.34,1
209.00,250.56,1
280.00,249.82,1
242.00,249.37,1
308.00,249.64,1
280.00,251.00,1
127.00,251.96,1
168.00,250.13,1
145.00,245.48,1
189.00,239.15,1
176.00,232.20,1
350.00,226.61,1
71.00,222.71,1
49.00,216.86,1
246.00,208.66,1
223.00,201.85,1
148.00,196.95,1
163.00,192.35,1
170.00,187.81,1
234.00,184.24,1
378.00,183.83,1
200.00,187.32,1
134.00,191.32,1
273.00,194.16,1
317.00,198.15,1
192.00,203.74,1
142.00,208.22,1
199.00,210.29,1
86.00,210.08,1
226.00,207.91,1
172.00,205.25,1
69.00,201.72,1
289.00,197.31,1
321.00,195.46,1
308.00,197.81,1
218.00,202.60,1
121.00,206.69,1
48.00,207.10,1
95.00,203.16,1
278.00,197.71,1
52.00,192.84,1
219.00,187.73,1
60.00,182.18,1
117.00,175.70,1
213.00,169.15,1
77.00,163.71,1
190.00,158.76,1
231.00,155.46,1
330.00,155.90,1
393.00,161.70,1
231.00,171.96,1
69.00,181.71,1
364.00,189.17,1
147.00,196.41,1
398.00,204.15,1
62.00,211.59,1
375.00,217.66,1
278.00,224.09,1
356.00,232.23,1
203.00,240.60,1
135.00,246.41,1
293.00,249.02,1
156.00,250.01,1
324.00,250.18,1
43.00,249.03,1
86.00,244.00,1
329.00,236.63,1
387.00,232.57,1
82.00,231.59,1
94.00,228.52,1
108.00,221.69,1
129.00,212.78,1
204.00,203.68,1
206.00,196.17,1
291.00,191.48,1
231.00,189.99,1
167.00,190.18,1
116.00,189.66,1
176.00,187.76,1
387.00,187.18,1
336.00,191.24,1
187.00,198.38,1
135.00,204.22,1
212.00,207.43,1
327.00,210.33,1
113.00,213.69,1
98.00,214.53,1
295.00,213.08,1
166.00,211.98,1
59.00,209.79,1
161.00,204.85,1
75.00,198.09,1
139.00,190.12,1
296.00,183.15,1
291.00,180.25,1
107.00,180.27,1
101.00,179.33,1
68.00,175.81,1
134.00,170.39,1
258.00,165.54,1
330.00,164.51,1
170.00,167.29,1
215.00,171.19,1
323.00,176.12,1
299.00,183.63,1
350.00,193.80,1
340.00,206.22,1
219.00,219.15,1
172.00,229.58,1
346.00,237.42,1
825.00,249.52,1
249.00,269.00,1
328.00,288.59,1
161.00,302.74,1
575.00,313.62,1
351.00,325.29,1
204.00,335.64,1
73.00,339.27,1
177.00,335.10,1
283.00,326.75,1
402.00,319.07,1
270.00,313.89,1
460.00,311.17,1
217.00,310.45,1
119.00,308.02,1
338.00,302.54,1
58.00,295.43,1
317.00,286.62,1
89.00,276.91,1
246.00,266.48,1
97.00,255.32,1
140.00,243.18,1
471.00,232.92,1
288.00,228.74,1
497.00,230.73,1
171.00,236.67,1
671.00,245.86,1
615.00,262.25,1
150.00,283.09,1
432.00,300.71,1
116.00,313.47,1
228.00,320.17,1
211.00,321.12,1
150.00,317.83,1
127.00,310.13,1
134.00,298.48,1
215.00,284.81,1
244.00,271.69,1
518.00,262.81,1
451.00,261.79,1
96.00,264.92,1
98.00,264.66,1
228.00,259.94,1
89.00,253.05,1
624.00,247.97,1
92.00,247.78,1
126.00,247.16,1
401.00,244.66,1
127.00,243.41,1
111.00,240.73,1
257.00,235.77,1
218.00,231.18,1
200.00,227.42,1
296.00,224.61,1
190.00,223.16,1
150.00,221.51,1
77.00,217.63,1
242.00,211.99,1
94.00,206.10,1
239.00,200.34,1
710.00,199.95,1
165.00,208.06,1
190.00,217.56,1
95.00,222.87,1
157.00,224.00,1
110.00,221.74,1
128.00,216.86,1
163.00,210.34,1
68.00,202.74,1
175.00,194.16,1
133.00,185.77,1
119.00,177.89,1
50.00,169.47,1
184.00,160.80,1
188.00,153.91,1
165.00,149.58,1
218.00,147.42,1
45.00,146.24,1
316.00,145.67,1
159.00,147.33,1
264.00,151.13,1
155.00,155.99,1
36.00,159.56,1
160.00,160.19,1
39.00,158.65,1
243.00,156.21,1
359.00,156.51,1
151.00,160.73,1
250.00,166.17,1
85.00,170.88,1
142.00,173.47,1
84.00,173.44,1
212.00,171.97,1
292.00,171.77,1
70.00,173.11,1
45.00,172.31,1
84.00,168.01,1
96.00,161.76,1
68.00,154.50,1
276.00,148.07,1
133.00,144.52,1
248.00,143.57,1
147.00,144.53,1
124.00,145.98,1
41.00,145.87,1
438.00,146.29,1
86.00,150.09,1
143.00,154.25,1
232.00,157.30,1
123.00,160.46,1
145.00,162.71,1
350.00,165.35,1
92.00,169.63,1
162.00,173.03,1
48.00,173.74,1
42.00,171.01,1
206.00,166.02,1
181.00,162.00,1
267.00,160.48,1
175.00,161.41,1
35.00,162.17,1
244.00,161.44,1
73.00,160.47,1
284.00,160.00,1
165.00,161.00,1
388.00,164.71,1
152.00,171.11,1
240.00,178.04,1
149.00,183.87,1
87.00,187.39,1
42.00,186.83,1
88.00,182.39,1
199.00,176.46,1
187.00,171.68,1
258.00,169.25,1
424.00,171.15,1
146.00,177.30,1
186.00,183.57,1
401.00,189.87,1
109.00,197.46,1
227.00,203.69,1
120.00,207.33,1
79.00,207.74,1
83.00,204.11,1
72.00,197.23,1
159.00,188.66,1
74.00,179.72,1
167.00,170.90,1
62.00,162.43,1
135.00,154.14,1
246.00,147.52,1
60.00,143.31,1
70.00,138.96,1
312.00,135.30,1
64.00,134.34,1
123.00,133.82,1
173.00,133.00,1
86.00,132.57,1
325.00,133.38,1
67.00,136.23,1
125.00,138.72,1
124.00,139.67,1
270.00,141.10,1
92.00,143.77,1
396.00,148.08,1
244.00,155.77,1
156.00,165.11,1
247.00,173.37,1
277.00,181.59,1
188.00,190.03,1
253.00,197.65,1
122.00,203.65,1
86.00,206.31,1
144.00,205.14,1
215.00,202.35,1
216.00,200.06,1
280.00,199.37,1
294.00,201.08,1
239.00,204.87,1
283.00,209.69,1
223.00,214.92,1
72.00,218.42,1
260.00,219.04,1
89.00,217.90,1
226.00,215.32,1
103.00,211.55,1
125.00,206.29,1
162.00,199.68,1
137.00,192.90,1
239.00,186.95,1
142.00,182.52,1
210.00,179.18,1
161.00,176.69,1
163.00,174.71,1
293.00,173.87,1
396.00,176.98,1
200.00,184.12,1
426.00,193.60,1
213.00,204.86,1
178.00,215.15,1
286.00,222.92,1
173.00,229.08,1
115.00,232.37,1
177.00,231.93,1
208.00,229.53,1
200.00,226.68,1
123.00,223.04,1
90.00,217.33,1
308.00,210.87,1
83.00,205.51,1
56.00,199.01,1
166.00,190.47,1
122.00,181.89,1
57.00,173.20,1
173.00,164.25,1
75.00,155.98,1
135.00,148.32,1
125.00,141.48,1
437.00,138.39,1
305.00,142.33,1
137.00,150.38,1
212.00,158.07,1
464.00,167.16,1
242.00,179.92,1
191.00,193.10,1
207.00,203.60,1
394.00,213.10,1
402.00,224.88,1
302.00,238.83,1
295.00,252.27,1
531.00,265.89,1
226.00,280.53,1
374.00,293.59,1
312.00,304.44,1
256.00,312.98,1
231.00,317.86,1
297.00,319.43,1
86.00,317.58,1
189.00,311.12,1
126.00,300.84,1
142.00,287.92,1
183.00,273.45,1
223.00,259.47,1
143.00,246.66,1
249.00,235.03,1
208.00,225.45,1
183.00,217.72,1
154.00,210.68,1
311.00,204.98,1
146.00,201.50,1
264.00,199.34,1
287.00,199.05,1
254.00,201.30,1
150.00,204.18,1
383.00,207.35,1
352.00,213.42,1
156.00,221.23,1
347.00,228.21,1
104.00,233.86,1
353.00,237.92,1
286.00,242.20,1
242.00,247.09,1
213.00,250.75,1
311.00,253.34,1
294.00,256.26,1
203.00,259.11,1
193.00,260.08,1
110.00,258.00,1
224.00,253.18,1
128.00,246.81,1
135.00,238.89,1
334.00,231.03,1
180.00,225.54,1
109.00,220.55,1
228.00,214.64,1
102.00,208.58,1
196.00,202.27,1
148.00,196.10,1
228.00,190.87,1
266.00,187.79,1
300.00,188.03,1
187.00,190.70,1
203.00,193.67,1
348.00,197.30,1
253.00,203.08,1
258.00,209.96,1
395.00,217.86,1
233.00,227.30,1
171.00,235.49,1
248.00,240.74,1
507.00,246.46,1
282.00,255.42,1
412.00,266.02,1
285.00,276.77,1
401.00,287.22,1
203.00,296.34,1
226.00,302.01,1
101.00,302.63,1
205.00,298.33,1
180.00,290.87,1
87.00,280.98,1
171.00,268.45,1
79.00,254.25,1
82.00,238.47,1
76.00,221.26,1
134.00,203.87,1
127.00,187.80,1
245.00,174.62,1
246.00,165.99,1
214.00,161.78,1
270.00,161.02,1
291.00,163.74,1
145.00,168.62,1
228.00,173.44,1
263.00,178.52,1
293.00,185.11,1
231.00,192.94,1
168.00,200.13,1
280.00,205.99,1
452.00,213.41,1
158.00,223.11,1
153.00,230.71,1
280.00,234.99,1
279.00,238.68,1
226.00,242.38,1
168.00,244.61,1
224.00,244.70,1
199.00,243.40,1
104.00,240.38,1
66.00,234.02,1
74.00,224.02,1
68.00,211.35,1
108.00,197.36,1
81.00,183.20,1
166.00,169.99,1
97.00,158.55,1
118.00,148.56,1
197.00,140.45,1
282.00,136.22,1
378.00,137.94,1
347.00,146.15,1
286.00,158.80,1
216.00,172.54,1
397.00,186.48,1
460.00,203.10,1
300.00,222.39,1
390.00,241.67,1
334.00,260.03,1
277.00,276.42,1
211.00,288.81,1
212.00,296.21,1
374.00,300.40,1
286.00,303.96,1
410.00,307.83,1
354.00,312.65,1
219.00,317.03,1
74.00,317.05,1
152.00,310.85,1
240.00,300.95,1
61.00,289.20,1
107.00,274.56,1
156.00,257.90,1
122.00,241.17,1
78.00,224.43,1
153.00,207.83,1
141.00,192.68,1
148.00,179.62,1
259.00,169.51,1
230.00,163.60,1
357.00,162.57,1
270.00,166.47,1
599.00,176.26,1
268.00,192.19,1
367.00,210.37,1
415.00,228.99,1
499.00,249.55,1
155.00,269.87,1
439.00,286.72,1
252.00,300.66,1
433.00,312.69,1
314.00,323.32,1
325.00,332.18,1
341.00,338.70,1
421.00,344.27,1
318.00,349.52,1
374.00,353.78,1
134.00,355.24,1
127.00,350.98,1
116.00,340.35,1
221.00,325.79,1
116.00,309.55,1
139.00,291.89,1
127.00,273.13,1
180.00,254.58,1
324.00,238.77,1
188.00,227.26,1
402.00,220.15,1
187.00,217.24,1
329.00,217.01,1
335.00,219.43,1
547.00,226.83,1
352.00,239.71,1
413.00,255.40,1
215.00,270.39,1
376.00,282.92,1
203.00,292.73,1
420.00,300.44,1
317.00,307.61,1
697.00,317.43,1
227.00,330.41,1
422.00,342.36,1
244.00,350.96,1
344.00,356.25,1
247.00,358.25,1
157.00,356.12,1
108.00,348.25,1
433.00,337.45,1
149.00,327.37,1
224.00,316.77,1
168.00,304.58,1
187.00,291.45,1
77.00,276.95,1
119.00,260.60,1
158.00,243.49,1
123.00,227.06,1
386.00,213.59,1
253.00,205.75,1
309.00,202.90,1
293.00,203.61,1
218.00,206.62,1
290.00,210.49,1
168.00,214.46,1
230.00,217.46,1
308.00,220.28,1
197.00,223.77,1
430.00,228.37,1
184.00,234.56,1
362.00,241.11,1
494.00,249.71,1
262.00,261.32,1
359.00,272.88,1
355.00,283.68,1
492.00,295.39,1
460.00,309.41,1
142.00,322.70,1
148.00,329.47,1
92.00,328.15,1
75.00,319.66,1
125.00,305.73,1
174.00,289.19,1
196.00,272.59,1
156.00,256.94,1
131.00,241.84,1
150.00,227.07,1
126.00,212.96,1
60.00,199.01,1
188.00,185.43,1
333.00,175.34,1
354.00,171.87,1
236.00,174.09,1
334.00,179.59,1
228.00,187.17,1
365.00,196.29,1
213.00,206.42,1
188.00,215.39,1
146.00,221.16,1
292.00,224.58,1
195.00,227.40,1
284.00,230.01,1
156.00,231.98,1
389.00,233.95,1
129.00,236.49,1
166.00,237.33,1
311.00,236.51,1
111.00,235.50,1
234.00,233.29,1
185.00,230.23,1
111.00,226.19,1
278.00,221.29,1
61.00,216.27,1
218.00,210.40,1
136.00,204.21,1
145.00,198.01,1
167.00,191.66,1
112.00,185.38,1
114.00,178.65,1
162.00,171.80,1
263.00,166.71,1
348.00,165.87,1
391.00,170.90,1
207.00,180.14,1
419.00,191.35,1
255.00,204.26,1
222.00,216.83,1
392.00,228.23,1
265.00,239.84,1
188.00,249.91,1
510.00,258.81,1
317.00,269.68,1
167.00,279.85,1
199.00,285.36,1
220.00,286.55,1
159.00,284.60,1
418.00,281.61,1
274.00,280.52,1
155.00,279.68,1
92.00,275.40,1
85.00,266.59,1
168.00,254.66,1
159.00,241.98,1
93.00,229.11,1
127.00,215.66,1
175.00,202.62,1
180.00,191.45,1
134.00,182.16,1
339.00,175.56,1
376.00,174.61,1
215.00,178.90,1
259.00,185.05,1
176.00,191.13,1
159.00,195.81,1
218.00,198.77,1
117.00,200.35,1
339.00,201.46,1
186.00,203.76,1
92.00,205.41,1
261.00,205.07,1
295.00,205.55,1
409.00,209.50,1
215.00,216.53,1
280.00,223.98,1
338.00,231.43,1
289.00,239.72,1
300.00,248.17,1
192.00,255.33,1
288.00,260.36,1
256.00,264.05,1
200.00,266.37,1
84.00,265.46,1
183.00,260.53,1
120.00,252.89,1
141.00,243.40,1
84.00,232.15,1
88.00,219.20,1
224.00,206.12,1
203.00,195.47,1
230.00,188.03,1
280.00,183.96,1
211.00,183.05,1
163.00,183.45,1
407.00,185.49,1
287.00,191.37,1
258.00,199.73,1
432.00,209.69,1
249.00,221.69,1
284.00,233.52,1
211.00,243.28,1
509.00,252.69,1
582.00,266.46,1
453.00,285.68,1
194.00,304.74,1
291.00,318.53,1
183.00,326.41,1
445.00,330.72,1
198.00,333.58,1
204.00,333.33,1
239.00,329.11,1
99.00,321.50,1
313.00,311.27,1
402.00,302.53,1
56.00,295.57,1
240.00,286.77,1
68.00,275.61,1
53.00,261.57,1
106.00,244.56,1
103.00,226.60,1
106.00,208.88,1
120.00,192.11,1
186.00,177.42,1
306.00,167.02,1
116.00,161.15,1
233.00,157.74,1
178.00,156.20,1
223.00,156.59,1
268.00,159.06,1
168.00,163.36,1
296.00,168.66,1
238.00,175.39,1
521.00,185.36,1
266.00,199.55,1
361.00,215.40,1
331.00,231.25,1
443.00,247.77,1
292.00,264.60,1
284.00,279.48,1
195.00,290.27,1
80.00,295.10,1
174.00,293.27,1
492.00,289.80,1
147.00,288.36,1
335.00,286.99,1
86.00,283.92,1
227.00,278.27,1
111.00,270.13,1
70.00,259.26,1
189.00,246.04,1
127.00,232.61,1
409.00,221.75,1
501.00,218.19,1
246.00,222.03,1
189.00,227.41,1
551.00,233.71,1
208.00,243.15,1
337.00,253.08,1
240.00,261.53,1
356.00,269.01,1
205.00,275.35,1
418.00,280.86,1
227.00,286.24,1
255.00,290.18,1
221.00,291.45,1
411.00,291.94,1
223.00,293.12,1
224.00,293.26,1
100.00,290.07,1
361.00,284.55,1
54.00,278.18,1
176.00,269.48,1
427.00,260.85,1
70.00,254.76,1
353.00,249.31,1
90.00,244.09,1
168.00,237.85,1
228.00,230.67,1
242.00,224.75,1
383.00,221.85,1
179.00,222.11,1
211.00,222.82,1
310.00,223.53,1
163.00,224.89,1
325.00,226.43,1
208.00,228.56,1
394.00,232.00,1
215.00,236.95,1
357.00,242.64,1
218.00,248.42,1
434.00,254.74,1
287.00,262.45,1
623.00,273.08,1
166.00,286.17,1
230.00,296.46,1
187.00,301.23,1
174.00,301.24,1
218.00,297.51,1
280.00,292.20,1
163.00,286.27,1
286.00,279.68,1
128.00,272.56,1
127.00,263.67,1
81.00,252.03,1
117.00,238.23,1
102.00,223.31,1
116.00,208.23,1
60.00,193.13,1
104.00,178.11,1
316.00,165.62,1
266.00,158.95,1
215.00,157.40,1
267.00,158.96,1
172.00,162.49,1
241.00,166.84,1
232.00,171.96,1
171.00,177.40,1
378.00,183.52,1
282.00,192.08,1
267.00,202.21,1
319.00,212.60,1
118.00,221.92,1
245.00,228.24,1
295.00,232.96,1
223.00,237.60,1
353.00,242.32,1
186.00,247.11,1
222.00,250.41,1
143.00,250.99,1
209.00,249.08,1
102.00,244.85,1
80.00,237.61,1
222.00,228.24,1
219.00,219.72,1
79.00,212.09,1
135.00,203.51,1
94.00,193.91,1
142.00,184.05,1
159.00,174.91,1
224.00,167.82,1
222.00,163.74,1
236.00,162.67,1
251.00,164.28,1
121.00,167.18,1
254.00,170.02,1
382.00,174.91,1
202.00,182.95,1
299.00,191.97,1
336.00,201.85,1
218.00,212.50,1
614.00,225.02,1
425.00,242.51,1
442.00,263.51,1
235.00,283.51,1
358.00,299.83,1
135.00,311.31,1
265.00,317.16,1
335.00,319.39,1
111.00,319.14,1
52.00,313.43,1
106.00,301.35,1
163.00,285.65,1
183.00,269.38,1
96.00,253.25,1
118.00,236.67,1
91.00,219.75,1
61.00,202.62,1
64.00,185.21,1
89.00,168.14,1
119.00,152.59,1
158.00,139.73,1
160.00,130.28,1
259.00,124.88,1
227.00,124.10,1
158.00,126.57,1
245.00,130.81,1
240.00,137.06,1
468.00,147.14,1
264.00,161.99,1
242.00,178.15,1
252.00,192.81,1
395.00,207.03,1
236.00,221.54,1
227.00,234.28,1
367.00,244.96,1
262.00,255.08,1
188.00,263.26,1
120.00,267.00,1
179.00,265.99,1
88.00,261.08,1
130.00,252.73,1
91.00,241.64,1
104.00,228.67,1
72.00,214.31,1
203.00,200.04,1
154.00,187.80,1
220.00,178.35,1
64.00,170.70,1
183.00,163.63,1
189.00,157.96,1
200.00,154.73,1
278.00,154.37,1
236.00,157.20,1
248.00,162.41,1
363.00,170.06,1
184.00,179.83,1
206.00,189.06,1
134.00,195.85,1
449.00,202.18,1
393.00,212.08,1
349.00,225.64,1
262.00,239.71,1
408.00,253.07,1
200.00,265.42,1
111.00,273.58,1
178.00,275.68,1
112.00,272.96,1
135.00,266.24,1
383.00,258.66,1
177.00,253.26,1
136.00,248.00,1
110.00,240.41,1
78.00,230.30,1
55.00,217.62,1
206.00,204.05,1
61.00,191.37,1
136.00,179.24,1
369.00,169.89,1
483.00,168.36,1
161.00,174.04,1
166.00,180.63,1
204.00,185.42,1
164.00,189.03,1
308.00,192.47,1
158.00,196.48,1
339.00,200.98,1
114.00,205.61,1
332.00,209.76,1
209.00,214.14,1
305.00,219.10,1
142.00,223.56,1
253.00,226.52,1
127.00,227.67,1
117.00,226.18,1
210.00,222.30,1
407.00,219.80,1
87.00,219.82,1
66.00,217.91,1
187.00,212.65,1
286.00,207.62,1
77.00,203.84,1
90.00,198.63,1
127.00,191.29,1
113.00,183.16,1
61.00,174.36,1
93.00,164.64,1
241.00,155.84,1
183.00,150.29,1
136.00,147.24,1
292.00,146.23,1
182.00,148.11,1
288.00,152.49,1
654.00,162.47,1
198.00,179.63,1
339.00,198.22,1
202.00,214.70,1
215.00,228.02,1
224.00,237.69,1
221.00,244.47,1
139.00,248.17,1
198.00,248.54,1
150.00,246.27,1
421.00,243.99,1
258.00,244.55,1
88.00,245.36,1
277.00,243.75,1
180.00,241.27,1
183.00,238.18,1
194.00,234.08,1
248.00,230.00,1
250.00,227.07,1
149.00,224.74,1
217.00,221.87,1
77.00,217.80,1
281.00,212.90,1
424.00,210.91,1
311.00,214.34,1
217.00,220.34,1
178.00,225.24,1
129.00,227.34,1
401.00,228.33,1
259.00,231.35,1
408.00,236.95,1
245.00,244.26,1
144.00,250.35,1
449.00,254.83,1
192.00,259.99,1
256.00,264.32,1
217.00,266.49,1
223.00,266.88,1
255.00,265.94,1
93.00,263.28,1
127.00,257.23,1
357.00,249.97,1
370.00,246.21,1
304.00,246.86,1
162.00,248.62,1
426.00,250.44,1
169.00,253.35,1
206.00,255.21,1
150.00,254.20,1
170.00,250.56,1
65.00,244.08,1
200.00,235.18,1
162.00,225.80,1
198.00,217.17,1
270.00,210.28,1
385.00,207.44,1
244.00,209.03,1
218.00,212.35,1
412.00,216.89,1
120.00,222.80,1
320.00,227.96,1
240.00,232.61,1
187.00,236.62,1
298.00,239.37,1
270.00,242.26,1
333.00,246.13,1
259.00,250.81,1
141.00,254.26,1
170.00,254.37,1
474.00,253.93,1
106.00,255.32,1
171.00,255.00,1
140.00,251.17,1
290.00,246.07,1
232.00,241.94,1
164.00,238.39,1
70.00,233.03,1
40.00,224.03,1
156.00,212.31,1
118.00,200.27,1
224.00,189.60,1
370.00,182.95,1
323.00,182.45,1
132.00,185.51,1
147.00,187.77,1
201.00,188.46,1
183.00,188.81,1
226.00,189.39,1
45.00,189.18,1
262.00,187.55,1
179.00,186.29,1
158.00,185.60,1
196.00,184.65,1
276.00,184.64,1
356.00,187.64,1
183.00,193.44,1
124.00,198.44,1
280.00,201.56,1
304.00,205.42,1
57.00,209.38,1
77.00,209.54,1
71.00,205.10,1
200.00,198.37,1
72.00,191.18,1
153.00,183.52,1
510.00,178.96,1
162.00,180.61,1
112.00,183.70,1
53.00,183.62,1
79.00,179.94,1
149.00,174.17,1
141.00,168.30,1
54.00,162.28,1
110.00,155.29,1
111.00,148.02,1
182.00,141.85,1
65.00,136.93,1
99.00,132.06,1
304.00,128.69,1
213.00,129.44,1
224.00,133.66,1
199.00,139.58,1
220.00,146.42,1
253.00,154.17,1
214.00,162.72,1
241.00,171.45,1
298.00,180.63,1
82.00,189.22,1
146.00,194.54,1
254.00,197.35,1
194.00,199.97,1
81.00,201.33,1
136.00,199.76,1
226.00,196.74,1
140.00,193.95,1
44.00,189.98,1
75.00,183.16,1
89.00,174.26,1
256.00,165.94,1
76.00,159.72,1
155.00,154.36,1
208.00,150.10,1
169.00,148.03,1
160.00,147.39,1
221.00,147.89,1
209.00,150.13,1
104.00,152.99,1
298.00,156.03,1
214.00,160.73,1
148.00,166.21,1
156.00,170.39,1
309.00,174.29,1
259.00,180.02,1
372.00,188.30,1
244.00,198.67,1
90.00,207.83,1
299.00,213.91,1
347.00,220.00,1
279.00,227.85,1
120.00,234.76,1
157.00,237.78,1
99.00,236.64,1
259.00,233.03,1
106.00,228.57,1
299.00,223.98,1
63.00,219.44,1
138.00,213.39,1
272.00,206.79,1
232.00,202.49,1
98.00,199.41,1
38.00,194.35,1
154.00,186.80,1
104.00,178.62,1
404.00,172.81,1
289.00,172.67,1
140.00,176.11,1
90.00,178.36,1
138.00,177.96,1
288.00,177.17,1
258.00,178.73,1
284.00,182.98,1
143.00,188.15,1
160.00,191.89,1
287.00,194.59,1
250.00,198.33,1
127.00,202.17,1
175.00,204.02,1
271.00,204.87,1
121.00,205.67,1
245.00,205.74,1
161.00,205.38,1
209.00,204.73,1
183.00,203.76,1
258.00,203.18,1
102.00,202.63,1
154.00,200.62,1
108.00,196.74,1
57.00,190.76,1
239.00,183.73,1
141.00,177.90,1
180.00,173.39,1
81.00,169.03,1
130.00,164.05,1
126.00,158.70,1
168.00,153.94,1
281.00,151.36,1
107.00,151.32,1
338.00,153.17,1
289.00,158.36,1
340.00,167.43,1
241.00,178.76,1
141.00,189.41,1
368.00,198.60,1
81.00,206.94,1
230.00,212.70,1
243.00,216.51,1
166.00,219.53,1
127.00,220.35,1
272.00,219.38,1
383.00,220.10,1
110.00,222.85,1
253.00,224.63,1
330.00,226.38,1
256.00,229.90,1
136.00,233.06,1
127.00,233.15,1
46.00,229.09,1
92.00,221.00,1
192.00,211.02,1
183.00,201.91,1
43.00,193.28,1
120.00,183.54,1
104.00,173.27,1
173.00,163.89,1
123.00,156.07,1
57.00,148.90,1
578.00,145.27,1
199.00,149.39,1
298.00,158.14,1
195.00,167.73,1
266.00,177.35,1
309.00,187.34,1
162.00,197.39,1
142.00,204.90,1
224.00,209.38,1
172.00,212.18,1
299.00,214.45,1
88.00,216.18,1
170.00,215.69,1
130.00,212.80,1
239.00,209.10,1
310.00,206.96,1
165.00,206.94,1
158.00,206.68,1
205.00,205.32,1
124.00,203.23,1
55.00,199.13,1
108.00,192.24,1
253.00,184.97,1
127.00,179.45,1
99.00,174.33,1
114.00,168.31,1
100.00,161.71,1
129.00,155.01,1
191.00,149.33,1
179.00,145.78,1
167.00,144.17,1
232.00,144.35,1
363.00,147.92,1
252.00,155.70,1
246.00,165.69,1
176.00,175.39,1
173.00,183.35,1
234.00,189.57,1
174.00,194.77,1
248.00,199.14,1
160.00,202.73,1
410.00,206.85,1
256.00,213.34,1
101.00,219.68,1
186.00,222.57,1
173.00,222.74,1
94.00,220.64,1
116.00,215.69,1
68.00,208.09,1
122.00,198.53,1
200.00,188.93,1
150.00,180.94,1
45.00,173.39,1
104.00,164.76,1
39.00,155.19,1
217.00,146.08,1
69.00,138.81,1
196.00,133.25,1
149.00,129.67,1
183.00,128.26,1
250.00,129.27,1
138.00,132.53,1
171.00,136.38,1
200.00,140.42,1
222.00,145.42,1
302.00,152.24,1
291.00,161.63,1
254.00,172.84,1
127.00,183.30,1
189.00,190.94,1
102.00,195.46,1
242.00,197.70,1
182.00,199.21,1
228.00,200.66,1
170.00,201.81,1
72.00,201.32,1
82.00,197.53,1
204.00,191.75,1
88.00,185.80,1
75.00,178.90,1
41.00,170.04,1
127.00,160.03,1
92.00,150.33,1
45.00,140.93,1
82.00,131.30,1
91.00,122.12,1
266.00,115.50,1
279.00,114.07,1
292.00,118.46,1
201.00,126.68,1
142.00,135.63,1
224.00,143.82,1
284.00,152.52,1
202.00,162.30,1
79.00,170.70,1
208.00,176.15,1
223.00,180.39,1
155.00,184.34,1
111.00,186.56,1
140.00,186.36,1
200.00,184.93,1
160.00,183.52,1
155.00,181.96,1
105.00,179.51,1
236.00,176.69,1
66.00,174.01,1
68.00,169.83,1
292.00,165.13,1
232.00,163.39,1
76.00,163.53,1
81.00,162.09,1
77.00,158.24,1
152.00,153.29,1
184.00,149.13,1
187.00,146.88,1
146.00,146.14,1
169.00,146.09,1
206.00,146.94,1
168.00,148.92,1
86.00,150.69,1
167.00,151.25,1
291.00,152.55,1
165.00,156.04,1
63.00,159.18,1
254.00,160.81,1
372.00,164.51,1
158.00,171.42,1
117.00,177.65,1
242.00,181.75,1
188.00,185.38,1
219.00,188.92,1
219.00,192.35,1
244.00,196.05,1
75.00,198.84,1
98.00,198.46,1
285.00,196.17,1
177.00,194.92,1
179.00,194.29,1
99.00,192.63,1
159.00,189.43,1
69.00,184.77,1
87.00,178.29,1
84.00,170.19,1
74.00,161.11,1
190.00,152.37,1
240.00,146.42,1
141.00,143.77,1
269.00,143.53,1
77.00,144.83,1
96.00,145.33,1
130.00,144.18,1
220.00,143.30,1
275.00,144.88,1
235.00,149.66,1
127.00,155.54,1
126.00,159.95,1
106.00,162.03,1
300.00,163.52,1
383.00,168.23,1
258.00,177.15,1
156.00,186.78,1
120.00,193.63,1
331.00,198.45,1
187.00,203.56,1
332.00,209.30,1
210.00,215.51,1
315.00,221.93,1
189.00,227.97,1
270.00,232.98,1
258.00,237.24,1
192.00,240.72,1
169.00,242.08,1
69.00,240.06,1
139.00,234.28,1
58.00,225.40,1
228.00,215.19,1
80.00,205.23,1
140.00,195.22,1
161.00,185.47,1
228.00,177.63,1
143.00,172.08,1
264.00,168.59,1
426.00,169.41,1
437.00,177.38,1
332.00,191.14,1
206.00,206.06,1
261.00,218.90,1
145.00,228.63,1
329.00,235.74,1
148.00,241.19,1
393.00,245.78,1
172.00,250.28,1
76.00,252.12,1
349.00,250.73,1
129.00,248.83,1
153.00,245.46,1
205.00,240.05,1
192.00,234.22,1
146.00,228.12,1
49.00,220.33,1
152.00,210.34,1
119.00,199.68,1
108.00,189.09,1
202.00,179.22,1
241.00,172.01,1
452.00,170.28,1
122.00,173.81,1
286.00,178.90,1
121.00,183.59,1
291.00,187.85,1
226.00,192.57,1
176.00,197.39,1
177.00,200.77,1
192.00,202.64,1
152.00,203.27,1
185.00,202.65,1
202.00,201.46,1
253.00,200.85,1
375.00,202.71,1
209.00,207.45,1
169.00,212.15,1
160.00,214.56,1
230.00,215.23,1
193.00,215.34,1
154.00,214.67,1
89.00,211.95,1
115.00,206.58,1
59.00,198.80,1
56.00,188.68,1
86.00,176.89,1
68.00,164.49,1
306.00,154.00,1
297.00,148.97,1
298.00,150.23,1
147.00,154.84,1
78.00,158.76,1
256.00,161.11,1
375.00,165.53,1
278.00,174.00,1
170.00,183.77,1
200.00,191.87,1
177.00,197.87,1
196.00,202.09,1
94.00,204.08,1
253.00,204.12,1
202.00,204.03,1
214.00,204.42,1
368.00,206.23,1
197.00,210.25,1
140.00,213.81,1
156.00,214.70,1
82.00,212.65,1
76.00,207.33,1
132.00,199.45,1
48.00,190.05,1
78.00,179.17,1
200.00,168.32,1
189.00,160.02,1
100.00,154.03,1
311.00,150.17,1
134.00,149.35,1
95.00,149.37,1
298.00,149.58,1
39.00,150.84,1
222.00,151.74,1
173.00,152.84,1
113.00,154.24,1
55.00,153.97,1
228.00,152.38,1
438.00,154.03,1
250.00,161.41,1
236.00,171.38,1
444.00,182.93,1
502.00,199.13,1
333.00,219.68,1
307.00,240.21,1
278.00,258.00,1
105.00,270.94,1
119.00,276.89,1
86.00,275.73,1
72.00,268.65,1
137.00,257.45,1
127.00,244.32,1
152.00,230.77,1
210.00,218.14,1
127.00,207.11,1
72.00,196.31,1
115.00,184.77,1
104.00,173.24,1
129.00,162.49,1
155.00,153.23,1
172.00,146.17,1
244.00,142.10,1
307.00,142.33,1
146.00,146.13,1
306.00,151.68,1
152.00,158.40,1
56.00,163.77,1
197.00,166.27,1
270.00,168.61,1
356.00,173.91,1
262.00,182.50,1
39.00,190.58,1
162.00,194.56,1
127.00,195.21,1
75.00,193.31,1
255.00,189.87,1
98.00,186.62,1
101.00,182.54,1
140.00,177.05,1
79.00,170.80,1
137.00,164.00,1
48.00,156.72,1
44.00,148.25,1
203.00,139.71,1
394.00,135.57,1
197.00,137.83,1
187.00,143.05,1
173.00,148.43,1
238.00,153.99,1
192.00,160.08,1
422.00,168.02,1
242.00,179.04,1
61.00,189.49,1
237.00,196.14,1
75.00,199.75,1
78.00,199.73,1
227.00,196.87,1
157.00,193.87,1
327.00,192.36,1
324.00,194.24,1
274.00,199.58,1
65.00,204.79,1
203.00,206.98,1
123.00,206.71,1
131.00,204.46,1
207.00,200.88,1
116.00,196.97,1
65.00,191.66,1
89.00,184.07,1
146.00,175.39,1
228.00,168.02,1
79.00,162.50,1
84.00,156.83,1
234.00,151.31,1
264.00,148.86,1
54.00,148.83,1
158.00,148.27,1
126.00,147.04,1
226.00,146.50,1
187.00,147.59,1
275.00,150.78,1
184.00,155.84,1
263.00,162.04,1
132.00,168.36,1
295.00,174.39,1
416.00,182.62,1
163.00,193.56,1
308.00,204.15,1
257.00,214.01,1
150.00,222.46,1
90.00,226.86,1
206.00,227.13,1
148.00,225.18,1
207.00,222.11,1
126.00,218.11,1
62.00,212.14,1
96.00,203.43,1
43.00,192.54,1
225.00,181.25,1
73.00,171.35,1
55.00,161.69,1
36.00,150.82,1
98.00,139.44,1
145.00,129.30,1
186.00,122.06,1
75.00,117.41,1
106.00,113.64,1
156.00,110.68,1
315.00,110.82,1
281.00,116.03,1
132.00,124.54,1
287.00,133.77,1
206.00,143.90,1
114.00,153.57,1
221.00,161.26,1
188.00,167.92,1
217.00,174.17,1
42.00,178.64,1
163.00,179.96,1
231.00,179.94,1
47.00,179.54,1
188.00,177.54,1
67.00,174.18,1
196.00,170.16,1
68.00,165.84,1
58.00,160.29,1
74.00,152.87,1
198.00,145.52,1
110.00,139.92,1
99.00,135.31,1
108.00,130.77,1
191.00,127.18,1
109.00,125.20,1
255.00,125.07,1
72.00,126.55,1
74.00,127.40,1
146.00,126.84,1
99.00,126.06,1
104.00,125.01,1
158.00,123.91,1
52.00,122.88,1
374.00,123.29,1
66.00,126.74,1
190.00,130.93,1
174.00,134.91,1
194.00,139.55,1
121.00,144.11,1
43.00,146.78,1
174.00,147.06,1
308.00,148.18,1
232.00,152.57,1
85.00,157.96,1
136.00,161.30,1
110.00,162.36,1
131.00,161.83,1
136.00,160.26,1
54.00,157.55,1
74.00,152.89,1
84.00,146.63,1
197.00,140.66,1
53.00,135.86,1
283.00,132.58,1
81.00,131.50,1
209.00,131.74,1
217.00,133.51,1
291.00,138.18,1
235.00,145.72,1
220.00,154.76,1
533.00,166.52,1
99.00,181.42,1
116.00,193.75,1
109.00,200.32,1
231.00,203.34,1
236.00,205.59,1
144.00,207.50,1
424.00,209.93,1
123.00,214.05,1
196.00,217.26,1
145.00,217.96,1
133.00,216.39,1
188.00,213.01,1
149.00,208.83,1
50.00,203.19,1
75.00,194.89,1
133.00,184.89,1
120.00,174.99,1
147.00,165.99,1
481.00,161.04,1
288.00,163.67,1
343.00,171.82,1
214.00,182.18,1
245.00,192.43,1
138.00,200.81,1
268.00,207.06,1
395.00,213.81,1
247.00,222.67,1
267.00,231.61,1
415.00,240.63,1
245.00,250.65,1
216.00,259.24,1
227.00,264.68,1
227.00,267.46,1
86.00,267.05,1
58.00,261.73,1
316.00,253.27,1
337.00,246.95,1
241.00,244.13,1
590.00,245.54,1
177.00,251.70,1
376.00,258.97,1
84.00,264.29,1
58.00,264.51,1
51.00,258.06,1
113.00,246.85,1
122.00,233.49,1
198.00,220.18,1
121.00,208.07,1
299.00,198.09,1
252.00,192.03,1
172.00,189.14,1
316.00,188.23,1
214.00,189.75,1
214.00,192.56,1
170.00,195.04,1
244.00,197.07,1
182.00,199.04,1
306.00,201.52,1
305.00,205.83,1
199.00,211.52,1
316.00,217.27,1
276.00,223.59,1
247.00,230.21,1
97.00,234.80,1
77.00,234.77,1
152.00,230.30,1
193.00,224.03,1
164.00,217.66,1
122.00,210.94,1
74.00,202.85,1
61.00,192.74,1
140.00,181.48,1
217.00,171.54,1
117.00,164.03,1
111.00,157.55,1
256.00,152.32,1
262.00,150.65,1
172.00,152.26,1
356.00,156.40,1
231.00,163.57,1
166.00,171.73,1
190.00,178.48,1
150.00,183.46,1
203.00,186.91,1
328.00,190.67,1
150.00,195.56,1
252.00,200.08,1
190.00,203.88,1
297.00,207.70,1
217.00,212.02,1
445.00,218.04,1
124.00,225.61,1
206.00,231.33,1
232.00,234.38,1
182.00,235.98,1
148.00,235.55,1
138.00,232.54,1
86.00,226.77,1
86.00,218.10,1
127.00,207.49,1
162.00,196.71,1
48.00,186.13,1
110.00,175.00,1
155.00,164.25,1
313.00,156.70,1
177.00,153.70,1
220.00,153.65,1
323.00,156.27,1
344.00,163.13,1
365.00,174.36,1
184.00,187.54,1
373.00,200.48,1
264.00,213.58,1
354.00,226.88,1
358.00,240.46,1
513.00,255.98,1
259.00,272.89,1
390.00,288.46,1
340.00,302.16,1
374.00,314.51,1
147.00,323.70,1
244.00,327.51,1
150.00,326.04,1
184.00,320.15,1
111.00,310.26,1
126.00,296.91,1
232.00,281.88,1
123.00,267.04,1
192.00,252.46,1
198.00,238.86,1
310.00,228.04,1
219.00,220.85,1
161.00,215.61,1
301.00,211.47,1
256.00,209.76,1
312.00,210.86,1
343.00,214.84,1
178.00,220.48,1
203.00,224.93,1
254.00,227.80,1
438.00,231.95,1
196.00,238.43,1
205.00,244.02,1
183.00,246.72,1
229.00,247.21,1
288.00,247.09,1
281.00,247.82,1
230.00,249.10,1
341.00,250.79,1
134.00,252.43,1
232.00,252.29,1
127.00,249.82,1
181.00,245.18,1
134.00,238.69,1
118.00,230.57,1
114.00,220.79,1
217.00,210.71,1
176.00,202.07,1
106.00,194.40,1
161.00,186.68,1
216.00,179.96,1
303.00,176.34,1
300.00,177.02,1
210.00,180.87,1
232.00,185.67,1
328.00,191.49,1
184.00,198.44,1
457.00,206.70,1
241.00,217.25,1
426.00,229.39,1
216.00,241.85,1
342.00,253.24,1
337.00,263.75,1
407.00,274.78,1
218.00,285.39,1
373.00,294.07,1
292.00,301.33,1
207.00,306.51,1
198.00,307.80,1
289.00,305.99,1
150.00,302.17,1
214.00,295.93,1
193.00,287.80,1
166.00,278.41,1
166.00,267.77,1
213.00,256.69,1
208.00,246.38,1
199.00,237.25,1
132.00,228.55,1
143.00,219.37,1
335.00,211.37,1
162.00,206.35,1
263.00,203.35,1
174.00,201.47,1
338.00,201.23,1
266.00,203.67,1
273.00,208.24,1
239.00,213.51,1
398.00,219.99,1
360.00,229.18,1
438.00,241.48,1
183.00,254.60,1
309.00,265.35,1
226.00,273.24,1
407.00,279.84,1
117.00,285.17,1
179.00,286.60,1
100.00,283.01,1
94.00,274.83,1
99.00,262.72,1
91.00,247.96,1
148.00,232.08,1
54.00,215.99,1
178.00,200.21,1
105.00,185.85,1
231.00,173.92,1
144.00,164.99,1
196.00,158.65,1
320.00,155.66,1
348.00,158.02,1
312.00,165.57,1
553.00,178.44,1
243.00,196.02,1
368.00,214.52,1
191.00,231.15,1
137.00,243.46,1
203.00,250.28,1
201.00,253.34,1
245.00,254.29,1
426.00,255.83,1
266.00,259.81,1
256.00,264.28,1
254.00,267.46,1
333.00,270.11,1
287.00,273.16,1
236.00,275.90,1
199.00,276.77,1
210.00,275.28,1
90.00,270.90,1
318.00,264.49,1
163.00,258.22,1
153.00,251.50,1
148.00,243.21,1
249.00,234.63,1
67.00,226.25,1
153.00,216.84,1
249.00,207.65,1
156.00,200.47,1
303.00,195.53,1
124.00,192.62,1
229.00,190.50,1
226.00,189.27,1
325.00,190.38,1
199.00,193.80,1
369.00,199.05,1
219.00,206.01,1
339.00,213.94,1
199.00,221.97,1
332.00,229.57,1
279.00,237.18,1
393.00,245.74,1
257.00,255.07,1
361.00,264.19,1
222.00,272.32,1
365.00,279.16,1
145.00,284.20,1
135.00,285.18,1
64.00,280.47,1
60.00,270.20,1
112.00,255.96,1
185.00,240.55,1
98.00,225.70,1
66.00,210.64,1
63.00,194.68,1
60.00,178.21,1
120.00,162.32,1
69.00,147.92,1
102.00,135.07,1
180.00,124.57,1
117.00,117.25,1
68.00,111.79,1
148.00,107.26,1
120.00,104.27,1
158.00,103.07,1
94.00,103.12,1
107.00,103.49,1
73.00,103.50,1
124.00,103.20,1
108.00,103.10,1
72.00,103.03,1
99.00,102.47,1
71.00,101.47,1
109.00,100.25,1
53.00,98.83,1
122.00,97.28,1
35.00,95.63,1
66.00,93.34,1
56.00,90.35,1
46.00,86.94,1
34.00,82.99,1
42.00,78.54,1
32.00,73.78,1
43.00,68.96,1
31.00,64.24,1
50.00,59.81,1
36.00,55.85,1
36.00,52.30,1
44.00,49.12,1
35.00,46.40,1
40.00,44.07,1
56.00,42.26,1
66.00,41.29,1
41.00,41.08,1
78.00,41.43,1
35.00,42.24,1
50.00,43.10,1
47.00,43.83,1
53.00,44.56,1
36.00,45.21,1
42.00,45.58,1
37.00,45.66,1
48.00,45.57,1
38.00,45.40,1
56.00,45.26,1
36.00,45.20,1
66.00,45.26,1
33.00,45.47,1
53.00,45.65,1
32.00,45.70,1
34.00,45.47,1
31.00,44.87,1
42.00,44.08,1
32.00,43.24,1
31.00,42.30,1
34.00,41.25,1
35.00,40.19,1
53.00,39.36,1
33.00,38.87,1
39.00,38.51,1
34.00,38.17,1
45.00,37.90,1
33.00,37.74,1
46.00,37.67,1
33.00,37.68,1
48.00,37.77,1
32.00,37.91,1
44.00,38.06,1
33.00,38.18,1
38.00,38.23,1
31.00,38.16,1
42.00,38.02,1
32.00,37.87,1
53.00,37.82,1
32.00,37.93,1
54.00,38.18,1
32.00,38.53,1
36.00,38.80,1
30.00,38.82,1
36.00,38.65,1
32.00,38.34,1
33.00,37.94,1
32.00,37.45,1
40.00,36.98,1
41.00,36.66,1
33.00,36.49,1
42.00,36.38,1
33.00,36.34,1
47.00,36.38,1
36.00,36.57,1
54.00,36.92,1
39.00,37.49,1
55.00,38.22,1
38.00,39.06,1
64.00,40.02,1
38.00,41.11,1
44.00,42.10,1
34.00,42.78,1
57.00,43.28,1
43.00,43.81,1
64.00,44.47,1
34.00,45.20,1
43.00,45.71,1
34.00,45.85,1
54.00,45.82,1
33.00,45.72,1
34.00,45.41,1
36.00,44.80,1
37.00,44.05,1
48.00,43.32,1
36.00,42.73,1
36.00,42.17,1
36.00,41.53,1
51.00,40.99,1
58.00,40.84,1
59.00,41.24,1
33.00,41.92,1
63.00,42.60,1
51.00,43.44,1
50.00,44.43,1
45.00,45.33,1
65.00,46.21,1
44.00,47.17,1
45.00,47.97,1
60.00,48.60,1
54.00,49.28,1
37.00,49.87,1
87.00,50.44,1
59.00,51.44,1
55.00,52.65,1
34.00,53.50,1
47.00,53.79,1
35.00,53.57,1
42.00,52.95,1
37.00,52.01,1
43.00,50.89,1
37.00,49.68,1
49.00,48.49,1
41.00,47.44,1
48.00,46.56,1
41.00,45.81,1
69.00,45.38,1
67.00,45.59,1
47.00,46.31,1
54.00,47.11,1
72.00,48.03,1
74.00,49.39,1
73.00,51.21,1
91.00,53.47,1
123.00,56.56,1
89.00,60.57,1
74.00,64.71,1
114.00,68.61,1
112.00,72.73,1
105.00,77.12,1
92.00,81.31,1
125.00,85.24,1
99.00,89.05,1
46.00,92.04,1
62.00,93.37,1
72.00,93.28,1
53.00,92.27,1
166.00,91.29,1
43.00,91.07,1
56.00,90.44,1
54.00,88.70,1
46.00,86.19,1
43.00,82.98,1
117.00,79.86,1
42.00,77.48,1
135.00,75.88,1
46.00,75.12,1
136.00,75.06,1
240.00,77.12,1
227.00,83.14,1
85.00,91.38,1
257.00,100.02,1
250.00,110.31,1
312.00,123.32,1
131.00,137.44,1
136.00,149.49,1
164.00,158.38,1
123.00,164.75,1
184.00,169.06,1
156.00,172.10,1
228.00,174.70,1
246.00,177.98,1
265.00,182.73,1
301.00,189.17,1
152.00,196.23,1
274.00,202.38,1
448.00,209.83,1
299.00,220.70,1
188.00,231.85,1
124.00,239.28,1
107.00,241.49,1
128.00,239.03,1
71.00,232.89,1
230.00,224.67,1
56.00,215.85,1
127.00,205.90,1
176.00,195.55,1
177.00,186.65,1
175.00,179.53,1
186.00,174.09,1
342.00,171.53,1
250.00,173.16,1
103.00,176.47,1
240.00,178.90,1
234.00,181.59,1
206.00,185.17,1
306.00,189.64,1
220.00,195.35,1
227.00,201.27,1
354.00,207.61,1
207.00,214.99,1
252.00,221.92,1
147.00,226.95,1
287.00,230.16,1
259.00,233.09,1
237.00,236.22,1
185.00,238.38,1
127.00,238.22,1
134.00,234.94,1
111.00,228.85,1
56.00,220.08,1
124.00,208.94,1
156.00,197.36,1
188.00,187.19,1
118.00,178.64,1
74.00,170.37,1
150.00,161.89,1
152.00,154.44,1
214.00,149.21,1
236.00,147.05,1
131.00,147.28,1
228.00,148.58,1
275.00,151.77,1
127.00,156.67,1
167.00,160.96,1
313.00,165.30,1
180.00,171.16,1
371.00,178.57,1
287.00,188.28,1
335.00,200.04,1
228.00,212.16,1
238.00,222.86,1
330.00,232.17,1
237.00,240.95,1
356.00,249.24,1
197.00,256.77,1
93.00,260.93,1
189.00,260.22,1
165.00,256.35,1
313.00,251.82,1
250.00,248.67,1
270.00,247.00,1
138.00,245.24,1
127.00,241.33,1
176.00,235.10,1
80.00,227.23,1
89.00,217.25,1
133.00,205.68,1
175.00,194.48,1
155.00,184.80,1
173.00,176.78,1
197.00,170.61,1
245.00,166.97,1
323.00,167.02,1
211.00,170.66,1
272.00,176.18,1
291.00,183.18,1
243.00,191.49,1
258.00,200.04,1
178.00,207.67,1
136.00,212.81,1
199.00,215.06,1
284.00,216.41,1
307.00,219.16,1
429.00,224.98,1
255.00,233.72,1
150.00,241.63,1
269.00,246.46,1
367.00,250.70,1
174.00,255.36,1
121.00,257.38,1
121.00,254.82,1
83.00,248.15,1
119.00,238.26,1
98.00,226.35,1
109.00,213.34,1
144.00,200.20,1
281.00,189.19,1
177.00,181.90,1
236.00,177.54,1
143.00,174.90,1
318.00,174.05,1
198.00,175.73,1
504.00,181.27,1
238.00,191.38,1
342.00,203.69,1
187.00,215.49,1
177.00,224.70,1
177.00,230.24,1
188.00,232.79,1
287.00,233.97,1
370.00,236.48,1
82.00,239.73,1
357.00,241.65,1
345.00,244.55,1
271.00,249.55,1
283.00,254.77,1
247.00,259.26,1
174.00,261.98,1
246.00,262.34,1
80.00,260.12,1
66.00,253.72,1
134.00,243.32,1
150.00,231.39,1
163.00,219.62,1
136.00,208.47,1
107.00,197.59,1
147.00,186.89,1
134.00,177.00,1
240.00,169.06,1
99.00,163.34,1
170.00,158.62,1
331.00,156.16,1
188.00,157.56,1
412.00,162.66,1
239.00,171.58,1
246.00,182.06,1
316.00,192.65,1
251.00,203.69,1
161.00,213.44,1
334.00,221.29,1
198.00,228.43,1
112.00,233.25,1
207.00,234.40,1
136.00,232.94,1
174.00,229.52,1
272.00,225.58,1
169.00,222.46,1
108.00,218.67,1
102.00,212.56,1
126.00,204.51,1
142.00,195.72,1
83.00,186.65,1
96.00,176.93,1
190.00,167.53,1
125.00,159.81,1
92.00,153.06,1
224.00,147.27,1
146.00,143.67,1
322.00,143.10,1
189.00,145.99,1
294.00,151.57,1
156.00,158.51,1
117.00,164.52,1
274.00,169.15,1
461.00,176.40,1
168.00,187.35,1
177.00,197.53,1
260.00,205.21,1
187.00,211.56,1
161.00,215.97,1
191.00,217.98,1
350.00,219.68,1
232.00,223.01,1
217.00,226.67,1
265.00,229.66,1
344.00,233.36,1
115.00,237.28,1
177.00,238.62,1
160.00,236.94,1
229.00,233.83,1
84.00,229.54,1
128.00,223.00,1
57.00,213.92,1
49.00,202.36,1
157.00,189.44,1
165.00,177.72,1
111.00,167.88,1
180.00,159.55,1
251.00,153.89,1
77.00,150.76,1
382.00,149.91,1
350.00,154.13,1
271.00,163.38,1
243.00,174.43,1
328.00,186.01,1
634.00,201.28,1
232.00,221.36,1
149.00,239.61,1
86.00,250.67,1
181.00,254.99,1
135.00,254.59,1
192.00,251.16,1
144.00,245.71,1
147.00,238.60,1
86.00,229.61,1
193.00,219.42,1
169.00,209.71,1
299.00,202.26,1
38.00,196.56,1
68.00,189.40,1
110.00,180.07,1
56.00,169.88,1
142.00,159.53,1
50.00,149.61,1
47.00,139.52,1
48.00,128.83,1
160.00,118.95,1
260.00,112.70,1
118.00,110.85,1
235.00,111.84,1
138.00,114.89,1
238.00,119.62,1
167.00,125.73,1
293.00,133.37,1
168.00,142.41,1
183.00,151.30,1
72.00,158.06,1
136.00,161.79,1
96.00,162.94,1
248.00,163.19,1
214.00,164.63,1
100.00,166.72,1
67.00,166.77,1
110.00,164.16,1
322.00,161.78,1
119.00,161.83,1
48.00,161.53,1
57.00,158.25,1
41.00,152.16,1
91.00,144.41,1
172.00,137.00,1
48.00,130.84,1
54.00,124.50,1
169.00,118.25,1
240.00,114.81,1
192.00,115.34,1
283.00,119.43,1
247.00,126.91,1
205.00,136.54,1
278.00,147.05,1
242.00,158.47,1
320.00,170.83,1
136.00,183.02,1
214.00,192.90,1
186.00,200.24,1
332.00,206.78,1
188.00,213.49,1
46.00,217.77,1
93.00,216.91,1
172.00,212.35,1
208.00,207.20,1
127.00,202.35,1
221.00,197.61,1
379.00,195.32,1
143.00,196.38,1
45.00,196.57,1
198.00,193.78,1
46.00,189.29,1
217.00,183.82,1
86.00,178.25,1
90.00,172.07,1
121.00,164.88,1
286.00,159.08,1
79.00,155.81,1
91.00,152.59,1
156.00,148.54,1
76.00,144.51,1
264.00,141.40,1
179.00,140.83,1
261.00,143.08,1
356.00,148.78,1
231.00,158.15,1
176.00,168.25,1
339.00,177.98,1
207.00,188.25,1
239.00,198.03,1
225.00,206.44,1
155.00,212.98,1
293.00,217.75,1
229.00,222.19,1
213.00,226.19,1
260.00,229.32,1
54.00,230.61,1
177.00,228.43,1
239.00,224.56,1
300.00,222.08,1
75.00,220.40,1
43.00,215.94,1
133.00,207.87,1
52.00,197.87,1
180.00,187.12,1
205.00,177.87,1
190.00,171.42,1
257.00,167.83,1
63.00,165.89,1
112.00,163.03,1
186.00,159.38,1
482.00,159.31,1
260.00,165.65,1
129.00,174.34,1
309.00,182.02,1
308.00,190.57,1
322.00,201.06,1
242.00,212.24,1
204.00,222.06,1
348.00,230.44,1
246.00,238.65,1
360.00,246.91,1
114.00,253.95,1
123.00,256.78,1
414.00,256.86,1
269.00,258.52,1
220.00,260.94,1
162.00,261.34,1
81.00,258.15,1
217.00,251.65,1
94.00,243.41,1
185.00,234.00,1
162.00,224.27,1
161.00,215.00,1
99.00,205.67,1
127.00,195.77,1
141.00,185.86,1
168.00,176.95,1
285.00,170.65,1
315.00,168.95,1
417.00,173.04,1
284.00,182.31,1
436.00,195.09,1
255.00,210.00,1
326.00,224.90,1
219.00,238.11,1
222.00,248.41,1
328.00,256.22,1
339.00,263.73,1
216.00,270.82,1
86.00,274.33,1
239.00,273.13,1
254.00,269.95,1
226.00,266.66,1
215.00,262.96,1
151.00,258.09,1
97.00,250.91,1
127.00,241.06,1
131.00,229.54,1
149.00,217.64,1
71.00,205.53,1
72.00,192.52,1
231.00,179.95,1
235.00,170.79,1
156.00,165.29,1
104.00,161.03,1
194.00,157.08,1
302.00,155.46,1
160.00,157.06,1
105.00,159.09,1
255.00,160.54,1
345.00,164.27,1
319.00,172.09,1
355.00,183.43,1
265.00,196.66,1
320.00,210.19,1
148.00,222.22,1
212.00,230.88,1
319.00,237.18,1
102.00,242.01,1
197.00,243.64,1
216.00,242.73,1
67.00,239.71,1
267.00,234.60,1
86.00,228.65,1
184.00,221.72,1
149.00,214.11,1
109.00,206.14,1
72.00,196.91,1
113.00,186.41,1
144.00,175.92,1
116.00,166.42,1
94.00,157.58,1
129.00,149.22,1
60.00,141.35,1
138.00,133.89,1
162.00,127.91,1
92.00,123.74,1
211.00,121.08,1
236.00,121.23,1
173.00,124.43,1
294.00,129.96,1
356.00,139.12,1
231.00,151.71,1
80.00,163.70,1
294.00,173.05,1
254.00,182.06,1
104.00,190.37,1
238.00,196.18,1
130.00,199.99,1
169.00,201.80,1
178.00,201.81,1
114.00,200.45,1
242.00,198.15,1
43.00,195.13,1
38.00,189.43,1
47.00,180.24,1
66.00,168.96,1
45.00,156.66,1
48.00,143.82,1
45.00,130.87,1
36.00,118.14,1
32.00,105.79,1
48.00,94.14,1
46.00,83.61,1
31.00,74.26,1
39.00,65.92,1
41.00,58.64,1
41.00,52.51,1
31.00,47.39,1
39.00,43.10,1
32.00,39.58,1
36.00,36.75,1
31.00,34.50,1
42.00,32.80,1
31.00,31.64,1
37.00,30.87,1
33.00,30.41,1
37.00,30.21,1
32.00,30.21,1
38.00,30.36,1
33.00,30.64,1
37.00,30.99,1
33.00,31.40,1
35.00,31.81,1
34.00,32.21,1
39.00,32.61,1
34.00,33.05,1
36.00,33.47,1
34.00,33.84,1
34.00,34.15,1
34.00,34.37,1
36.00,34.55,1
35.00,34.71,1
35.00,34.84,1
34.00,34.94,1
36.00,35.02,1
34.00,35.07,1
36.00,35.11,1
34.00,35.13,1
36.00,35.15,1
34.00,35.15,1
36.00,35.15,1
35.00,35.16,1
36.00,35.17,1
34.00,35.18,1
36.00,35.19,1
34.00,35.18,1
37.00,35.18,1
35.00,35.20,1
36.00,35.23,1
34.00,35.26,1
35.00,35.26,1
35.00,35.25,1
36.00,35.23,1
35.00,35.23,1
35.00,35.23,1
35.00,35.23,1
35.00,35.21,1
35.00,35.20,1
35.00,35.18,1
35.00,35.16,1
35.00,35.14,1
35.00,35.12,1
36.00,35.11,1
36.00,35.12,1
34.00,35.14,1
36.00,35.15,1
34.00,35.16,1
36.00,35.16,1
34.00,35.15,1
36.00,35.14,1
34.00,35.13,1
36.00,35.11,1
34.00,35.10,1
36.00,35.09,1
34.00,35.07,1
36.00,35.06,1
34.00,35.05,1
36.00,35.04,1
34.00,35.03,1
36.00,35.02,1
34.00,35.01,1
35.00,35.00,1
35.00,34.98,1
35.00,34.97,1
34.00,34.95,1
35.00,34.92,1
35.00,34.89,1
35.00,34.88,1
35.00,34.87,1
35.00,34.87,1
35.00,34.87,1
35.00,34.87,1
36.00,34.89,1
34.00,34.92,1
36.00,34.94,1
34.00,34.96,1
36.00,34.97,1
34.00,34.98,1
37.00,35.00,1
34.00,35.03,1
35.00,35.06,1
35.00,35.06,1
36.00,35.07,1
34.00,35.09,1
36.00,35.10,1
34.00,35.10,1
36.00,35.10,1
34.00,35.09,1
36.00,35.09,1
34.00,35.08,1
36.00,35.07,1
34.00,35.06,1
35.00,35.05,1
34.00,35.02,1
35.00,34.97,1
35.00,34.94,1
35.00,34.91,1
35.00,34.89,1
34.00,34.87,1
35.00,34.85,1
36.00,34.83,1
35.00,34.84,1
34.00,34.86,1
35.00,34.86,1
34.00,34.84,1
36.00,34.83,1
34.00,34.83,1
36.00,34.83,1
34.00,34.84,1
36.00,34.85,1
34.00,34.86,1
35.00,34.87,1
35.00,34.87,1
36.00,34.88,1
36.00,34.92,1
35.00,34.98,1
36.00,35.04,1
36.00,35.11,1
35.00,35.18,1
35.00,35.24,1
35.00,35.28,1
34.00,35.29,1
36.00,35.28,1
34.00,35.26,1
37.00,35.25,1
34.00,35.25,1
36.00,35.25,1
35.00,35.24,1
36.00,35.25,1
35.00,35.27,1
33.00,35.26,1
34.00,35.21,1
36.00,35.13,1
35.00,35.08,1
34.00,35.04,1
35.00,34.99,1
35.00,34.94,1
36.00,34.92,1
33.00,34.90,1
37.00,34.88,1
31.00,34.86,1
43.00,34.86,1
33.00,34.95,1
39.00,35.09,1
33.00,35.22,1
41.00,35.36,1
34.00,35.53,1
38.00,35.70,1
31.00,35.82,1
41.00,35.89,1
32.00,35.95,1
40.00,36.01,1
33.00,36.06,1
35.00,36.07,1
34.00,36.02,1
36.00,35.94,1
34.00,35.85,1
33.00,35.73,1
37.00,35.59,1
38.00,35.50,1
36.00,35.49,1
33.00,35.50,1
38.00,35.48,1
31.00,35.45,1
36.00,35.39,1
33.00,35.29,1
41.00,35.23,1
32.00,35.24,1
41.00,35.28,1
31.00,35.35,1
43.00,35.44,1
32.00,35.57,1
32.00,35.64,1
34.00,35.59,1
42.00,35.54,1
32.00,35.58,1
38.00,35.62,1
31.00,35.62,1
45.00,35.64,1
32.00,35.74,1
45.00,35.91,1
32.00,36.13,1
46.00,36.38,1
33.00,36.66,1
38.00,36.91,1
38.00,37.09,1
44.00,37.31,1
36.00,37.58,1
31.00,37.76,1
34.00,37.73,1
31.00,37.54,1
38.00,37.26,1
33.00,36.98,1
32.00,36.66,1
33.00,36.28,1
44.00,35.97,1
31.00,35.80,1
40.00,35.69,1
36.00,35.65,1
35.00,35.65,1
32.00,35.61,1
42.00,35.57,1
32.00,35.59,1
41.00,35.64,1
33.00,35.71,1
42.00,35.82,1
34.00,35.97,1
45.00,36.17,1
32.00,36.42,1
42.00,36.65,1
31.00,36.83,1
42.00,36.95,1
31.00,37.03,1
41.00,37.07,1
32.00,37.07,1
40.00,37.04,1
34.00,37.00,1
35.00,36.93,1
31.00,36.78,1
33.00,36.51,1
34.00,36.19,1
31.00,35.83,1
39.00,35.50,1
31.00,35.22,1
41.00,35.03,1
31.00,34.91,1
44.00,34.88,1
31.00,34.94,1
32.00,34.98,1
36.00,34.93,1
32.00,34.86,1
36.00,34.78,1
43.00,34.79,1
33.00,34.92,1
53.00,35.21,1
32.00,35.68,1
43.00,36.17,1
31.00,36.59,1
46.00,36.94,1
31.00,37.26,1
51.00,37.58,1
32.00,37.95,1
38.00,38.24,1
35.00,38.38,1
39.00,38.43,1
41.00,38.47,1
33.00,38.50,1
38.00,38.45,1
34.00,38.33,1
40.00,38.17,1
33.00,38.00,1
38.00,37.81,1
42.00,37.66,1
38.00,37.63,1
33.00,37.61,1
33.00,37.48,1
38.00,37.27,1
44.00,37.15,1
32.00,37.14,1
37.00,37.09,1
33.00,36.98,1
54.00,36.98,1
31.00,37.17,1
34.00,37.33,1
33.00,37.30,1
71.00,37.46,1
31.00,38.05,1
56.00,38.80,1
31.00,39.52,1
50.00,40.16,1
36.00,40.69,1
46.00,41.14,1
32.00,41.44,1
49.00,41.62,1
31.00,41.70,1
34.00,41.59,1
38.00,41.26,1
35.00,40.84,1
36.00,40.36,1
33.00,39.83,1
41.00,39.28,1
42.00,38.87,1
43.00,38.65,1
39.00,38.59,1
62.00,38.78,1
32.00,39.25,1
44.00,39.72,1
33.00,40.03,1
44.00,40.21,1
42.00,40.37,1
50.00,40.62,1
32.00,40.91,1
38.00,41.04,1
32.00,40.93,1
44.00,40.70,1
34.00,40.46,1
42.00,40.21,1
31.00,39.92,1
37.00,39.54,1
34.00,39.10,1
49.00,38.74,1
31.00,38.54,1
43.00,38.38,1
34.00,38.24,1
35.00,38.07,1
38.00,37.86,1
32.00,37.64,1
43.00,37.42,1
36.00,37.29,1
47.00,37.29,1
32.00,37.40,1
40.00,37.50,1
31.00,37.51,1
45.00,37.50,1
34.00,37.53,1
37.00,37.55,1
31.00,37.48,1
50.00,37.41,1
31.00,37.46,1
40.00,37.52,1
31.00,37.49,1
35.00,37.37,1
31.00,37.13,1
45.00,36.89,1
32.00,36.76,1
53.00,36.78,1
31.00,36.98,1
37.00,37.16,1
31.00,37.20,1
39.00,37.13,1
32.00,37.02,1
35.00,36.86,1
34.00,36.63,1
37.00,36.41,1
37.00,36.24,1
36.00,36.12,1
34.00,36.02,1
39.00,35.94,1
41.00,35.95,1
35.00,36.06,1
34.00,36.15,1
34.00,36.15,1
40.00,36.14,1
32.00,36.14,1
40.00,36.13,1
34.00,36.14,1
32.00,36.11,1
31.00,35.96,1
35.00,35.72,1
34.00,35.47,1
40.00,35.29,1
37.00,35.24,1
44.00,35.34,1
36.00,35.57,1
40.00,35.87,1
32.00,36.13,1
39.00,36.31,1
31.00,36.42,1
34.00,36.41,1
34.00,36.30,1
46.00,36.24,1
34.00,36.32,1
41.00,36.46,1
33.00,36.59,1
32.00,36.63,1
40.00,36.58,1
37.00,36.57,1
32.00,36.56,1
40.00,36.50,1
59.00,36.67,1
35.00,37.17,1
38.00,37.71,1
33.00,38.06,1
49.00,38.34,1
43.00,38.71,1
37.00,39.14,1
36.00,39.44,1
32.00,39.53,1
43.00,39.47,1
38.00,39.40,1
34.00,39.32,1
33.00,39.10,1
36.00,38.77,1
65.00,38.65,1
32.00,38.91,1
52.00,39.31,1
39.00,39.77,1
32.00,40.14,1
31.00,40.20,1
50.00,40.11,1
32.00,40.06,1
45.00,40.01,1
38.00,39.98,1
38.00,39.94,1
35.00,39.82,1
56.00,39.77,1
41.00,39.98,1
45.00,40.33,1
34.00,40.62,1
44.00,40.80,1
44.00,40.96,1
33.00,41.09,1
51.00,41.16,1
40.00,41.30,1
51.00,41.55,1
33.00,41.81,1
36.00,41.89,1
37.00,41.73,1
36.00,41.44,1
36.00,41.05,1
38.00,40.60,1
40.00,40.17,1
68.00,40.05,1
39.00,40.42,1
67.00,41.13,1
72.00,42.34,1
32.00,43.87,1
40.00,45.04,1
52.00,45.79,1
41.00,46.38,1
36.00,46.69,1
31.00,46.58,1
48.00,46.15,1
44.00,45.72,1
43.00,45.36,1
65.00,45.20,1
54.00,45.45,1
92.00,46.35,1
51.00,47.89,1
64.00,49.62,1
34.00,51.05,1
35.00,51.83,1
39.00,51.90,1
56.00,51.62,1
40.00,51.29,1
58.00,50.94,1
51.00,50.71,1
100.00,51.00,1
50.00,52.02,1
40.00,53.06,1
37.00,53.47,1
52.00,53.39,1
38.00,53.05,1
35.00,52.39,1
41.00,51.38,1
62.00,50.40,1
36.00,49.65,1
32.00,48.81,1
40.00,47.71,1
108.00,47.12,1
34.00,47.51,1
89.00,48.42,1
70.00,49.85,1
44.00,51.53,1
48.00,52.82,1
55.00,53.66,1
118.00,54.81,1
60.00,56.76,1
53.00,58.78,1
80.00,60.40,1
48.00,61.79,1
121.00,63.26,1
136.00,65.79,1
98.00,69.60,1
122.00,73.94,1
168.00,79.00,1
80.00,84.68,1
58.00,89.39,1
55.00,92.09,1
70.00,93.06,1
126.00,93.38,1
117.00,94.16,1
119.00,95.60,1
91.00,97.23,1
44.00,98.10,1
64.00,97.54,1
50.00,95.73,1
63.00,93.07,1
70.00,90.01,1
68.00,86.95,1
70.00,84.03,1
96.00,81.55,1
45.00,79.50,1
162.00,78.19,1
79.00,78.31,1
57.00,78.92,1
118.00,79.35,1
55.00,79.93,1
45.00,79.98,1
68.00,79.14,1
58.00,77.86,1
136.00,76.96,1
191.00,78.03,1
157.00,81.89,1
116.00,87.25,1
187.00,93.21,1
154.00,99.97,1
164.00,107.25,1
238.00,115.18,1
109.00,123.57,1
127.00,130.68,1
102.00,135.62,1
86.00,138.32,1
52.00,138.51,1
49.00,136.00,1
53.00,131.30,1
264.00,126.84,1
61.00,124.60,1
88.00,122.69,1
96.00,119.94,1
76.00,116.84,1
54.00,113.11,1
56.00,108.54,1
71.00,103.43,1
64.00,98.29,1
203.00,94.46,1
83.00,92.97,1
113.00,92.75,1
68.00,92.63,1
118.00,92.51,1
95.00,92.66,1
82.00,92.93,1
51.00,92.63,1
102.00,91.69,1
54.00,90.50,1
51.00,88.75,1
88.00,86.51,1
76.00,84.45,1
44.00,82.44,1
41.00,79.89,1
83.00,77.03,1
85.00,74.72,1
84.00,73.28,1
55.00,72.32,1
57.00,71.26,1
36.00,69.80,1
34.00,67.73,1
32.00,65.04,1
33.00,61.93,1
35.00,58.61,1
31.00,55.27,1
33.00,51.97,1
80.00,49.21,1
39.00,47.41,1
47.00,46.16,1
32.00,45.05,1
45.00,44.01,1
44.00,43.14,1
32.00,42.41,1
40.00,41.68,1
39.00,40.99,1
31.00,40.35,1
32.00,39.63,1
31.00,38.81,1
31.00,37.94,1
67.00,37.34,1
32.00,37.29,1
38.00,37.40,1
34.00,37.43,1
36.00,37.39,1
33.00,37.27,1
42.00,37.13,1
31.00,37.03,1
34.00,36.86,1
32.00,36.60,1
38.00,36.32,1
34.00,36.08,1
33.00,35.85,1
36.00,35.61,1
32.00,35.39,1
35.00,35.16,1
36.00,34.97,1
34.00,34.83,1
36.00,34.74,1
34.00,34.67,1
39.00,34.66,1
35.00,34.71,1
34.00,34.79,1
35.00,34.84,1
35.00,34.88,1
35.00,34.91,1
35.00,34.93,1
35.00,34.96,1
36.00,34.98,1
35.00,35.02,1
36.00,35.06,1
35.00,35.11,1
36.00,35.16,1
35.00,35.21,1
35.00,35.25,1
35.00,35.27,1
35.00,35.28,1
35.00,35.27,1
34.00,35.25,1
35.00,35.21,1
34.00,35.16,1
35.00,35.09,1
35.00,35.04,1
35.00,34.99,1
35.00,34.96,1
35.00,34.93,1
34.00,34.91,1
35.00,34.87,1
35.00,34.84,1
36.00,34.84,1
35.00,34.85,1
35.00,34.88,1
34.00,34.89,1
36.00,34.90,1
34.00,34.91,1
35.00,34.91,1
35.00,34.90,1
36.00,34.91,1
35.00,34.94,1
35.00,34.97,1
35.00,34.99,1
36.00,35.02,1
35.00,35.05,1
36.00,35.10,1
35.00,35.14,1
35.00,35.18,1
35.00,35.20,1
35.00,35.21,1
35.00,35.22,1
35.00,35.21,1
35.00,35.20,1
35.00,35.18,1
36.00,35.17,1
35.00,35.18,1
35.00,35.18,1
35.00,35.18,1
35.00,35.17,1
35.00,35.16,1
35.00,35.15,1
35.00,35.13,1
37.00,35.13,1
34.00,35.15,1
35.00,35.16,1
35.00,35.16,1
36.00,35.16,1
34.00,35.16,1
35.00,35.15,1
35.00,35.13,1
36.00,35.11,1
34.00,35.11,1
36.00,35.10,1
35.00,35.10,1
36.00,35.11,1
35.00,35.13,1
35.00,35.16,1
35.00,35.17,1
34.00,35.16,1
35.00,35.13,1
35.00,35.10,1
35.00,35.07,1
36.00,35.06,1
36.00,35.07,1
35.00,35.10,1
35.00,35.13,1
35.00,35.15,1
35.00,35.15,1
34.00,35.15,1
35.00,35.12,1
34.00,35.08,1
35.00,35.03,1
34.00,34.97,1
35.00,34.91,1
35.00,34.87,1
36.00,34.84,1
35.00,34.84,1
35.00,34.86,1
34.00,34.87,1
36.00,34.87,1
34.00,34.88,1
36.00,34.89,1
35.00,34.90,1
36.00,34.94,1
34.00,34.97,1
35.00,34.99,1
35.00,35.00,1
35.00,35.01,1
36.00,35.02,1
35.00,35.04,1
35.00,35.07,1
35.00,35.09,1
35.00,35.10,1
35.00,35.10,1
35.00,35.10,1
35.00,35.10,1
35.00,35.09,1
35.00,35.09,1
35.00,35.08,1
34.00,35.06,1
35.00,35.03,1
35.00,35.00,1
35.00,34.97,1
34.00,34.94,1
35.00,34.91,1
34.00,34.87,1
36.00,34.84,1
35.00,34.82,1
36.00,34.84,1
35.00,34.87,1
36.00,34.91,1
35.00,34.97,1
35.00,35.02,1
34.00,35.05,1
35.00,35.05,1
34.00,35.03,1
34.00,35.00,1
36.00,34.95,1
34.00,34.92,1
36.00,34.90,1
36.00,34.90,1
36.00,34.94,1
38.00,35.02,1
37.00,35.16,1
34.00,35.30,1
35.00,35.41,1
