31.00,46.60,1
96.00,47.49,1
48.00,48.85,1
44.00,50.23,1
38.00,51.04,1
53.00,51.40,1
34.00,51.44,1
104.00,51.64,1
34.00,52.36,1
91.00,53.35,1
37.00,54.44,1
72.00,55.42,1
34.00,56.11,1
67.00,56.49,1
40.00,56.63,1
49.00,56.48,1
58.00,56.12,1
57.00,55.83,1
153.00,56.46,1
49.00,58.48,1
90.00,60.90,1
84.00,63.32,1
106.00,66.07,1
113.00,69.35,1
242.00,74.31,1
98.00,81.36,1
245.00,89.65,1
194.00,99.43,1
347.00,111.65,1
107.00,125.53,1
327.00,139.25,1
380.00,154.51,1
220.00,171.86,1
136.00,187.27,1
141.00,198.04,1
213.00,204.86,1
216.00,209.75,1
69.00,212.44,1
66.00,210.95,1
171.00,205.86,1
148.00,199.80,1
204.00,194.13,1
211.00,189.76,1
46.00,185.71,1
152.00,180.26,1
372.00,176.13,1
287.00,176.91,1
85.00,180.17,1
235.00,182.40,1
138.00,183.80,1
278.00,185.30,1
507.00,190.26,1
240.00,200.47,1
399.00,213.07,1
222.00,226.01,1
385.00,238.52,1
763.00,254.67,1
448.00,278.05,1
343.00,303.18,1
213.00,323.38,1
50.00,334.84,1
306.00,337.56,1
127.00,335.02,1
233.00,328.58,1
210.00,319.44,1
251.00,309.42,1
71.00,298.01,1
61.00,283.21,1
140.00,265.35,1
205.00,247.51,1
234.00,232.25,1
186.00,220.07,1
257.00,210.66,1
350.00,205.28,1
231.00,204.19,1
322.00,205.98,1
315.00,210.38,1
249.00,216.67,1
268.00,223.22,1
380.00,230.44,1
394.00,240.13,1
487.00,253.26,1
542.00,270.67,1
435.00,291.54,1
443.00,313.09,1
441.00,333.70,1
277.00,351.57,1
431.00,365.30,1
216.00,374.84,1
305.00,379.37,1
408.00,380.47,1
196.00,379.61,1
179.00,374.49,1
193.00,364.27,1
95.00,349.92,1
132.00,331.71,1
63.00,310.32,1
86.00,286.68,1
143.00,262.36,1
148.00,239.51,1
137.00,218.99,1
131.00,200.73,1
299.00,185.98,1
315.00,177.22,1
188.00,173.96,1
156.00,172.73,1
262.00,172.38,1
376.00,175.15,1
345.00,182.66,1
467.00,194.96,1
398.00,211.69,1
417.00,231.27,1
626.00,253.83,1
367.00,279.43,1
439.00,304.51,1
362.00,326.77,1
270.00,344.74,1
576.00,359.22,1
119.00,371.08,1
234.00,376.44,1
316.00,375.52,1
293.00,371.97,1
212.00,366.15,1
452.00,359.27,1
180.00,352.87,1
176.00,344.48,1
124.00,332.13,1
150.00,316.49,1
96.00,298.44,1
98.00,278.46,1
252.00,258.57,1
135.00,240.99,1
171.00,225.40,1
257.00,212.16,1
273.00,202.99,1
103.00,196.80,1
381.00,192.72,1
393.00,193.63,1
172.00,199.07,1
352.00,205.62,1
307.00,213.57,1
376.00,223.62,1
352.00,235.55,1
350.00,248.63,1
272.00,261.29,1
328.00,272.37,1
262.00,281.63,1
431.00,289.95,1
329.00,298.71,1
422.00,307.97,1
241.00,316.51,1
299.00,322.49,1
321.00,325.98,1
313.00,328.21,1
173.00,328.32,1
104.00,323.83,1
324.00,315.46,1
499.00,309.01,1
237.00,306.75,1
254.00,305.03,1
170.00,301.21,1
211.00,295.01,1
127.00,286.51,1
188.00,276.00,1
292.00,265.44,1
135.00,256.13,1
80.00,245.89,1
133.00,233.49,1
369.00,222.25,1
274.00,215.85,1
269.00,213.65,1
217.00,213.43,1
327.00,214.71,1
501.00,219.91,1
384.00,230.74,1
617.00,246.89,1
401.00,267.67,1
296.00,288.78,1
488.00,307.51,1
326.00,324.78,1
353.00,339.51,1
301.00,350.51,1
354.00,358.10,1
227.00,362.26,1
152.00,361.34,1
374.00,356.13,1
192.00,349.41,1
136.00,340.11,1
167.00,327.05,1
66.00,310.75,1
71.00,291.13,1
47.00,268.72,1
227.00,246.06,1
151.00,226.08,1
154.00,209.07,1
201.00,194.69,1
228.00,183.82,1
112.00,175.84,1
245.00,169.71,1
216.00,166.23,1
258.00,165.84,1
617.00,171.23,1
262.00,184.28,1
136.00,198.66,1
198.00,209.05,1
462.00,218.26,1
409.00,230.70,1
120.00,244.12,1
207.00,253.32,1
382.00,259.49,1
372.00,266.71,1
282.00,275.02,1
97.00,280.76,1
178.00,281.23,1
69.00,276.62,1
51.00,266.93,1
186.00,253.72,1
49.00,239.20,1
159.00,223.89,1
113.00,208.83,1
157.00,194.97,1
58.00,182.00,1
144.00,169.58,1
257.00,159.51,1
300.00,154.48,1
199.00,154.30,1
104.00,155.70,1
202.00,156.66,1
146.00,157.61,1
464.00,161.04,1
81.00,167.84,1
356.00,175.57,1
403.00,185.49,1
426.00,200.02,1
398.00,218.09,1
473.00,238.58,1
305.00,259.86,1
335.00,279.18,1
315.00,295.30,1
253.00,307.86,1
281.00,316.34,1
177.00,320.49,1
335.00,321.09,1
254.00,320.02,1
339.00,318.39,1
202.00,316.00,1
106.00,310.75,1
53.00,300.35,1
48.00,284.68,1
82.00,265.31,1
43.00,243.97,1
146.00,222.29,1
432.00,204.81,1
84.00,193.76,1
167.00,185.31,1
67.00,176.76,1
120.00,167.89,1
190.00,159.71,1
115.00,153.30,1
224.00,148.69,1
234.00,146.86,1
224.00,148.16,1
281.00,152.21,1
330.00,159.46,1
447.00,171.12,1
319.00,187.04,1
399.00,205.28,1
217.00,223.38,1
189.00,238.19,1
331.00,249.22,1
250.00,258.46,1
242.00,265.82,1
240.00,270.67,1
287.00,273.76,1
372.00,276.85,1
279.00,280.87,1
314.00,284.91,1
245.00,288.09,1
365.00,290.64,1
116.00,291.99,1
70.00,288.79,1
39.00,279.22,1
173.00,265.42,1
133.00,250.44,1
82.00,235.09,1
161.00,219.43,1
50.00,204.03,1
223.00,189.56,1
153.00,177.66,1
150.00,168.35,1
92.00,160.22,1
172.00,152.92,1
370.00,148.97,1
102.00,149.42,1
514.00,153.81,1
326.00,164.09,1
402.00,179.39,1
172.00,195.84,1
227.00,209.91,1
328.00,221.54,1
145.00,231.56,1
304.00,239.13,1
292.00,245.61,1
232.00,251.68,1
301.00,256.70,1
327.00,261.62,1
383.00,267.77,1
289.00,275.00,1
66.00,279.89,1
92.00,278.50,1
369.00,273.38,1
173.00,268.75,1
130.00,263.33,1
158.00,255.40,1
62.00,245.11,1
254.00,233.59,1
301.00,224.31,1
47.00,217.31,1
156.00,209.38,1
111.00,200.33,1
166.00,191.30,1
130.00,182.86,1
192.00,175.51,1
277.00,170.64,1
45.00,167.84,1
305.00,165.72,1
184.00,165.57,1
347.00,168.41,1
106.00,173.12,1
286.00,177.95,1
172.00,182.76,1
237.00,187.54,1
370.00,193.36,1
356.00,202.43,1
462.00,215.36,1
325.00,231.40,1
425.00,248.65,1
66.00,263.80,1
278.00,273.49,1
206.00,278.69,1
120.00,280.14,1
91.00,276.45,1
193.00,268.60,1
171.00,259.12,1
198.00,249.42,1
174.00,239.92,1
115.00,230.22,1
179.00,220.05,1
73.00,209.56,1
112.00,198.26,1
94.00,186.36,1
325.00,176.32,1
278.00,171.29,1
400.00,172.38,1
278.00,178.67,1
286.00,187.79,1
258.00,197.67,1
306.00,207.80,1
207.00,217.52,1
226.00,225.53,1
77.00,230.27,1
190.00,230.97,1
116.00,228.61,1
414.00,226.16,1
308.00,227.22,1
246.00,231.07,1
372.00,236.03,1
48.00,240.58,1
59.00,240.44,1
172.00,235.21,1
48.00,227.21,1
181.00,217.35,1
155.00,207.34,1
276.00,199.22,1
137.00,193.43,1
447.00,190.86,1
34.00,191.38,1
243.00,191.72,1
59.00,190.43,1
159.00,187.43,1
34.00,182.37,1
60.00,174.87,1
64.00,165.17,1
69.00,154.43,1
302.00,145.33,1
137.00,140.33,1
326.00,139.40,1
194.00,142.18,1
264.00,147.68,1
365.00,156.00,1
132.00,166.45,1
376.00,177.20,1
334.00,189.56,1
378.00,204.43,1
202.00,219.63,1
488.00,234.42,1
462.00,251.43,1
174.00,269.14,1
99.00,281.24,1
296.00,286.69,1
351.00,289.98,1
350.00,294.04,1
320.00,298.72,1
83.00,301.29,1
218.00,299.05,1
95.00,292.55,1
93.00,282.06,1
87.00,267.71,1
42.00,250.54,1
44.00,230.98,1
138.00,210.69,1
211.00,192.70,1
53.00,177.72,1
315.00,165.70,1
192.00,158.31,1
212.00,154.97,1
119.00,153.39,1
284.00,153.19,1
460.00,157.53,1
404.00,168.94,1
444.00,186.19,1
225.00,205.73,1
363.00,224.18,1
376.00,241.77,1
338.00,259.18,1
244.00,274.56,1
206.00,285.68,1
298.00,292.54,1
330.00,297.44,1
581.00,304.06,1
177.00,312.87,1
253.00,319.04,1
218.00,320.60,1
190.00,318.39,1
135.00,312.21,1
101.00,301.80,1
62.00,287.15,1
99.00,269.19,1
352.00,251.69,1
118.00,237.68,1
185.00,225.56,1
111.00,213.86,1
157.00,202.56,1
123.00,191.81,1
186.00,182.17,1
197.00,174.54,1
142.00,168.94,1
162.00,164.42,1
533.00,163.78,1
157.00,169.28,1
69.00,175.43,1
271.00,178.98,1
433.00,184.38,1
351.00,194.65,1
286.00,207.80,1
359.00,221.51,1
202.00,234.57,1
296.00,245.50,1
111.00,253.15,1
307.00,257.42,1
172.00,259.59,1
172.00,259.44,1
174.00,256.47,1
216.00,251.82,1
387.00,248.16,1
246.00,247.38,1
72.00,246.46,1
403.00,244.19,1
244.00,243.65,1
135.00,243.66,1
117.00,240.84,1
58.00,234.29,1
102.00,224.31,1
165.00,212.82,1
177.00,202.09,1
67.00,192.10,1
394.00,183.99,1
377.00,181.97,1
262.00,186.05,1
325.00,193.10,1
304.00,202.11,1
270.00,212.24,1
170.00,221.30,1
303.00,228.42,1
336.00,235.49,1
521.00,245.41,1
254.00,258.30,1
157.00,269.36,1
267.00,275.78,1
155.00,278.55,1
265.00,278.42,1
371.00,277.86,1
319.00,279.19,1
666.00,284.87,1
312.00,295.96,1
186.00,306.80,1
156.00,311.81,1
214.00,311.18,1
179.00,306.67,1
123.00,298.85,1
150.00,287.81,1
123.00,274.45,1
127.00,259.52,1
434.00,246.30,1
392.00,239.55,1
322.00,239.19,1
350.00,242.45,1
183.00,246.86,1
222.00,249.80,1
224.00,250.80,1
182.00,250.30,1
268.00,248.72,1
169.00,246.62,1
283.00,244.21,1
112.00,241.30,1
383.00,238.47,1
187.00,237.24,1
254.00,236.81,1
90.00,235.15,1
218.00,231.51,1
312.00,228.01,1
263.00,226.93,1
368.00,228.58,1
256.00,232.67,1
124.00,236.39,1
86.00,236.28,1
92.00,231.52,1
191.00,224.06,1
78.00,215.54,1
56.00,205.23,1
96.00,192.98,1
97.00,180.13,1
94.00,167.58,1
71.00,155.44,1
369.00,146.07,1
172.00,142.20,1
143.00,141.62,1
109.00,141.19,1
186.00,140.71,1
263.00,141.84,1
399.00,147.28,1
324.00,158.01,1
410.00,172.94,1
221.00,189.92,1
509.00,207.79,1
377.00,227.83,1
397.00,249.27,1
271.00,269.27,1
207.00,285.03,1
232.00,295.17,1
290.00,301.02,1
120.00,303.23,1
136.00,300.40,1
386.00,294.72,1
70.00,288.75,1
65.00,279.50,1
174.00,266.28,1
72.00,251.43,1
103.00,235.26,1
98.00,218.31,1
49.00,201.07,1
96.00,183.75,1
116.00,167.47,1
398.00,155.59,1
105.00,149.78,1
198.00,147.07,1
149.00,145.51,1
384.00,146.79,1
155.00,151.75,1
154.00,157.50,1
310.00,163.05,1
368.00,171.33,1
160.00,181.90,1
145.00,190.80,1
250.00,197.03,1
628.00,205.74,1
170.00,219.42,1
257.00,232.69,1
266.00,242.91,1
162.00,250.51,1
188.00,254.44,1
173.00,254.84,1
288.00,253.51,1
92.00,251.07,1
93.00,245.55,1
142.00,236.67,1
80.00,225.90,1
87.00,213.40,1
84.00,199.64,1
228.00,186.58,1
95.00,175.73,1
171.00,166.54,1
129.00,158.74,1
57.00,151.57,1
113.00,144.06,1
175.00,137.38,1
288.00,133.95,1
52.00,133.57,1
270.00,134.32,1
232.00,137.30,1
132.00,142.17,1
350.00,148.16,1
383.00,157.95,1
268.00,171.58,1
246.00,185.89,1
157.00,198.20,1
186.00,207.18,1
485.00,215.53,1
330.00,227.01,1
148.00,238.91,1
243.00,247.24,1
236.00,252.60,1
222.00,256.07,1
380.00,259.00,1
100.00,261.61,1
171.00,261.17,1
95.00,256.61,1
79.00,248.30,1
49.00,236.31,1
44.00,221.24,1
205.00,205.30,1
110.00,191.07,1
97.00,178.25,1
69.00,165.70,1
48.00,153.03,1
244.00,141.73,1
128.00,133.92,1
315.00,130.29,1
82.00,130.17,1
209.00,131.47,1
225.00,134.13,1
211.00,138.96,1
216.00,145.18,1
594.00,155.38,1
237.00,171.58,1
231.00,189.00,1
442.00,205.44,1
322.00,223.01,1
222.00,239.81,1
244.00,252.98,1
120.00,261.41,1
83.00,263.81,1
200.00,260.92,1
114.00,254.98,1
92.00,246.33,1
43.00,234.44,1
79.00,219.70,1
337.00,205.69,1
44.00,194.82,1
249.00,185.69,1
57.00,177.57,1
34.00,168.82,1
181.00,159.13,1
55.00,150.24,1
47.00,141.31,1
78.00,131.74,1
65.00,122.34,1
129.00,113.93,1
80.00,107.11,1
79.00,101.43,1
81.00,96.40,1
36.00,91.68,1
81.00,86.99,1
55.00,82.64,1
66.00,78.72,1
59.00,75.18,1
125.00,72.55,1
35.00,71.00,1
34.00,69.36,1
151.00,67.92,1
68.00,67.91,1
55.00,68.48,1
68.00,68.69,1
54.00,68.60,1
58.00,68.19,1
52.00,67.46,1
42.00,66.36,1
73.00,65.05,1
41.00,63.80,1
36.00,62.32,1
34.00,60.34,1
40.00,58.02,1
33.00,55.55,1
39.00,53.03,1
121.00,51.29,1
43.00,50.96,1
33.00,51.01,1
53.00,50.69,1
38.00,50.24,1
44.00,49.66,1
56.00,49.08,1
31.00,48.57,1
84.00,48.24,1
33.00,48.31,1
62.00,48.52,1
40.00,48.70,1
51.00,48.83,1
38.00,48.79,1
42.00,48.55,1
31.00,48.02,1
71.00,47.47,1
36.00,47.22,1
47.00,47.04,1
31.00,46.67,1
33.00,46.03,1
32.00,45.08,1
42.00,44.02,1
31.00,42.97,1
39.00,41.93,1
31.00,40.92,1
39.00,39.95,1
32.00,39.06,1
78.00,38.59,1
33.00,38.80,1
33.00,39.14,1
39.00,39.24,1
32.00,39.20,1
44.00,39.09,1
45.00,39.08,1
41.00,39.23,1
33.00,39.37,1
32.00,39.32,1
32.00,39.05,1
37.00,38.65,1
32.00,38.21,1
74.00,38.06,1
31.00,38.43,1
43.00,38.92,1
34.00,39.25,1
40.00,39.46,1
41.00,39.59,1
45.00,39.76,1
31.00,39.91,1
39.00,39.92,1
32.00,39.77,1
72.00,39.79,1
33.00,40.21,1
49.00,40.74,1
36.00,41.18,1
41.00,41.50,1
31.00,41.59,1
34.00,41.42,1
56.00,41.20,1
32.00,41.15,1
37.00,41.04,1
33.00,40.76,1
39.00,40.37,1
62.00,40.16,1
39.00,40.35,1
31.00,40.57,1
54.00,40.68,1
31.00,40.82,1
42.00,40.89,1
31.00,40.79,1
58.00,40.71,1
37.00,40.82,1
42.00,40.99,1
35.00,41.06,1
32.00,40.94,1
34.00,40.60,1
31.00,40.08,1
32.00,39.42,1
40.00,38.74,1
33.00,38.13,1
48.00,37.68,1
33.00,37.44,1
42.00,37.30,1
34.00,37.21,1
44.00,37.18,1
87.00,37.66,1
31.00,38.83,1
35.00,39.95,1
35.00,40.60,1
60.00,41.12,1
33.00,41.71,1
38.00,42.13,1
33.00,42.23,1
39.00,42.09,1
32.00,41.78,1
43.00,41.37,1
47.00,41.05,1
34.00,40.86,1
31.00,40.58,1
33.00,40.09,1
32.00,39.46,1
44.00,38.84,1
31.00,38.33,1
43.00,37.91,1
31.00,37.56,1
79.00,37.58,1
31.00,38.16,1
70.00,39.08,1
31.00,40.16,1
47.00,41.13,1
31.00,41.80,1
41.00,42.17,1
31.00,42.24,1
32.00,42.01,1
31.00,41.50,1
32.00,40.77,1
33.00,39.93,1
40.00,39.11,1
33.00,38.40,1
35.00,37.76,1
34.00,37.15,1
32.00,36.58,1
40.00,36.08,1
37.00,35.73,1
43.00,35.59,1
32.00,35.58,1
33.00,35.56,1
32.00,35.44,1
41.00,35.32,1
32.00,35.26,1
41.00,35.26,1
44.00,35.40,1
49.00,35.81,1
31.00,36.36,1
43.00,36.85,1
32.00,37.23,1
40.00,37.51,1
31.00,37.66,1
38.00,37.69,1
39.00,37.68,1
32.00,37.64,1
32.00,37.49,1
37.00,37.23,1
31.00,36.93,1
36.00,36.61,1
34.00,36.28,1
38.00,36.00,1
31.00,35.77,1
42.00,35.58,1
32.00,35.48,1
44.00,35.47,1
32.00,35.54,1
31.00,35.57,1
41.00,35.54,1
31.00,35.52,1
39.00,35.51,1
40.00,35.56,1
44.00,35.77,1
47.00,36.19,1
44.00,36.82,1
36.00,37.49,1
40.00,38.06,1
31.00,38.44,1
47.00,38.69,1
31.00,38.89,1
44.00,39.03,1
31.00,39.07,1
57.00,39.17,1
31.00,39.40,1
52.00,39.69,1
31.00,39.96,1
39.00,40.12,1
31.00,40.07,1
47.00,39.92,1
32.00,39.79,1
30.00,39.54,1
37.00,39.11,1
37.00,38.65,1
33.00,38.22,1
32.00,37.74,1
42.00,37.28,1
33.00,36.93,1
37.00,36.64,1
31.00,36.35,1
39.00,36.07,1
32.00,35.82,1
42.00,35.65,1
32.00,35.57,1
38.00,35.52,1
31.00,35.46,1
38.00,35.38,1
32.00,35.30,1
49.00,35.31,1
31.00,35.49,1
52.00,35.80,1
31.00,36.23,1
46.00,36.67,1
34.00,37.10,1
45.00,37.51,1
35.00,37.90,1
35.00,38.18,1
30.00,38.24,1
37.00,38.12,1
32.00,37.89,1
46.00,37.68,1
48.00,37.70,1
41.00,37.97,1
32.00,38.27,1
35.00,38.38,1
36.00,38.34,1
38.00,38.23,1
33.00,38.09,1
35.00,37.87,1
37.00,37.61,1
50.00,37.48,1
47.00,37.67,1
31.00,38.01,1
34.00,38.20,1
30.00,38.14,1
41.00,37.95,1
32.00,37.74,1
37.00,37.51,1
31.00,37.22,1
40.00,36.92,1
32.00,36.66,1
46.00,36.48,1
31.00,36.43,1
44.00,36.43,1
32.00,36.48,1
39.00,36.53,1
31.00,36.53,1
34.00,36.43,1
31.00,36.22,1
46.00,36.04,1
35.00,36.02,1
38.00,36.09,1
36.00,36.16,1
47.00,36.32,1
31.00,36.56,1
34.00,36.73,1
35.00,36.74,1
34.00,36.68,1
34.00,36.55,1
37.00,36.40,1
36.00,36.27,1
32.00,36.13,1
34.00,35.94,1
31.00,35.70,1
31.00,35.38,1
31.00,34.99,1
39.00,34.63,1
31.00,34.37,1
38.00,34.19,1
35.00,34.09,1
38.00,34.09,1
31.00,34.14,1
48.00,34.28,1
35.00,34.58,1
58.00,35.13,1
30.00,35.87,1
52.00,36.65,1
30.00,37.40,1
49.00,38.05,1
30.00,38.60,1
36.00,38.94,1
37.00,39.06,1
32.00,39.03,1
39.00,38.88,1
38.00,38.70,1
34.00,38.51,1
37.00,38.28,1
32.00,38.00,1
32.00,37.63,1
32.00,37.16,1
34.00,36.65,1
42.00,36.22,1
34.00,35.96,1
38.00,35.79,1
31.00,35.64,1
54.00,35.63,1
31.00,35.84,1
39.00,36.10,1
30.00,36.25,1
42.00,36.33,1
32.00,36.40,1
46.00,36.51,1
31.00,36.66,1
45.00,36.83,1
30.00,36.99,1
37.00,37.06,1
32.00,37.01,1
36.00,36.89,1
31.00,36.69,1
48.00,36.53,1
31.00,36.51,1
46.00,36.57,1
33.00,36.70,1
45.00,36.89,1
31.00,37.08,1
33.00,37.16,1
32.00,37.06,1
30.00,36.80,1
30.00,36.41,1
43.00,36.00,1
34.00,35.74,1
33.00,35.55,1
35.00,35.35,1
33.00,35.15,1
34.00,34.95,1
32.00,34.75,1
45.00,34.62,1
32.00,34.66,1
39.00,34.76,1
31.00,34.86,1
65.00,35.15,1
32.00,35.81,1
41.00,36.53,1
32.00,37.07,1
49.00,37.53,1
31.00,37.97,1
50.00,38.38,1
32.00,38.77,1
44.00,39.09,1
32.00,39.30,1
45.00,39.42,1
38.00,39.53,1
44.00,39.68,1
31.00,39.77,1
45.00,39.77,1
32.00,39.73,1
47.00,39.67,1
31.00,39.61,1
33.00,39.42,1
37.00,39.09,1
32.00,38.69,1
49.00,38.35,1
31.00,38.16,1
39.00,37.98,1
31.00,37.75,1
46.00,37.55,1
31.00,37.42,1
41.00,37.32,1
32.00,37.21,1
45.00,37.13,1
32.00,37.12,1
48.00,37.18,1
31.00,37.31,1
39.00,37.41,1
32.00,37.41,1
44.00,37.39,1
32.00,37.40,1
46.00,37.44,1
31.00,37.51,1
45.00,37.59,1
31.00,37.67,1
39.00,37.68,1
31.00,37.61,1
43.00,37.50,1
31.00,37.40,1
36.00,37.25,1
33.00,37.03,1
36.00,36.78,1
38.00,36.55,1
32.00,36.37,1
31.00,36.12,1
30.00,35.76,1
36.00,35.35,1
30.00,34.97,1
37.00,34.62,1
31.00,34.32,1
39.00,34.10,1
32.00,33.98,1
39.00,33.93,1
37.00,33.99,1
35.00,34.13,1
31.00,34.25,1
42.00,34.36,1
31.00,34.51,1
32.00,34.61,1
31.00,34.58,1
44.00,34.56,1
30.00,34.63,1
50.00,34.81,1
36.00,35.17,1
34.00,35.57,1
34.00,35.84,1
35.00,35.99,1
30.00,36.02,1
41.00,35.98,1
33.00,35.95,1
31.00,35.89,1
34.00,35.72,1
31.00,35.48,1
33.00,35.20,1
35.00,34.90,1
37.00,34.69,1
33.00,34.55,1
36.00,34.45,1
32.00,34.37,1
38.00,34.31,1
30.00,34.27,1
40.00,34.25,1
31.00,34.27,1
39.00,34.32,1
32.00,34.38,1
49.00,34.55,1
31.00,34.87,1
46.00,35.26,1
30.00,35.65,1
41.00,35.99,1
31.00,36.24,1
44.00,36.44,1
32.00,36.64,1
36.00,36.77,1
33.00,36.78,1
35.00,36.71,1
33.00,36.56,1
39.00,36.40,1
35.00,36.28,1
33.00,36.17,1
33.00,35.99,1
31.00,35.74,1
34.00,35.44,1
32.00,35.11,1
33.00,34.79,1
41.00,34.55,1
35.00,34.46,1
31.00,34.42,1
39.00,34.38,1
33.00,34.39,1
39.00,34.45,1
30.00,34.52,1
54.00,34.70,1
32.00,35.09,1
44.00,35.57,1
33.00,36.02,1
43.00,36.43,1
32.00,36.79,1
46.00,37.12,1
32.00,37.42,1
39.00,37.65,1
31.00,37.74,1
43.00,37.76,1
31.00,37.74,1
37.00,37.66,1
33.00,37.48,1
38.00,37.28,1
36.00,37.09,1
34.00,36.91,1
34.00,36.69,1
34.00,36.44,1
33.00,36.16,1
37.00,35.88,1
37.00,35.68,1
31.00,35.51,1
40.00,35.36,1
31.00,35.26,1
36.00,35.15,1
30.00,35.00,1
38.00,34.84,1
31.00,34.70,1
43.00,34.63,1
32.00,34.66,1
39.00,34.75,1
30.00,34.82,1
38.00,34.86,1
31.00,34.86,1
34.00,34.83,1
30.00,34.71,1
46.00,34.63,1
31.00,34.70,1
44.00,34.85,1
33.00,35.08,1
44.00,35.36,1
35.00,35.69,1
38.00,36.03,1
31.00,36.26,1
42.00,36.41,1
31.00,36.53,1
36.00,36.57,1
31.00,36.50,1
35.00,36.33,1
39.00,36.17,1
32.00,36.04,1
32.00,35.87,1
43.00,35.70,1
38.00,35.69,1
30.00,35.73,1
43.00,35.74,1
32.00,35.79,1
46.00,35.91,1
31.00,36.10,1
41.00,36.28,1
34.00,36.43,1
47.00,36.63,1
31.00,36.89,1
37.00,37.07,1
30.00,37.09,1
46.00,37.07,1
31.00,37.09,1
40.00,37.10,1
30.00,37.05,1
42.00,36.96,1
32.00,36.88,1
32.00,36.73,1
30.00,36.45,1
42.00,36.14,1
32.00,35.91,1
36.00,35.73,1
34.00,35.55,1
31.00,35.35,1
38.00,35.14,1
33.00,34.98,1
46.00,34.93,1
33.00,35.05,1
43.00,35.26,1
32.00,35.51,1
36.00,35.70,1
34.00,35.80,1
41.00,35.90,1
31.00,36.00,1
48.00,36.14,1
31.00,36.35,1
57.00,36.69,1
31.00,37.19,1
47.00,37.71,1
32.00,38.16,1
39.00,38.48,1
31.00,38.61,1
62.00,38.79,1
31.00,39.17,1
34.00,39.48,1
37.00,39.53,1
45.00,39.53,1
34.00,39.55,1
40.00,39.52,1
31.00,39.39,1
34.00,39.12,1
44.00,38.80,1
39.00,38.60,1
38.00,38.50,1
32.00,38.37,1
39.00,38.16,1
32.00,37.91,1
35.00,37.61,1
31.00,37.24,1
40.00,36.86,1
32.00,36.53,1
47.00,36.32,1
31.00,36.26,1
34.00,36.20,1
30.00,36.02,1
46.00,35.85,1
31.00,35.80,1
51.00,35.89,1
31.00,36.13,1
47.00,36.44,1
33.00,36.78,1
40.00,37.09,1
33.00,37.30,1
38.00,37.42,1
32.00,37.43,1
36.00,37.35,1
32.00,37.17,1
41.00,36.98,1
34.00,36.83,1
37.00,36.70,1
31.00,36.54,1
34.00,36.31,1
37.00,36.06,1
32.00,35.84,1
38.00,35.63,1
31.00,35.44,1
34.00,35.23,1
31.00,34.99,1
44.00,34.80,1
39.00,34.81,1
45.00,35.05,1
34.00,35.42,1
50.00,35.87,1
34.00,36.42,1
41.00,36.95,1
31.00,37.35,1
62.00,37.78,1
31.00,38.40,1
57.00,39.09,1
32.00,39.80,1
36.00,40.31,1
31.00,40.49,1
45.00,40.46,1
30.00,40.35,1
37.00,40.11,1
32.00,39.72,1
48.00,39.34,1
32.00,39.08,1
47.00,38.90,1
40.00,38.85,1
36.00,38.88,1
33.00,38.81,1
32.00,38.58,1
32.00,38.20,1
32.00,37.70,1
42.00,37.22,1
35.00,36.87,1
50.00,36.72,1
31.00,36.77,1
46.00,36.90,1
31.00,37.05,1
34.00,37.11,1
32.00,37.02,1
38.00,36.84,1
31.00,36.64,1
47.00,36.49,1
31.00,36.47,1
56.00,36.60,1
31.00,36.94,1
56.00,37.41,1
31.00,37.98,1
30.00,38.37,1
33.00,38.42,1
44.00,38.35,1
31.00,38.29,1
46.00,38.23,1
32.00,38.20,1
35.00,38.11,1
40.00,37.96,1
30.00,37.79,1
51.00,37.66,1
35.00,37.69,1
41.00,37.81,1
31.00,37.88,1
44.00,37.89,1
31.00,37.88,1
54.00,37.95,1
33.00,38.17,1
45.00,38.44,1
31.00,38.64,1
46.00,38.79,1
34.00,38.91,1
43.00,39.02,1
31.00,39.06,1
46.00,39.04,1
46.00,39.14,1
44.00,39.42,1
31.00,39.70,1
49.00,39.87,1
32.00,40.02,1
49.00,40.15,1
33.00,40.26,1
44.00,40.34,1
32.00,40.32,1
48.00,40.27,1
31.00,40.21,1
38.00,40.06,1
36.00,39.80,1
30.00,39.45,1
34.00,38.95,1
37.00,38.39,1
36.00,37.89,1
33.00,37.43,1
41.00,37.03,1
31.00,36.71,1
35.00,36.39,1
31.00,36.03,1
46.00,35.75,1
31.00,35.63,1
55.00,35.70,1
32.00,36.01,1
44.00,36.40,1
31.00,36.74,1
40.00,36.99,1
30.00,37.12,1
46.00,37.20,1
31.00,37.30,1
39.00,37.35,1
30.00,37.31,1
41.00,37.20,1
31.00,37.06,1
35.00,36.88,1
32.00,36.62,1
41.00,36.37,1
34.00,36.20,1
38.00,36.08,1
30.00,35.96,1
34.00,35.77,1
35.00,35.55,1
31.00,35.31,1
38.00,35.09,1
31.00,34.89,1
35.00,34.71,1
33.00,34.53,1
35.00,34.37,1
33.00,34.24,1
34.00,34.13,1
32.00,34.01,1
40.00,33.94,1
32.00,33.95,1
36.00,34.00,1
30.00,34.02,1
37.00,34.00,1
31.00,33.99,1
37.00,33.97,1
34.00,33.99,1
34.00,34.03,1
34.00,34.05,1
36.00,34.09,1
34.00,34.15,1
35.00,34.21,1
34.00,34.27,1
34.00,34.31,1
34.00,34.33,1
35.00,34.35,1
34.00,34.36,1
35.00,34.38,1
34.00,34.40,1
34.00,34.41,1
34.00,34.40,1
35.00,34.39,1
34.00,34.38,1
35.00,34.38,1
35.00,34.40,1
35.00,34.43,1
34.00,34.46,1
36.00,34.49,1
34.00,34.54,1
36.00,34.59,1
34.00,34.64,1
36.00,34.69,1
34.00,34.73,1
35.00,34.77,1
34.00,34.79,1
35.00,34.80,1
34.00,34.79,1
36.00,34.78,1
34.00,34.79,1
35.00,34.79,1
35.00,34.79,1
34.00,34.79,1
34.00,34.77,1
34.00,34.73,1
34.00,34.67,1
34.00,34.61,1
35.00,34.55,1
34.00,34.50,1
36.00,34.47,1
34.00,34.47,1
35.00,34.48,1
34.00,34.48,1
35.00,34.49,1
34.00,34.49,1
35.00,34.50,1
34.00,34.50,1
35.00,34.50,1
34.00,34.50,1
36.00,34.51,1
34.00,34.53,1
35.00,34.56,1
34.00,34.58,1
36.00,34.59,1
34.00,34.62,1
35.00,34.65,1
34.00,34.66,1
36.00,34.67,1
34.00,34.70,1
35.00,34.71,1
36.00,34.74,1
34.00,34.77,1
35.00,34.80,1
34.00,34.81,1
34.00,34.80,1
34.00,34.76,1
34.00,34.71,1
34.00,34.65,1
35.00,34.59,1
34.00,34.54,1
35.00,34.50,1
34.00,34.47,1
35.00,34.45,1
34.00,34.43,1
35.00,34.42,1
34.00,34.42,1
36.00,34.43,1
33.00,34.44,1
35.00,34.45,1
34.00,34.45,1
36.00,34.46,1
34.00,34.48,1
36.00,34.52,1
34.00,34.56,1
36.00,34.61,1
34.00,34.66,1
35.00,34.70,1
34.00,34.72,1
36.00,34.74,1
34.00,34.76,1
34.00,34.77,1
35.00,34.76,1
35.00,34.75,1
35.00,34.76,1
34.00,34.76,1
34.00,34.74,1
34.00,34.70,1
35.00,34.66,1
34.00,34.62,1
35.00,34.59,1
34.00,34.56,1
35.00,34.54,1
34.00,34.52,1
35.00,34.51,1
34.00,34.49,1
35.00,34.49,1
34.00,34.48,1
35.00,34.48,1
34.00,34.47,1
35.00,34.47,1
34.00,34.47,1
35.00,34.47,1
34.00,34.48,1
35.00,34.48,1
34.00,34.48,1
35.00,34.48,1
34.00,34.49,1
35.00,34.49,1
34.00,34.49,1
35.00,34.49,1
36.00,34.51,1
35.00,34.56,1
35.00,34.61,1
34.00,34.66,1
35.00,34.69,1
34.00,34.71,1
34.00,34.71,1
34.00,34.69,1
35.00,34.65,1
34.00,34.62,1
35.00,34.60,1
34.00,34.57,1
35.00,34.55,1
34.00,34.53,1
34.00,34.51,1
35.00,34.49,1
35.00,34.47,1
34.00,34.48,1
35.00,34.48,1
36.00,34.50,1
32.00,34.52,1
35.00,34.51,1
34.00,34.49,1
34.00,34.46,1
35.00,34.43,1
37.00,34.44,1
34.00,34.49,1
35.00,34.54,1
34.00,34.58,1
36.00,34.62,1
34.00,34.66,1
37.00,34.71,1
34.00,34.77,1
32.00,34.80,1
33.00,34.76,1
35.00,34.68,1
35.00,34.61,1
31.00,34.53,1
33.00,34.41,1
32.00,34.25,1
34.00,34.07,1
36.00,33.94,1
34.00,33.87,1
37.00,33.86,1
42.00,33.98,1
31.00,34.20,1
34.00,34.38,1
34.00,34.47,1
34.00,34.53,1
33.00,34.55,1
39.00,34.57,1
32.00,34.63,1
36.00,34.67,1
32.00,34.68,1
45.00,34.74,1
36.00,34.95,1
34.00,35.20,1
34.00,35.36,1
39.00,35.49,1
34.00,35.61,1
37.00,35.72,1
32.00,35.78,1
44.00,35.84,1
32.00,35.96,1
37.00,36.06,1
36.00,36.11,1
36.00,36.16,1
40.00,36.22,1
40.00,36.36,1
37.00,36.57,1
33.00,36.72,1
34.00,36.76,1
32.00,36.68,1
40.00,36.54,1
31.00,36.41,1
31.00,36.20,1
33.00,35.90,1
42.00,35.62,1
31.00,35.46,1
38.00,35.34,1
35.00,35.25,1
38.00,35.23,1
33.00,35.23,1
30.00,35.18,1
32.00,35.01,1
41.00,34.84,1
32.00,34.76,1
52.00,34.85,1
31.00,35.15,1
38.00,35.47,1
33.00,35.69,1
42.00,35.89,1
36.00,36.12,1
34.00,36.33,1
35.00,36.43,1
51.00,36.58,1
31.00,36.88,1
32.00,37.08,1
35.00,37.09,1
39.00,37.03,1
31.00,36.95,1
35.00,36.80,1
41.00,36.64,1
31.00,36.53,1
39.00,36.41,1
36.00,36.31,1
37.00,36.26,1
30.00,36.19,1
36.00,36.03,1
34.00,35.84,1
38.00,35.69,1
30.00,35.55,1
41.00,35.42,1
39.00,35.40,1
36.00,35.49,1
31.00,35.56,1
41.00,35.59,1
31.00,35.62,1
48.00,35.72,1
30.00,35.91,1
41.00,36.10,1
31.00,36.23,1
31.00,36.24,1
32.00,36.08,1
41.00,35.89,1
32.00,35.77,1
37.00,35.67,1
33.00,35.56,1
39.00,35.48,1
36.00,35.45,1
40.00,35.51,1
36.00,35.64,1
31.00,35.74,1
38.00,35.76,1
32.00,35.74,1
41.00,35.72,1
31.00,35.73,1
46.00,35.78,1
31.00,35.92,1
41.00,36.06,1
30.00,36.16,1
47.00,36.27,1
33.00,36.44,1
54.00,36.76,1
32.00,37.21,1
52.00,37.73,1
31.00,38.26,1
46.00,38.72,1
31.00,39.06,1
42.00,39.27,1
30.00,39.33,1
31.00,39.16,1
32.00,38.77,1
38.00,38.28,1
30.00,37.79,1
35.00,37.26,1
37.00,36.76,1
32.00,36.33,1
38.00,35.95,1
45.00,35.74,1
49.00,35.87,1
31.00,36.21,1
37.00,36.50,1
34.00,36.66,1
46.00,36.82,1
40.00,37.09,1
54.00,37.56,1
31.00,38.16,1
54.00,38.75,1
31.00,39.33,1
47.00,39.82,1
33.00,40.18,1
37.00,40.36,1
31.00,40.30,1
47.00,40.13,1
33.00,39.98,1
43.00,39.84,1
31.00,39.65,1
44.00,39.43,1
31.00,39.19,1
34.00,38.88,1
31.00,38.42,1
38.00,37.92,1
34.00,37.44,1
33.00,36.99,1
41.00,36.59,1
36.00,36.33,1
38.00,36.17,1
30.00,36.03,1
41.00,35.88,1
31.00,35.77,1
38.00,35.66,1
40.00,35.62,1
44.00,35.74,1
40.00,36.04,1
51.00,36.53,1
30.00,37.12,1
54.00,37.70,1
32.00,38.30,1
39.00,38.79,1
32.00,39.06,1
44.00,39.18,1
31.00,39.23,1
51.00,39.26,1
32.00,39.35,1
36.00,39.37,1
36.00,39.24,1
46.00,39.11,1
36.00,39.08,1
37.00,39.05,1
31.00,38.90,1
31.00,38.57,1
31.00,38.07,1
33.00,37.47,1
35.00,36.87,1
31.00,36.30,1
32.00,35.74,1
36.00,35.21,1
45.00,34.87,1
31.00,34.77,1
50.00,34.83,1
36.00,35.11,1
37.00,35.47,1
31.00,35.74,1
50.00,36.00,1
31.00,36.34,1
49.00,36.73,1
31.00,37.13,1
56.00,37.59,1
47.00,38.26,1
51.00,39.18,1
30.00,40.06,1
34.00,40.60,1
33.00,40.75,1
57.00,40.81,1
32.00,40.99,1
42.00,41.12,1
35.00,41.10,1
42.00,41.00,1
34.00,40.84,1
41.00,40.61,1
31.00,40.31,1
53.00,40.04,1
31.00,39.90,1
38.00,39.74,1
33.00,39.46,1
33.00,39.08,1
34.00,38.60,1
37.00,38.09,1
47.00,37.73,1
32.00,37.56,1
45.00,37.47,1
30.00,37.43,1
44.00,37.38,1
39.00,37.41,1
47.00,37.60,1
33.00,37.87,1
52.00,38.18,1
32.00,38.56,1
49.00,38.93,1
31.00,39.26,1
51.00,39.55,1
32.00,39.83,1
45.00,40.04,1
31.00,40.15,1
46.00,40.16,1
32.00,40.13,1
44.00,40.05,1
32.00,39.92,1
42.00,39.75,1
34.00,39.54,1
42.00,39.33,1
32.00,39.11,1
40.00,38.86,1
35.00,38.59,1
34.00,38.31,1
31.00,37.93,1
35.00,37.48,1
36.00,37.02,1
30.00,36.59,1
39.00,36.16,1
31.00,35.79,1
48.00,35.56,1
42.00,35.61,1
36.00,35.86,1
42.00,36.15,1
48.00,36.56,1
41.00,37.15,1
54.00,37.89,1
32.00,38.69,1
45.00,39.37,1
34.00,39.87,1
46.00,40.25,1
31.00,40.50,1
53.00,40.69,1
34.00,40.90,1
48.00,41.10,1
30.00,41.22,1
38.00,41.15,1
30.00,40.87,1
45.00,40.48,1
30.00,40.09,1
35.00,39.63,1
42.00,39.14,1
43.00,38.81,1
35.00,38.62,1
33.00,38.41,1
34.00,38.10,1
40.00,37.77,1
42.00,37.55,1
36.00,37.47,1
46.00,37.50,1
53.00,37.77,1
38.00,38.30,1
30.00,38.75,1
51.00,39.04,1
31.00,39.32,1
49.00,39.57,1
35.00,39.81,1
84.00,40.35,1
38.00,41.42,1
56.00,42.64,1
51.00,43.82,1
48.00,44.97,1
33.00,45.85,1
52.00,46.38,1
31.00,46.63,1
41.00,46.56,1
31.00,46.17,1
49.00,45.60,1
31.00,44.98,1
58.00,44.42,1
31.00,43.99,1
37.00,43.51,1
30.00,42.82,1
30.00,41.93,1
43.00,40.97,1
32.00,40.11,1
46.00,39.39,1
35.00,38.86,1
41.00,38.47,1
31.00,38.12,1
38.00,37.76,1
37.00,37.43,1
62.00,37.38,1
30.00,37.68,1
64.00,38.20,1
35.00,38.93,1
64.00,39.82,1
42.00,40.89,1
59.00,42.06,1
39.00,43.20,1
56.00,44.23,1
40.00,45.14,1
50.00,45.87,1
32.00,46.33,1
49.00,46.49,1
35.00,46.44,1
56.00,46.31,1
31.00,46.16,1
60.00,45.98,1
33.00,45.85,1
54.00,45.72,1
32.00,45.54,1
32.00,45.14,1
35.00,44.42,1
33.00,43.52,1
40.00,42.57,1
36.00,41.67,1
45.00,40.90,1
31.00,40.26,1
53.00,39.77,1
32.00,39.48,1
62.00,39.43,1
43.00,39.75,1
62.00,40.40,1
41.00,41.29,1
72.00,42.38,1
45.00,43.71,1
63.00,45.14,1
54.00,46.59,1
65.00,48.11,1
39.00,49.51,1
85.00,50.83,1
43.00,52.23,1
60.00,53.48,1
32.00,54.27,1
61.00,54.60,1
32.00,54.59,1
32.00,54.07,1
42.00,53.03,1
52.00,51.88,1
40.00,50.83,1
33.00,49.71,1
39.00,48.42,1
47.00,47.14,1
38.00,46.03,1
31.00,44.93,1
56.00,43.90,1
34.00,43.13,1
43.00,42.50,1
32.00,41.87,1
53.00,41.33,1
37.00,41.00,1
60.00,40.94,1
39.00,41.16,1
73.00,41.72,1
40.00,42.62,1
80.00,43.82,1
48.00,45.34,1
62.00,46.96,1
31.00,48.32,1
75.00,49.40,1
34.00,50.36,1
52.00,51.04,1
31.00,51.26,1
56.00,51.14,1
41.00,50.87,1
67.00,50.68,1
31.00,50.57,1
49.00,50.27,1
34.00,49.74,1
35.00,48.94,1
33.00,47.85,1
31.00,46.52,1
39.00,45.09,1
30.00,43.65,1
37.00,42.24,1
33.00,40.91,1
36.00,39.69,1
30.00,38.56,1
42.00,37.58,1
31.00,36.78,1
42.00,36.17,1
30.00,35.71,1
57.00,35.49,1
32.00,35.60,1
49.00,35.92,1
37.00,36.35,1
55.00,36.95,1
33.00,37.67,1
51.00,38.40,1
31.00,39.05,1
64.00,39.72,1
31.00,40.49,1
45.00,41.14,1
30.00,41.53,1
39.00,41.64,1
31.00,41.50,1
48.00,41.25,1
35.00,41.04,1
42.00,40.84,1
33.00,40.60,1
33.00,40.23,1
32.00,39.71,1
30.00,39.05,1
40.00,38.35,1
32.00,37.72,1
36.00,37.15,1
31.00,36.61,1
42.00,36.14,1
34.00,35.82,1
58.00,35.79,1
33.00,36.09,1
63.00,36.66,1
66.00,37.75,1
63.00,39.45,1
32.00,41.29,1
46.00,42.75,1
34.00,43.76,1
50.00,44.43,1
31.00,44.84,1
50.00,45.01,1
41.00,45.07,1
53.00,45.15,1
32.00,45.20,1
64.00,45.24,1
31.00,45.36,1
45.00,45.36,1
34.00,45.14,1
46.00,44.79,1
41.00,44.43,1
32.00,44.00,1
35.00,43.38,1
32.00,42.59,1
38.00,41.71,1
33.00,40.83,1
49.00,40.07,1
36.00,39.55,1
49.00,39.26,1
32.00,39.10,1
53.00,39.07,1
34.00,39.17,1
53.00,39.40,1
32.00,39.69,1
53.00,40.00,1
34.00,40.34,1
56.00,40.72,1
32.00,41.14,1
40.00,41.42,1
32.00,41.46,1
44.00,41.33,1
35.00,41.16,1
49.00,41.01,1
31.00,40.90,1
43.00,40.73,1
38.00,40.54,1
44.00,40.41,1
35.00,40.30,1
50.00,40.24,1
31.00,40.23,1
33.00,40.10,1
31.00,39.72,1
35.00,39.20,1
42.00,38.69,1
33.00,38.27,1
41.00,37.93,1
35.00,37.65,1
36.00,37.41,1
31.00,37.13,1
41.00,36.84,1
31.00,36.59,1
59.00,36.53,1
39.00,36.83,1
65.00,37.51,1
56.00,38.65,1
66.00,40.24,1
44.00,42.05,1
72.00,43.90,1
32.00,45.67,1
66.00,47.18,1
36.00,48.42,1
51.00,49.32,1
35.00,49.81,1
52.00,49.97,1
34.00,49.86,1
45.00,49.50,1
32.00,48.87,1
56.00,48.14,1
33.00,47.46,1
37.00,46.68,1
34.00,45.71,1
31.00,44.59,1
38.00,43.38,1
31.00,42.16,1
31.00,40.92,1
30.00,39.65,1
59.00,38.61,1
31.00,38.02,1
46.00,37.70,1
33.00,37.49,1
39.00,37.35,1
34.00,37.20,1
36.00,37.04,1
36.00,36.87,1
62.00,36.92,1
32.00,37.33,1
52.00,37.87,1
32.00,38.43,1
36.00,38.83,1
43.00,39.07,1
58.00,39.45,1
30.00,40.00,1
70.00,40.65,1
31.00,41.46,1
46.00,42.17,1
31.00,42.60,1
57.00,42.88,1
31.00,43.12,1
37.00,43.18,1
31.00,42.91,1
41.00,42.45,1
36.00,41.93,1
31.00,41.34,1
31.00,40.59,1
35.00,39.74,1
40.00,38.94,1
40.00,38.33,1
42.00,37.94,1
33.00,37.68,1
57.00,37.61,1
32.00,37.79,1
34.00,37.96,1
34.00,37.94,1
53.00,37.95,1
44.00,38.23,1
42.00,38.69,1
37.00,39.13,1
44.00,39.49,1
32.00,39.75,1
60.00,40.03,1
36.00,40.47,1
51.00,40.98,1
34.00,41.43,1
32.00,41.65,1
33.00,41.53,1
52.00,41.31,1
31.00,41.16,1
44.00,40.99,1
31.00,40.75,1
48.00,40.49,1
31.00,40.26,1
53.00,40.11,1
34.00,40.07,1
38.00,40.04,1
35.00,39.89,1
30.00,39.59,1
45.00,39.22,1
34.00,38.91,1
42.00,38.66,1
33.00,38.45,1
45.00,38.28,1
34.00,38.19,1
50.00,38.20,1
39.00,38.37,1
50.00,38.71,1
34.00,39.11,1
71.00,39.69,1
32.00,40.53,1
64.00,41.48,1
36.00,42.44,1
59.00,43.38,1
36.00,44.23,1
46.00,44.88,1
36.00,45.25,1
48.00,45.39,1
34.00,45.38,1
42.00,45.17,1
32.00,44.76,1
31.00,44.09,1
30.00,43.16,1
44.00,42.13,1
30.00,41.18,1
34.00,40.24,1
44.00,39.37,1
31.00,38.67,1
36.00,38.03,1
35.00,37.43,1
45.00,36.98,1
30.00,36.70,1
54.00,36.59,1
33.00,36.71,1
61.00,37.08,1
36.00,37.72,1
61.00,38.57,1
32.00,39.50,1
44.00,40.31,1
35.00,40.87,1
59.00,41.37,1
33.00,41.92,1
53.00,42.43,1
31.00,42.82,1
69.00,43.21,1
33.00,43.76,1
52.00,44.27,1
31.00,44.58,1
41.00,44.63,1
31.00,44.38,1
42.00,43.92,1
33.00,43.33,1
34.00,42.63,1
37.00,41.83,1
43.00,41.09,1
35.00,40.47,1
33.00,39.87,1
31.00,39.19,1
31.00,38.41,1
47.00,37.71,1
37.00,37.27,1
52.00,37.13,1
42.00,37.31,1
56.00,37.79,1
43.00,38.55,1
49.00,39.42,1
40.00,40.28,1
72.00,41.26,1
37.00,42.46,1
67.00,43.74,1
40.00,45.00,1
66.00,46.24,1
41.00,47.40,1
74.00,48.56,1
40.00,49.72,1
62.00,50.75,1
33.00,51.48,1
73.00,52.00,1
31.00,52.40,1
59.00,52.59,1
32.00,52.48,1
57.00,52.15,1
33.00,51.66,1
34.00,50.87,1
32.00,49.69,1
354.00,50.89,1
52.00,56.63,1
515.00,67.14,1
68.00,82.36,1
421.00,100.08,1
152.00,119.03,1
420.00,138.94,1
256.00,159.77,1
366.00,181.10,1
670.00,204.98,1
268.00,232.63,1
558.00,260.59,1
238.00,286.62,1
731.00,311.50,1
206.00,335.86,1
648.00,358.08,1
177.00,377.01,1
336.00,389.97,1
144.00,395.10,1
482.00,395.11,1
115.00,392.19,1
418.00,386.36,1
96.00,377.82,1
224.00,365.76,1
92.00,349.80,1
41.00,329.84,1
60.00,305.62,1
308.00,280.98,1
50.00,258.96,1
40.00,237.35,1
35.00,214.47,1
37.00,191.21,1
40.00,168.44,1
34.00,146.82,1
81.00,127.11,1
37.00,109.85,1
44.00,94.75,1
35.00,81.46,1
39.00,69.94,1
31.00,60.06,1
65.00,51.94,1
50.00,45.79,1
53.00,41.40,1
54.00,38.42,1
65.00,36.76,1
39.00,36.12,1
55.00,36.08,1
41.00,36.42,1
61.00,37.11,1
43.00,38.11,1
67.00,39.37,1
35.00,40.79,1
67.00,42.20,1
33.00,43.55,1
57.00,44.71,1
30.00,45.57,1
54.00,46.13,1
36.00,46.47,1
47.00,46.62,1
31.00,46.52,1
40.00,46.14,1
37.00,45.55,1
37.00,44.85,1
34.00,44.02,1
33.00,43.08,1
44.00,42.13,1
40.00,41.35,1
52.00,40.84,1
37.00,40.60,1
44.00,40.48,1
38.00,40.39,1
58.00,40.47,1
42.00,40.81,1
64.00,41.42,1
55.00,42.38,1
65.00,43.68,1
38.00,45.07,1
43.00,46.16,1
40.00,46.81,1
44.00,47.14,1
31.00,47.15,1
46.00,46.85,1
30.00,46.34,1
39.00,45.62,1
32.00,44.72,1
55.00,43.86,1
31.00,43.19,1
54.00,42.66,1
31.00,42.26,1
39.00,41.83,1
40.00,41.36,1
40.00,40.94,1
34.00,40.55,1
32.00,40.07,1
42.00,39.53,1
37.00,39.08,1
46.00,38.79,1
38.00,38.66,1
53.00,38.74,1
41.00,39.04,1
48.00,39.49,1
32.00,39.93,1
61.00,40.37,1
35.00,40.93,1
71.00,41.67,1
32.00,42.58,1
74.00,43.59,1
49.00,44.81,1
55.00,46.13,1
30.00,47.17,1
39.00,47.67,1
31.00,47.63,1
48.00,47.25,1
32.00,46.71,1
46.00,46.07,1
35.00,45.37,1
37.00,44.60,1
43.00,43.80,1
38.00,43.08,1
32.00,42.35,1
31.00,41.50,1
30.00,40.50,1
38.00,39.47,1
35.00,38.55,1
35.00,37.76,1
41.00,37.11,1
55.00,36.82,1
48.00,37.02,1
31.00,37.46,1
38.00,37.78,1
32.00,37.92,1
55.00,38.08,1
36.00,38.40,1
53.00,38.87,1
31.00,39.37,1
45.00,39.78,1
43.00,40.12,1
59.00,40.63,1
33.00,41.28,1
49.00,41.85,1
31.00,42.23,1
42.00,42.39,1
32.00,42.33,1
37.00,42.06,1
31.00,41.59,1
50.00,41.10,1
34.00,40.73,1
37.00,40.38,1
38.00,39.99,1
31.00,39.56,1
34.00,39.03,1
33.00,38.43,1
31.00,37.79,1
32.00,37.10,1
36.00,36.43,1
34.00,35.86,1
36.00,35.39,1
30.00,35.00,1
38.00,34.64,1
30.00,34.36,1
40.00,34.14,1
32.00,34.02,1
36.00,33.97,1
32.00,33.92,1
41.00,33.94,1
31.00,34.02,1
40.00,34.14,1
30.00,34.27,1
42.00,34.41,1
30.00,34.57,1
40.00,34.72,1
32.00,34.86,1
41.00,35.01,1
33.00,35.19,1
40.00,35.37,1
34.00,35.56,1
33.00,35.69,1
34.00,35.71,1
40.00,35.72,1
34.00,35.77,1
35.00,35.80,1
35.00,35.79,1
34.00,35.75,1
35.00,35.68,1
34.00,35.59,1
35.00,35.48,1
34.00,35.36,1
35.00,35.25,1
34.00,35.14,1
34.00,35.02,1
34.00,34.90,1
35.00,34.79,1
33.00,34.68,1
35.00,34.58,1
34.00,34.49,1
37.00,34.44,1
32.00,34.42,1
40.00,34.44,1
34.00,34.51,1
34.00,34.60,1
34.00,34.65,1
37.00,34.69,1
33.00,34.74,1
36.00,34.78,1
33.00,34.80,1
38.00,34.82,1
34.00,34.87,1
35.00,34.92,1
34.00,34.94,1
35.00,34.94,1
34.00,34.93,1
34.00,34.90,1
35.00,34.85,1
33.00,34.80,1
37.00,34.75,1
33.00,34.72,1
35.00,34.68,1
34.00,34.65,1
35.00,34.61,1
34.00,34.59,1
36.00,34.57,1
33.00,34.56,1
37.00,34.56,1
33.00,34.58,1
36.00,34.60,1
34.00,34.61,1
34.00,34.62,1
34.00,34.61,1
35.00,34.59,1
35.00,34.58,1
34.00,34.58,1
35.00,34.57,1
36.00,34.58,1
33.00,34.60,1
36.00,34.62,1
34.00,34.63,1
36.00,34.66,1
35.00,34.69,1
38.00,34.76,1
35.00,34.88,1
34.00,34.98,1
34.00,35.04,1
33.00,35.04,1
36.00,35.00,1
33.00,34.96,1
36.00,34.91,1
34.00,34.87,1
38.00,34.86,1
33.00,34.88,1
34.00,34.88,1
33.00,34.84,1
36.00,34.78,1
32.00,34.72,1
38.00,34.66,1
32.00,34.63,1
39.00,34.63,1
34.00,34.67,1
37.00,34.75,1
33.00,34.82,1
36.00,34.88,1
34.00,34.92,1
38.00,34.96,1
34.00,35.03,1
36.00,35.10,1
33.00,35.14,1
36.00,35.15,1
34.00,35.15,1
36.00,35.14,1
35.00,35.14,1
35.00,35.14,1
34.00,35.12,1
34.00,35.09,1
35.00,35.03,1
32.00,34.95,1
36.00,34.85,1
32.00,34.75,1
40.00,34.68,1
31.00,34.66,1
42.00,34.70,1
33.00,34.80,1
41.00,34.95,1
32.00,35.13,1
41.00,35.32,1
33.00,35.50,1
37.00,35.66,1
34.00,35.77,1
42.00,35.88,1
34.00,36.03,1
46.00,36.25,1
34.00,36.54,1
39.00,36.82,1
31.00,36.99,1
38.00,37.05,1
32.00,37.02,1
38.00,36.93,1
36.00,36.83,1
34.00,36.73,1
38.00,36.61,1
31.00,36.47,1
35.00,36.28,1
34.00,36.05,1
37.00,35.84,1
35.00,35.68,1
37.00,35.57,1
31.00,35.46,1
37.00,35.33,1
31.00,35.19,1
35.00,35.03,1
32.00,34.85,1
48.00,34.77,1
32.00,34.89,1
41.00,35.08,1
32.00,35.28,1
36.00,35.43,1
32.00,35.50,1
35.00,35.49,1
32.00,35.42,1
41.00,35.35,1
31.00,35.33,1
41.00,35.33,1
31.00,35.36,1
39.00,35.38,1
32.00,35.40,1
40.00,35.42,1
32.00,35.46,1
35.00,35.46,1
35.00,35.42,1
34.00,35.37,1
34.00,35.30,1
36.00,35.21,1
33.00,35.14,1
34.00,35.04,1
35.00,34.93,1
33.00,34.82,1
38.00,34.74,1
34.00,34.71,1
37.00,34.72,1
32.00,34.74,1
38.00,34.76,1
34.00,34.79,1
35.00,34.83,1
31.00,34.83,1
38.00,34.79,1
32.00,34.76,1
35.00,34.72,1
33.00,34.66,1
36.00,34.59,1
34.00,34.55,1
37.00,34.54,1
35.00,34.58,1
36.00,34.64,1
34.00,34.71,1
35.00,34.77,1
32.00,34.78,1
37.00,34.77,1
34.00,34.76,1
33.00,34.75,1
34.00,34.70,1
34.00,34.63,1
34.00,34.56,1
34.00,34.49,1
34.00,34.41,1
34.00,34.34,1
34.00,34.28,1
36.00,34.24,1
35.00,34.24,1
34.00,34.27,1
35.00,34.30,1
34.00,34.32,1
34.00,34.34,1
33.00,34.34,1
34.00,34.31,1
34.00,34.26,1
34.00,34.22,1
34.00,34.18,1
35.00,34.16,1
35.00,34.16,1
36.00,34.19,1
36.00,34.27,1
34.00,34.37,1
35.00,34.46,1
35.00,34.54,1
34.00,34.60,1
35.00,34.65,1
35.00,34.69,1
35.00,34.73,1
34.00,34.76,1
35.00,34.77,1
35.00,34.78,1
36.00,34.81,1
34.00,34.84,1
34.00,34.85,1
35.00,34.84,1
35.00,34.83,1
34.00,34.82,1
35.00,34.80,1
35.00,34.79,1
34.00,34.77,1
35.00,34.75,1
35.00,34.74,1
35.00,34.74,1
34.00,34.74,1
34.00,34.72,1
34.00,34.68,1
35.00,34.64,1
35.00,34.61,1
35.00,34.60,1
34.00,34.60,1
36.00,34.60,1
34.00,34.62,1
36.00,34.64,1
33.00,34.67,1
35.00,34.67,1
35.00,34.67,1
34.00,34.67,1
34.00,34.65,1
35.00,34.63,1
34.00,34.61,1
34.00,34.58,1
35.00,34.55,1
34.00,34.52,1
34.00,34.49,1
34.00,34.45,1
34.00,34.41,1
34.00,34.36,1
36.00,34.33,1
34.00,34.33,1
36.00,34.35,1
34.00,34.39,1
35.00,34.43,1
35.00,34.47,1
36.00,34.53,1
36.00,34.61,1
34.00,34.71,1
34.00,34.77,1
37.00,34.82,1
34.00,34.88,1
35.00,34.93,1
34.00,34.95,1
36.00,34.96,1
35.00,34.98,1
34.00,34.99,1
36.00,35.00,1
33.00,34.99,1
36.00,34.97,1
35.00,34.95,1
34.00,34.94,1
35.00,34.92,1
36.00,34.91,1
32.00,34.89,1
37.00,34.86,1
32.00,34.82,1
37.00,34.78,1
34.00,34.76,1
36.00,34.76,1
32.00,34.75,1
39.00,34.74,1
33.00,34.77,1
37.00,34.82,1
33.00,34.86,1
38.00,34.90,1
33.00,34.95,1
40.00,35.03,1
34.00,35.14,1
36.00,35.26,1
33.00,35.33,1
39.00,35.38,1
31.00,35.42,1
37.00,35.42,1
32.00,35.39,1
42.00,35.37,1
32.00,35.41,1
35.00,35.44,1
37.00,35.43,1
32.00,35.43,1
39.00,35.41,1
31.00,35.39,1
37.00,35.34,1
31.00,35.26,1
39.00,35.18,1
33.00,35.12,1
32.00,35.05,1
32.00,34.90,1
40.00,34.76,1
32.00,34.70,1
39.00,34.68,1
33.00,34.71,1
36.00,34.75,1
32.00,34.76,1
42.00,34.79,1
33.00,34.90,1
38.00,35.03,1
31.00,35.13,1
36.00,35.17,1
36.00,35.19,1
38.00,35.24,1
34.00,35.33,1
36.00,35.40,1
35.00,35.44,1
33.00,35.46,1
36.00,35.43,1
31.00,35.36,1
34.00,35.23,1
34.00,35.06,1
34.00,34.90,1
33.00,34.74,1
42.00,34.64,1
32.00,34.66,1
40.00,34.73,1
31.00,34.82,1
40.00,34.91,1
31.00,35.00,1
43.00,35.11,1
31.00,35.25,1
34.00,35.35,1
32.00,35.33,1
35.00,35.25,1
31.00,35.13,1
39.00,34.99,1
32.00,34.90,1
43.00,34.88,1
32.00,34.95,1
39.00,35.06,1
34.00,35.17,1
34.00,35.26,1
33.00,35.28,1
34.00,35.23,1
31.00,35.12,1
33.00,34.94,1
34.00,34.74,1
34.00,34.55,1
36.00,34.40,1
34.00,34.31,1
39.00,34.29,1
33.00,34.34,1
45.00,34.48,1
31.00,34.72,1
41.00,34.98,1
31.00,35.21,1
38.00,35.39,1
30.00,35.48,1
47.00,35.58,1
31.00,35.76,1
43.00,35.97,1
31.00,36.17,1
38.00,36.30,1
30.00,36.33,1
40.00,36.30,1
32.00,36.24,1
37.00,36.17,1
33.00,36.07,1
40.00,35.98,1
33.00,35.93,1
36.00,35.88,1
40.00,35.85,1
34.00,35.88,1
33.00,35.89,1
32.00,35.79,1
37.00,35.65,1
33.00,35.51,1
38.00,35.39,1
34.00,35.31,1
46.00,35.34,1
31.00,35.50,1
44.00,35.70,1
31.00,35.91,1
44.00,36.13,1
31.00,36.34,1
31.00,36.43,1
31.00,36.31,1
68.00,36.35,1
31.00,36.82,1
42.00,37.38,1
31.00,37.78,1
42.00,38.04,1
32.00,38.19,1
44.00,38.29,1
32.00,38.35,1
35.00,38.31,1
31.00,38.11,1
54.00,37.95,1
32.00,37.98,1
31.00,37.99,1
37.00,37.82,1
31.00,37.56,1
31.00,37.20,1
33.00,36.74,1
41.00,36.31,1
32.00,36.00,1
44.00,35.81,1
32.00,35.73,1
40.00,35.72,1
31.00,35.71,1
35.00,35.65,1
31.00,35.52,1
41.00,35.39,1
31.00,35.31,1
39.00,35.25,1
31.00,35.20,1
42.00,35.18,1
31.00,35.21,1
44.00,35.29,1
31.00,35.43,1
48.00,35.63,1
31.00,35.91,1
43.00,36.21,1
34.00,36.48,1
40.00,36.73,1
32.00,36.91,1
34.00,36.97,1
31.00,36.88,1
36.00,36.68,1
34.00,36.44,1
33.00,36.20,1
32.00,35.90,1
34.00,35.57,1
42.00,35.32,1
31.00,35.20,1
52.00,35.23,1
31.00,35.46,1
33.00,35.68,1
32.00,35.73,1
44.00,35.76,1
31.00,35.84,1
46.00,35.98,1
30.00,36.16,1
49.00,36.38,1
32.00,36.67,1
57.00,37.08,1
32.00,37.63,1
43.00,38.17,1
32.00,38.55,1
43.00,38.81,1
31.00,38.95,1
47.00,39.03,1
35.00,39.12,1
38.00,39.18,1
35.00,39.13,1
38.00,39.01,1
35.00,38.84,1
47.00,38.70,1
39.00,38.71,1
34.00,38.74,1
42.00,38.73,1
32.00,38.67,1
38.00,38.54,1
32.00,38.32,1
36.00,38.03,1
33.00,37.68,1
59.00,37.51,1
31.00,37.63,1
42.00,37.84,1
32.00,37.95,1
32.00,37.93,1
34.00,37.73,1
33.00,37.43,1
30.00,37.04,1
42.00,36.64,1
32.00,36.33,1
44.00,36.13,1
33.00,36.05,1
59.00,36.19,1
31.00,36.61,1
40.00,37.05,1
31.00,37.33,1
39.00,37.48,1
34.00,37.53,1
41.00,37.55,1
34.00,37.57,1
34.00,37.52,1
32.00,37.35,1
30.00,37.04,1
39.00,36.66,1
34.00,36.34,1
41.00,36.12,1
50.00,36.13,1
47.00,36.49,1
37.00,37.06,1
54.00,37.72,1
34.00,38.45,1
51.00,39.17,1
31.00,39.79,1
37.00,40.19,1
37.00,40.35,1
57.00,40.51,1
39.00,40.88,1
62.00,41.43,1
31.00,42.08,1
34.00,42.49,1
32.00,42.48,1
45.00,42.24,1
40.00,42.01,1
30.00,41.72,1
34.00,41.23,1
103.00,41.16,1
31.00,41.97,1
44.00,42.93,1
36.00,43.53,1
44.00,43.86,1
35.00,43.97,1
40.00,43.88,1
37.00,43.61,1
47.00,43.29,1
35.00,43.00,1
36.00,42.61,1
60.00,42.29,1
33.00,42.21,1
58.00,42.28,1
48.00,42.56,1
50.00,43.05,1
40.00,43.55,1
36.00,43.87,1
52.00,44.01,1
32.00,44.09,1
31.00,43.91,1
56.00,43.55,1
43.00,43.38,1
46.00,43.37,1
42.00,43.39,1
50.00,43.46,1
37.00,43.55,1
31.00,43.47,1
33.00,43.06,1
39.00,42.45,1
33.00,41.77,1
39.00,41.07,1
31.00,40.35,1
42.00,39.65,1
40.00,39.09,1
33.00,38.65,1
66.00,38.46,1
34.00,38.69,1
34.00,38.98,1
35.00,39.04,1
36.00,38.95,1
30.00,38.73,1
69.00,38.64,1
50.00,39.10,1
45.00,39.93,1
32.00,40.66,1
50.00,41.18,1
31.00,41.56,1
42.00,41.75,1
31.00,41.72,1
70.00,41.76,1
32.00,42.08,1
53.00,42.48,1
130.00,43.60,1
48.00,46.01,1
33.00,48.45,1
40.00,49.98,1
42.00,50.77,1
97.00,51.51,1
34.00,52.61,1
44.00,53.44,1
44.00,53.67,1
39.00,53.49,1
32.00,52.85,1
44.00,51.83,1
45.00,50.71,1
43.00,49.64,1
60.00,48.77,1
61.00,48.35,1
31.00,48.19,1
42.00,47.84,1
32.00,47.20,1
34.00,46.32,1
84.00,45.64,1
32.00,45.55,1
74.00,45.80,1
77.00,46.60,1
66.00,48.12,1
80.00,50.07,1
46.00,52.14,1
41.00,53.75,1
60.00,54.75,1
88.00,55.76,1
69.00,57.20,1
224.00,60.15,1
34.00,64.97,1
68.00,69.46,1
44.00,72.33,1
37.00,73.70,1
86.00,74.00,1
40.00,73.82,1
260.00,74.78,1
38.00,78.00,1
32.00,80.90,1
31.00,81.55,1
32.00,80.37,1
42.00,77.95,1
35.00,74.78,1
41.00,71.16,1
36.00,67.32,1
42.00,63.46,1
40.00,59.74,1
45.00,56.33,1
31.00,53.20,1
63.00,50.46,1
47.00,48.41,1
35.00,46.83,1
31.00,45.31,1
37.00,43.76,1
46.00,42.39,1
49.00,41.42,1
39.00,40.82,1
50.00,40.48,1
32.00,40.29,1
47.00,40.15,1
31.00,40.02,1
46.00,39.87,1
31.00,39.71,1
45.00,39.54,1
40.00,39.44,1
37.00,39.40,1
31.00,39.26,1
31.00,38.93,1
32.00,38.43,1
36.00,37.85,1
32.00,37.29,1
39.00,36.78,1
41.00,36.42,1
31.00,36.20,1
56.00,36.15,1
44.00,36.46,1
39.00,37.00,1
42.00,37.55,1
40.00,38.06,1
32.00,38.47,1
57.00,38.84,1
31.00,39.30,1
42.00,39.68,1
32.00,39.88,1
57.00,40.05,1
31.00,40.32,1
50.00,40.59,1
31.00,40.80,1
44.00,40.89,1
31.00,40.85,1
54.00,40.79,1
30.00,40.79,1
39.00,40.71,1
36.00,40.50,1
43.00,40.27,1
31.00,40.02,1
38.00,39.70,1
40.00,39.35,1
49.00,39.17,1
38.00,39.19,1
31.00,39.20,1
42.00,39.09,1
31.00,38.91,1
49.00,38.76,1
32.00,38.69,1
31.00,38.55,1
36.00,38.25,1
39.00,37.93,1
33.00,37.64,1
46.00,37.43,1
46.00,37.44,1
51.00,37.78,1
31.00,38.27,1
56.00,38.78,1
31.00,39.32,1
67.00,39.96,1
33.00,40.76,1
33.00,41.39,1
43.00,41.68,1
32.00,41.77,1
31.00,41.59,1
37.00,41.17,1
32.00,40.62,1
38.00,40.00,1
38.00,39.42,1
36.00,38.91,1
32.00,38.41,1
35.00,37.88,1
59.00,37.55,1
33.00,37.60,1
55.00,37.88,1
59.00,38.52,1
41.00,39.49,1
99.00,40.91,1
50.00,43.04,1
46.00,45.26,1
78.00,47.26,1
40.00,49.23,1
72.00,51.00,1
65.00,52.71,1
74.00,54.55,1
31.00,56.16,1
68.00,57.21,1
58.00,57.98,1
36.00,58.47,1
43.00,58.33,1
118.00,58.29,1
46.00,59.01,1
34.00,59.63,1
40.00,59.40,1
57.00,58.67,1
32.00,57.71,1
127.00,57.12,1
31.00,57.41,1
46.00,57.67,1
108.00,57.87,1
34.00,58.56,1
175.00,60.05,1
115.00,63.36,1
211.00,68.85,1
174.00,76.63,1
290.00,87.07,1
164.00,99.73,1
391.00,114.40,1
162.00,130.98,1
455.00,148.91,1
313.00,169.07,1
375.00,190.80,1
56.00,210.27,1
284.00,224.49,1
192.00,234.60,1
479.00,244.02,1
333.00,255.39,1
292.00,267.46,1
35.00,275.61,1
120.00,276.71,1
83.00,271.40,1
106.00,261.66,1
67.00,248.61,1
68.00,233.02,1
216.00,216.92,1
37.00,201.95,1
297.00,188.75,1
105.00,178.58,1
254.00,171.23,1
266.00,167.24,1
195.00,166.81,1
176.00,167.84,1
422.00,171.12,1
231.00,178.28,1
516.00,189.42,1
596.00,207.10,1
469.00,231.74,1
324.00,258.18,1
385.00,282.17,1
490.00,304.16,1
415.00,325.52,1
327.00,344.61,1
275.00,358.83,1
233.00,366.94,1
463.00,370.88,1
350.00,374.09,1
323.00,376.44,1
157.00,375.31,1
187.00,368.72,1
133.00,357.05,1
195.00,341.75,1
158.00,324.46,1
36.00,305.07,1
258.00,284.26,1
102.00,264.45,1
278.00,246.77,1
147.00,231.84,1
295.00,220.00,1
166.00,211.21,1
364.00,205.74,1
177.00,203.63,1
419.00,204.71,1
182.00,208.69,1
464.00,215.13,1
358.00,225.10,1
447.00,238.71,1
358.00,254.47,1
408.00,271.02,1
431.00,287.94,1
369.00,304.83,1
342.00,320.08,1
451.00,333.52,1
236.00,344.94,1
442.00,353.50,1
208.00,359.27,1
343.00,361.71,1
123.00,360.01,1
47.00,352.06,1
65.00,336.65,1
90.00,315.97,1
88.00,292.57,1
98.00,268.05,1
192.00,244.51,1
168.00,223.91,1
250.00,207.31,1
212.00,195.11,1
158.00,186.27,1
293.00,180.18,1
275.00,178.02,1
295.00,179.91,1
254.00,184.68,1
354.00,191.79,1
262.00,200.99,1
415.00,212.04,1
295.00,224.93,1
475.00,239.55,1
306.00,255.56,1
492.00,272.38,1
378.00,289.95,1
280.00,306.34,1
315.00,319.00,1
331.00,328.33,1
229.00,334.52,1
219.00,336.46,1
85.00,333.04,1
246.00,324.70,1
180.00,313.85,1
102.00,301.07,1
33.00,284.85,1
70.00,265.05,1
233.00,244.57,1
65.00,225.89,1
393.00,210.47,1
305.00,201.33,1
438.00,199.66,1
247.00,203.54,1
242.00,209.46,1
301.00,215.55,1
317.00,222.66,1
239.00,230.39,1
279.00,237.53,1
291.00,244.10,1
306.00,250.65,1
338.00,257.61,1
394.00,265.78,1
324.00,275.19,1
237.00,283.82,1
255.00,289.67,1
313.00,293.30,1
230.00,295.53,1
279.00,296.14,1
189.00,294.89,1
232.00,291.54,1
158.00,286.08,1
118.00,277.98,1
122.00,266.88,1
164.00,253.99,1
481.00,243.50,1
80.00,237.44,1
199.00,231.92,1
130.00,225.08,1
228.00,218.10,1
183.00,211.95,1
157.00,206.47,1
339.00,202.39,1
192.00,201.08,1
322.00,202.06,1
302.00,205.55,1
324.00,211.74,1
307.00,219.83,1
344.00,229.31,1
306.00,239.71,1
466.00,251.47,1
237.00,264.27,1
212.00,274.78,1
265.00,281.31,1
413.00,286.52,1
472.00,293.96,1
120.00,302.09,1
247.00,306.23,1
127.00,305.40,1
88.00,299.45,1
98.00,288.32,1
81.00,273.33,1
183.00,256.51,1
58.00,239.44,1
38.00,221.33,1
87.00,202.03,1
43.00,182.80,1
195.00,165.18,1
125.00,150.96,1
131.00,139.92,1
297.00,132.57,1
290.00,131.06,1
244.00,134.81,1
311.00,142.22,1
433.00,153.88,1
294.00,169.87,1
500.00,189.02,1
150.00,209.25,1
209.00,226.03,1
276.00,238.28,1
159.00,247.32,1
213.00,252.70,1
276.00,255.54,1
336.00,258.35,1
274.00,262.05,1
382.00,266.68,1
150.00,271.20,1
216.00,273.08,1
147.00,271.53,1
216.00,267.38,1
92.00,260.94,1
38.00,251.03,1
125.00,237.61,1
38.00,222.24,1
142.00,206.03,1
222.00,191.40,1
216.00,180.58,1
280.00,174.09,1
111.00,170.72,1
180.00,168.15,1
251.00,166.60,1
230.00,167.46,1
298.00,170.92,1
96.00,175.55,1
52.00,177.73,1
335.00,177.94,1
296.00,180.63,1
240.00,186.33,1
202.00,192.60,1
206.00,198.02,1
288.00,203.05,1
304.00,209.15,1
262.00,216.44,1
177.00,223.14,1
88.00,226.64,1
81.00,225.40,1
52.00,219.42,1
38.00,209.44,1
166.00,197.39,1
110.00,185.66,1
87.00,174.51,1
259.00,164.75,1
292.00,159.31,1
194.00,158.49,1
213.00,160.02,1
164.00,162.38,1
104.00,164.13,1
168.00,164.51,1
124.00,164.01,1
151.00,162.90,1
290.00,162.59,1
53.00,163.45,1
309.00,164.54,1
304.00,167.97,1
200.00,174.29,1
278.00,181.46,1
231.00,189.07,1
238.00,196.69,1
233.00,203.75,1
281.00,210.51,1
49.00,215.66,1
109.00,216.49,1
132.00,213.25,1
229.00,208.68,1
126.00,204.23,1
117.00,199.05,1
81.00,192.18,1
134.00,184.04,1
93.00,175.41,1
138.00,166.85,1
37.00,158.19,1
190.00,149.69,1
60.00,142.23,1
195.00,136.03,1
116.00,131.51,1
249.00,129.32,1
164.00,129.80,1
117.00,131.64,1
201.00,133.63,1
328.00,137.73,1
331.00,146.10,1
739.00,162.00,1
257.00,185.79,1
186.00,209.62,1
211.00,227.72,1
392.00,242.20,1
307.00,255.96,1
217.00,268.06,1
137.00,275.65,1
149.00,277.58,1
250.00,275.48,1
198.00,271.78,1
185.00,266.84,1
67.00,259.51,1
76.00,248.61,1
118.00,234.89,1
50.00,219.70,1
220.00,204.52,1
37.00,190.58,1
99.00,176.95,1
35.00,162.94,1
98.00,149.09,1
89.00,136.29,1
227.00,126.23,1
34.00,119.18,1
197.00,113.95,1
257.00,111.87,1
44.00,112.89,1
122.00,113.79,1
240.00,115.07,1
199.00,118.91,1
128.00,124.23,1
234.00,129.86,1
205.00,136.48,1
200.00,143.99,1
258.00,152.07,1
182.00,160.63,1
250.00,169.03,1
207.00,177.19,1
130.00,184.08,1
118.00,188.07,1
170.00,189.33,1
164.00,189.14,1
220.00,188.69,1
200.00,188.75,1
178.00,189.15,1
192.00,189.38,1
103.00,188.80,1
141.00,186.57,1
39.00,182.19,1
78.00,175.30,1
80.00,166.54,1
94.00,157.13,1
186.00,148.53,1
347.00,143.82,1
93.00,143.50,1
305.00,145.47,1
185.00,149.50,1
211.00,154.94,1
271.00,161.21,1
215.00,168.65,1
184.00,176.05,1
232.00,182.59,1
137.00,188.01,1
172.00,191.50,1
137.00,192.94,1
250.00,193.39,1
243.00,194.61,1
67.00,195.74,1
142.00,194.38,1
198.00,191.48,1
96.00,188.18,1
98.00,183.47,1
73.00,176.82,1
38.00,168.27,1
33.00,157.70,1
35.00,145.62,1
126.00,133.52,1
93.00,123.06,1
116.00,114.57,1
58.00,107.50,1
127.00,101.54,1
83.00,96.92,1
65.00,93.17,1
151.00,90.25,1
182.00,89.57,1
218.00,92.14,1
198.00,97.78,1
195.00,105.56,1
240.00,114.83,1
239.00,125.66,1
378.00,138.79,1
305.00,154.90,1
180.00,171.71,1
246.00,186.34,1
227.00,198.73,1
105.00,208.23,1
245.00,214.16,1
80.00,217.18,1
240.00,217.62,1
34.00,215.65,1
71.00,210.13,1
59.00,200.92,1
50.00,189.18,1
105.00,176.18,1
125.00,163.66,1
124.00,152.69,1
34.00,142.67,1
182.00,133.44,1
133.00,126.39,1
127.00,121.62,1
245.00,119.21,1
80.00,119.20,1
110.00,119.51,1
221.00,120.09,1
226.00,122.99,1
248.00,128.74,1
192.00,136.45,1
79.00,143.67,1
138.00,148.46,1
155.00,151.38,1
411.00,155.71,1
105.00,162.77,1
133.00,168.98,1
214.00,172.95,1
127.00,175.94,1
160.00,177.58,1
149.00,177.87,1
36.00,176.30,1
187.00,172.64,1
54.00,167.99,1
49.00,161.74,1
178.00,154.38,1
124.00,148.04,1
39.00,142.18,1
73.00,135.31,1
196.00,128.76,1
185.00,124.91,1
237.00,124.49,1
154.00,126.74,1
207.00,130.47,1
208.00,135.43,1
152.00,141.13,1
232.00,146.93,1
300.00,154.07,1
216.00,163.05,1
179.00,172.00,1
226.00,179.73,1
168.00,186.27,1
253.00,191.81,1
105.00,196.13,1
177.00,198.20,1
136.00,198.12,1
262.00,197.38,1
403.00,199.06,1
296.00,205.03,1
131.00,212.08,1
278.00,217.34,1
71.00,220.43,1
206.00,220.66,1
246.00,219.57,1
69.00,217.82,1
71.00,213.07,1
115.00,205.05,1
87.00,195.40,1
103.00,184.86,1
143.00,174.32,1
102.00,164.61,1
176.00,156.10,1
214.00,150.00,1
301.00,147.87,1
226.00,149.95,1
304.00,155.35,1
92.00,161.99,1
269.00,167.93,1
132.00,173.20,1
266.00,178.07,1
160.00,182.70,1
286.00,187.38,1
285.00,193.15,1
260.00,200.38,1
125.00,206.95,1
333.00,212.06,1
206.00,217.17,1
207.00,221.75,1
40.00,223.37,1
93.00,220.37,1
176.00,214.16,1
286.00,208.41,1
68.00,203.89,1
123.00,198.22,1
94.00,190.72,1
97.00,182.09,1
131.00,172.97,1
94.00,164.07,1
135.00,155.64,1
56.00,147.57,1
43.00,138.96,1
70.00,129.57,1
148.00,120.89,1
183.00,114.84,1
239.00,112.66,1
190.00,114.31,1
224.00,118.73,1
196.00,125.04,1
158.00,132.09,1
396.00,140.58,1
155.00,151.50,1
234.00,162.57,1
368.00,173.82,1
578.00,189.43,1
321.00,210.35,1
314.00,232.03,1
375.00,251.78,1
115.00,268.20,1
153.00,277.97,1
94.00,280.45,1
32.00,276.09,1
48.00,265.30,1
319.00,251.98,1
83.00,239.88,1
274.00,229.02,1
836.00,225.33,1
64.00,231.82,1
836.00,244.09,1
264.00,261.94,1
145.00,279.32,1
109.00,288.62,1
295.00,291.54,1
384.00,293.06,1
70.00,293.89,1
427.00,292.65,1
353.00,292.61,1
66.00,292.81,1
229.00,289.17,1
89.00,281.89,1
157.00,271.67,1
277.00,260.54,1
364.00,252.37,1
234.00,248.10,1
48.00,243.92,1
254.00,237.51,1
227.00,231.24,1
342.00,227.51,1
234.00,226.60,1
299.00,227.59,1
136.00,228.82,1
74.00,227.53,1
204.00,223.09,1
102.00,217.12,1
301.00,211.26,1
729.00,211.73,1
127.00,220.81,1
159.00,229.85,1
120.00,233.78,1
256.00,234.40,1
164.00,233.70,1
63.00,230.77,1
676.00,228.91,1
148.00,232.87,1
297.00,238.65,1
459.00,245.06,1
45.00,252.29,1
112.00,254.89,1
259.00,252.82,1
40.00,248.39,1
149.00,240.86,1
73.00,230.60,1
104.00,218.50,1
283.00,206.74,1
236.00,198.45,1
183.00,193.33,1
126.00,189.07,1
125.00,184.21,1
35.00,177.81,1
124.00,169.71,1
197.00,161.90,1
169.00,156.30,1
70.00,151.88,1
44.00,146.42,1
144.00,139.92,1
165.00,134.47,1
151.00,131.03,1
169.00,129.36,1
301.00,130.33,1
336.00,135.88,1
307.00,146.21,1
310.00,159.66,1
288.00,174.63,1
198.00,189.17,1
191.00,201.20,1
214.00,210.25,1
191.00,216.87,1
225.00,221.51,1
324.00,225.69,1
348.00,231.48,1
36.00,236.95,1
77.00,237.31,1
33.00,231.56,1
89.00,221.47,1
186.00,209.74,1
37.00,198.01,1
185.00,186.23,1
86.00,175.19,1
35.00,164.26,1
56.00,152.29,1
139.00,140.52,1
197.00,131.31,1
166.00,125.75,1
65.00,122.28,1
51.00,118.47,1
70.00,113.62,1
156.00,109.05,1
311.00,107.68,1
116.00,110.44,1
194.00,114.98,1
383.00,121.94,1
45.00,131.52,1
180.00,139.85,1
368.00,147.95,1
352.00,159.73,1
146.00,173.48,1
188.00,185.06,1
224.00,193.92,1
209.00,201.23,1
61.00,205.95,1
209.00,207.16,1
268.00,207.41,1
296.00,209.33,1
182.00,212.52,1
112.00,214.30,1
112.00,212.87,1
108.00,208.43,1
158.00,202.20,1
129.00,195.35,1
38.00,187.45,1
39.00,177.29,1
75.00,165.28,1
94.00,153.03,1
88.00,141.56,1
133.00,131.50,1
70.00,123.01,1
146.00,115.95,1
214.00,111.51,1
161.00,110.56,1
68.00,111.17,1
114.00,111.35,1
382.00,113.40,1
170.00,119.87,1
364.00,129.77,1
221.00,142.23,1
218.00,155.45,1
360.00,168.76,1
229.00,182.93,1
310.00,196.96,1
171.00,209.53,1
288.00,219.93,1
252.00,228.81,1
174.00,235.98,1
160.00,239.90,1
406.00,242.38,1
89.00,245.02,1
117.00,244.72,1
186.00,240.63,1
120.00,234.62,1
58.00,226.32,1
173.00,215.91,1
52.00,204.64,1
86.00,192.33,1
34.00,178.77,1
47.00,164.18,1
146.00,149.94,1
180.00,138.44,1
32.00,129.58,1
109.00,121.48,1
283.00,115.71,1
257.00,115.22,1
154.00,118.93,1
314.00,125.07,1
159.00,133.36,1
297.00,142.91,1
319.00,154.30,1
316.00,168.16,1
137.00,182.13,1
310.00,194.17,1
304.00,205.66,1
280.00,217.50,1
298.00,228.91,1
194.00,238.85,1
215.00,245.93,1
176.00,249.82,1
230.00,251.09,1
240.00,250.99,1
89.00,249.23,1
127.00,244.17,1
243.00,237.12,1
93.00,229.75,1
264.00,222.28,1
105.00,215.26,1
64.00,207.25,1
57.00,196.72,1
96.00,184.49,1
34.00,171.43,1
186.00,158.73,1
92.00,147.95,1
68.00,138.48,1
99.00,129.42,1
113.00,121.38,1
55.00,114.40,1
87.00,107.88,1
92.00,102.02,1
165.00,97.80,1
113.00,95.78,1
158.00,95.61,1
184.00,97.39,1
109.00,100.76,1
106.00,104.18,1
158.00,107.30,1
218.00,111.42,1
105.00,116.63,1
45.00,120.65,1
59.00,121.83,1
248.00,122.08,1
110.00,123.72,1
147.00,125.97,1
40.00,127.18,1
46.00,126.16,1
32.00,122.59,1
45.00,117.13,1
34.00,110.39,1
36.00,102.87,1
34.00,94.90,1
36.00,86.88,1
52.00,79.20,1
32.00,72.16,1
34.00,65.67,1
50.00,59.81,1
47.00,54.87,1
30.00,50.74,1
34.00,47.09,1
33.00,43.85,1
55.00,41.21,1
42.00,39.38,1
60.00,38.33,1
43.00,37.96,1
52.00,38.06,1
66.00,38.64,1
66.00,39.87,1
35.00,41.42,1
70.00,42.92,1
41.00,44.44,1
42.00,45.72,1
33.00,46.49,1
60.00,46.93,1
50.00,47.39,1
42.00,47.84,1
32.00,47.98,1
33.00,47.64,1
31.00,46.86,1
35.00,45.80,1
33.00,44.58,1
31.00,43.26,1
33.00,41.89,1
33.00,40.54,1
36.00,39.28,1
31.00,38.16,1
38.00,37.16,1
37.00,36.37,1
49.00,35.89,1
33.00,35.74,1
42.00,35.74,1
33.00,35.80,1
41.00,35.89,1
32.00,35.99,1
40.00,36.07,1
31.00,36.12,1
48.00,36.21,1
31.00,36.38,1
47.00,36.61,1
31.00,36.86,1
50.00,37.15,1
31.00,37.48,1
39.00,37.74,1
31.00,37.84,1
41.00,37.85,1
32.00,37.80,1
35.00,37.67,1
37.00,37.47,1
36.00,37.28,1
39.00,37.13,1
31.00,36.98,1
35.00,36.77,1
31.00,36.49,1
39.00,36.19,1
31.00,35.92,1
40.00,35.70,1
31.00,35.52,1
38.00,35.37,1
31.00,35.22,1
37.00,35.08,1
32.00,34.95,1
52.00,34.95,1
31.00,35.18,1
46.00,35.51,1
31.00,35.86,1
42.00,36.18,1
31.00,36.44,1
38.00,36.60,1
33.00,36.67,1
35.00,36.66,1
36.00,36.59,1
35.00,36.50,1
34.00,36.38,1
37.00,36.24,1
33.00,36.11,1
34.00,35.94,1
37.00,35.77,1
31.00,35.60,1
37.00,35.43,1
32.00,35.25,1
33.00,35.06,1
32.00,34.83,1
42.00,34.65,1
32.00,34.60,1
40.00,34.62,1
31.00,34.67,1
40.00,34.74,1
30.00,34.81,1
35.00,34.82,1
30.00,34.76,1
39.00,34.67,1
31.00,34.60,1
38.00,34.56,1
31.00,34.52,1
41.00,34.52,1
32.00,34.57,1
47.00,34.72,1
34.00,35.02,1
36.00,35.33,1
32.00,35.54,1
35.00,35.64,1
34.00,35.66,1
35.00,35.64,1
34.00,35.59,1
35.00,35.51,1
36.00,35.43,1
34.00,35.37,1
35.00,35.30,1
31.00,35.20,1
37.00,35.06,1
34.00,34.95,1
36.00,34.88,1
32.00,34.81,1
36.00,34.73,1
31.00,34.63,1
50.00,34.64,1
32.00,34.85,1
41.00,35.13,1
31.00,35.39,1
45.00,35.63,1
33.00,35.92,1
36.00,36.16,1
30.00,36.26,1
33.00,36.21,1
34.00,36.05,1
41.00,35.90,1
31.00,35.82,1
38.00,35.74,1
33.00,35.66,1
49.00,35.68,1
31.00,35.85,1
40.00,36.05,1
33.00,36.20,1
34.00,36.27,1
35.00,36.25,1
37.00,36.20,1
32.00,36.13,1
35.00,36.01,1
40.00,35.90,1
31.00,35.83,1
40.00,35.77,1
31.00,35.72,1
42.00,35.69,1
32.00,35.70,1
35.00,35.69,1
32.00,35.61,1
44.00,35.56,1
31.00,35.59,1
38.00,35.63,1
31.00,35.62,1
43.00,35.62,1
31.00,35.66,1
47.00,35.77,1
31.00,35.96,1
46.00,36.20,1
34.00,36.48,1
52.00,36.86,1
34.00,37.35,1
46.00,37.86,1
31.00,38.29,1
44.00,38.61,1
37.00,38.87,1
32.00,39.02,1
36.00,38.97,1
36.00,38.81,1
33.00,38.57,1
38.00,38.26,1
37.00,37.98,1
33.00,37.70,1
42.00,37.44,1
32.00,37.24,1
44.00,37.10,1
42.00,37.10,1
39.00,37.25,1
30.00,37.38,1
45.00,37.43,1
37.00,37.53,1
61.00,37.85,1
31.00,38.41,1
48.00,38.99,1
31.00,39.44,1
37.00,39.69,1
31.00,39.70,1
47.00,39.60,1
34.00,39.53,1
51.00,39.54,1
37.00,39.67,1
48.00,39.89,1
30.00,40.09,1
68.00,40.36,1
31.00,40.87,1
51.00,41.40,1
31.00,41.79,1
45.00,42.01,1
36.00,42.08,1
35.00,42.01,1
48.00,41.83,1
35.00,41.68,1
45.00,41.54,1
33.00,41.37,1
47.00,41.17,1
32.00,40.98,1
43.00,40.75,1
36.00,40.50,1
59.00,40.41,1
31.00,40.53,1
54.00,40.73,1
31.00,40.94,1
39.00,41.03,1
35.00,40.93,1
59.00,40.89,1
36.00,41.07,1
39.00,41.25,1
32.00,41.23,1
65.00,41.24,1
33.00,41.50,1
53.00,41.84,1
32.00,42.14,1
40.00,42.26,1
32.00,42.15,1
47.00,41.92,1
31.00,41.65,1
34.00,41.25,1
34.00,40.68,1
48.00,40.15,1
34.00,39.77,1
53.00,39.56,1
37.00,39.56,1
30.00,39.55,1
38.00,39.35,1
31.00,39.03,1
38.00,38.63,1
31.00,38.20,1
40.00,37.76,1
36.00,37.40,1
48.00,37.21,1
34.00,37.20,1
61.00,37.44,1
57.00,38.14,1
50.00,39.28,1
32.00,40.41,1
38.00,41.19,1
33.00,41.58,1
52.00,41.80,1
32.00,41.98,1
37.00,41.99,1
34.00,41.76,1
40.00,41.41,1
32.00,40.99,1
45.00,40.54,1
34.00,40.14,1
53.00,39.89,1
43.00,39.89,1
50.00,40.13,1
43.00,40.53,1
48.00,41.01,1
34.00,41.45,1
31.00,41.64,1
40.00,41.52,1
32.00,41.24,1
41.00,40.87,1
34.00,40.45,1
36.00,40.00,1
33.00,39.48,1
79.00,39.27,1
34.00,39.69,1
65.00,40.45,1
36.00,41.35,1
53.00,42.23,1
33.00,42.96,1
66.00,43.61,1
37.00,44.34,1
70.00,45.17,1
31.00,46.02,1
57.00,46.71,1
31.00,47.14,1
49.00,47.30,1
38.00,47.23,1
41.00,46.99,1
33.00,46.52,1
42.00,45.85,1
31.00,45.05,1
33.00,44.09,1
31.00,42.95,1
30.00,41.70,1
36.00,40.43,1
32.00,39.23,1
43.00,38.20,1
64.00,37.67,1
38.00,37.74,1
56.00,38.16,1
57.00,38.94,1
54.00,40.09,1
58.00,41.49,1
40.00,42.91,1
52.00,44.15,1
36.00,45.11,1
58.00,45.86,1
47.00,46.56,1
50.00,47.22,1
32.00,47.64,1
73.00,47.93,1
33.00,48.30,1
39.00,48.47,1
30.00,48.15,1
73.00,47.74,1
30.00,47.55,1
48.00,47.33,1
33.00,46.91,1
34.00,46.27,1
61.00,45.59,1
30.00,45.10,1
39.00,44.57,1
34.00,43.86,1
32.00,43.02,1
30.00,42.01,1
57.00,41.09,1
34.00,40.51,1
62.00,40.27,1
32.00,40.33,1
46.00,40.47,1
46.00,40.63,1
74.00,41.17,1
56.00,42.28,1
76.00,43.88,1
39.00,45.69,1
55.00,47.28,1
48.00,48.56,1
71.00,49.75,1
38.00,50.90,1
41.00,51.65,1
43.00,51.84,1
70.00,51.91,1
31.00,52.01,1
77.00,52.10,1
31.00,52.23,1
32.00,52.01,1
44.00,51.28,1
33.00,50.28,1
31.00,49.03,1
32.00,47.50,1
32.00,45.81,1
54.00,44.26,1
42.00,43.12,1
33.00,42.24,1
52.00,41.50,1
73.00,41.30,1
63.00,41.93,1
36.00,42.98,1
58.00,43.95,1
40.00,44.82,1
70.00,45.72,1
36.00,46.67,1
63.00,47.55,1
39.00,48.30,1
52.00,48.88,1
44.00,49.24,1
66.00,49.59,1
46.00,50.06,1
79.00,50.71,1
33.00,51.50,1
56.00,52.05,1
32.00,52.21,1
50.00,52.01,1
37.00,51.53,1
51.00,50.91,1
38.00,50.22,1
32.00,49.35,1
38.00,48.20,1
52.00,47.06,1
38.00,46.13,1
40.00,45.28,1
51.00,44.54,1
59.00,44.16,1
68.00,44.38,1
69.00,45.27,1
82.00,46.83,1
54.00,48.84,1
66.00,50.87,1
50.00,52.68,1
75.00,54.31,1
64.00,55.94,1
43.00,57.36,1
40.00,58.11,1
65.00,58.31,1
47.00,58.33,1
102.00,58.58,1
34.00,59.18,1
40.00,59.42,1
31.00,58.83,1
36.00,57.57,1
37.00,55.85,1
57.00,54.07,1
34.00,52.46,1
49.00,50.94,1
38.00,49.51,1
36.00,48.11,1
71.00,46.96,1
40.00,46.33,1
74.00,46.18,1
41.00,46.44,1
54.00,46.84,1
78.00,47.47,1
33.00,48.39,1
40.00,49.02,1
59.00,49.29,1
65.00,49.72,1
105.00,50.83,1
83.00,52.95,1
72.00,55.64,1
48.00,58.13,1
67.00,60.03,1
39.00,61.32,1
88.00,62.20,1
35.00,62.88,1
64.00,63.14,1
37.00,62.90,1
58.00,62.26,1
31.00,61.23,1
45.00,59.78,1
36.00,58.00,1
32.00,55.96,1
32.00,53.65,1
46.00,51.30,1
38.00,49.15,1
186.00,48.43,1
70.00,50.27,1
57.00,53.18,1
73.00,55.76,1
40.00,57.88,1
65.00,59.38,1
85.00,60.67,1
121.00,62.58,1
66.00,65.22,1
102.00,68.01,1
49.00,70.51,1
76.00,72.36,1
61.00,73.54,1
86.00,74.35,1
45.00,74.80,1
74.00,74.74,1
33.00,74.09,1
32.00,72.56,1
32.00,70.07,1
33.00,66.91,1
30.00,63.37,1
33.00,59.62,1
30.00,55.85,1
38.00,52.22,1
31.00,48.87,1
35.00,45.82,1
33.00,43.10,1
40.00,40.77,1
45.00,38.96,1
40.00,37.71,1
54.00,36.99,1
40.00,36.78,1
58.00,36.99,1
61.00,37.72,1
92.00,39.29,1
66.00,41.75,1
63.00,44.62,1
58.00,47.39,1
46.00,49.79,1
65.00,51.74,1
63.00,53.49,1
38.00,54.95,1
103.00,56.24,1
71.00,57.96,1
141.00,60.54,1
38.00,63.74,1
85.00,66.56,1
31.00,68.48,1
66.00,69.42,1
35.00,69.48,1
72.00,68.95,1
72.00,68.33,1
70.00,67.97,1
37.00,67.51,1
132.00,67.20,1
37.00,67.54,1
59.00,67.76,1
84.00,67.66,1
77.00,67.86,1
163.00,69.09,1
110.00,71.99,1
104.00,75.85,1
87.00,79.62,1
348.00,85.07,1
213.00,94.60,1
236.00,107.08,1
231.00,120.64,1
322.00,135.38,1
98.00,150.13,1
143.00,161.83,1
81.00,169.23,1
163.00,173.14,1
182.00,175.26,1
295.00,177.86,1
108.00,181.24,1
159.00,183.36,1
70.00,183.00,1
152.00,180.38,1
65.00,176.06,1
158.00,170.60,1
136.00,165.07,1
34.00,159.25,1
123.00,152.25,1
108.00,145.09,1
262.00,139.81,1
52.00,136.84,1
253.00,135.16,1
266.00,136.23,1
70.00,139.59,1
184.00,142.40,1
297.00,145.92,1
226.00,152.08,1
314.00,160.50,1
282.00,170.98,1
398.00,183.85,1
327.00,199.14,1
275.00,215.13,1
248.00,229.46,1
392.00,242.38,1
154.00,253.98,1
284.00,262.55,1
203.00,268.00,1
202.00,270.68,1
94.00,269.54,1
274.00,265.23,1
150.00,259.72,1
199.00,253.31,1
336.00,247.38,1
73.00,242.50,1
197.00,236.36,1
61.00,228.26,1
38.00,217.45,1
127.00,204.20,1
220.00,191.61,1
119.00,181.38,1
225.00,173.25,1
154.00,167.31,1
303.00,164.19,1
101.00,163.52,1
338.00,164.56,1
284.00,168.68,1
320.00,176.45,1
205.00,185.86,1
336.00,195.68,1
202.00,205.60,1
213.00,214.22,1
262.00,221.04,1
323.00,227.68,1
252.00,234.78,1
347.00,242.11,1
268.00,249.71,1
261.00,256.69,1
134.00,261.12,1
330.00,262.96,1
173.00,263.66,1
162.00,262.40,1
219.00,258.71,1
79.00,252.96,1
71.00,243.96,1
113.00,231.80,1
133.00,218.47,1
91.00,205.02,1
95.00,191.39,1
58.00,177.51,1
160.00,164.15,1
110.00,152.61,1
96.00,142.72,1
304.00,135.51,1
320.00,133.97,1
245.00,138.17,1
149.00,144.70,1
286.00,151.73,1
270.00,160.23,1
315.00,170.91,1
344.00,183.64,1
321.00,198.16,1
258.00,212.94,1
152.00,225.31,1
377.00,235.01,1
145.00,243.29,1
199.00,248.70,1
160.00,250.41,1
112.00,248.63,1
87.00,242.92,1
139.00,234.10,1
160.00,223.97,1
139.00,213.83,1
41.00,203.02,1
182.00,191.44,1
132.00,180.74,1
76.00,170.95,1
130.00,161.28,1
61.00,151.87,1
147.00,142.99,1
164.00,135.80,1
220.00,131.59,1
357.00,131.96,1
418.00,139.05,1
335.00,152.46,1
188.00,168.14,1
404.00,183.72,1
296.00,200.18,1
194.00,215.91,1
236.00,228.33,1
218.00,237.52,1
259.00,244.34,1
224.00,249.38,1
349.00,253.70,1
365.00,259.24,1
307.00,266.32,1
244.00,273.00,1
223.00,277.46,1
118.00,278.37,1
179.00,275.13,1
154.00,268.76,1
181.00,260.54,1
56.00,250.41,1
141.00,238.02,1
58.00,223.95,1
59.00,208.49,1
97.00,192.11,1
77.00,176.02,1
164.00,161.40,1
116.00,149.26,1
172.00,139.79,1
39.00,132.10,1
149.00,125.19,1
192.00,120.17,1
105.00,117.66,1
310.00,117.76,1
290.00,122.32,1
240.00,131.07,1
284.00,142.13,1
204.00,154.20,1
286.00,166.36,1
121.00,177.53,1
243.00,186.53,1
228.00,194.10,1
275.00,201.50,1
195.00,208.49,1
234.00,214.35,1
273.00,219.45,1
207.00,224.23,1
38.00,226.45,1
210.00,224.70,1
116.00,220.69,1
96.00,214.77,1
53.00,206.17,1
48.00,194.91,1
149.00,182.37,1
188.00,171.22,1
189.00,162.98,1
112.00,156.93,1
124.00,151.58,1
180.00,146.97,1
270.00,144.83,1
164.00,145.73,1
256.00,148.65,1
426.00,155.09,1
309.00,166.58,1
331.00,181.26,1
321.00,197.13,1
230.00,212.62,1
286.00,226.18,1
260.00,237.79,1
313.00,247.99,1
267.00,257.08,1
274.00,264.75,1
203.00,270.24,1
39.00,271.36,1
96.00,266.30,1
117.00,256.56,1
98.00,244.13,1
158.00,230.49,1
43.00,216.29,1
41.00,200.66,1
94.00,183.95,1
144.00,168.25,1
143.00,155.10,1
150.00,144.78,1
45.00,136.19,1
135.00,128.26,1
254.00,122.70,1
183.00,121.22,1
277.00,123.48,1
260.00,129.37,1
301.00,138.65,1
360.00,151.18,1
356.00,167.10,1
250.00,184.60,1
309.00,201.42,1
314.00,217.32,1
275.00,232.22,1
310.00,245.57,1
200.00,256.65,1
226.00,264.34,1
294.00,269.27,1
255.00,272.95,1
200.00,275.02,1
49.00,273.33,1
171.00,266.82,1
86.00,257.00,1
176.00,245.29,1
170.00,233.32,1
42.00,221.12,1
164.00,208.02,1
52.00,194.68,1
43.00,180.69,1
98.00,166.05,1
50.00,151.83,1
185.00,139.18,1
161.00,129.77,1
328.00,125.21,1
188.00,125.89,1
236.00,130.01,1
298.00,136.77,1
293.00,146.65,1
220.00,158.45,1
290.00,170.63,1
238.00,182.83,1
382.00,195.54,1
253.00,209.10,1
312.00,222.42,1
218.00,234.24,1
276.00,243.94,1
344.00,252.45,1
230.00,260.44,1
314.00,267.15,1
231.00,272.41,1
222.00,275.66,1
70.00,275.12,1
288.00,270.95,1
146.00,265.37,1
72.00,257.71,1
104.00,246.62,1
60.00,232.82,1
44.00,216.79,1
74.00,199.25,1
153.00,182.17,1
408.00,169.74,1
299.00,165.19,1
160.00,165.93,1
290.00,168.56,1
182.00,172.61,1
301.00,177.87,1
243.00,184.51,1
353.00,192.90,1
421.00,204.27,1
270.00,218.33,1
295.00,232.19,1
250.00,244.22,1
356.00,254.81,1
240.00,264.36,1
113.00,270.71,1
87.00,271.07,1
153.00,265.95,1
213.00,258.26,1
138.00,249.76,1
181.00,240.57,1
48.00,230.15,1
90.00,217.60,1
84.00,203.42,1
35.00,188.32,1
122.00,172.90,1
64.00,158.28,1
291.00,146.42,1
274.00,140.20,1
188.00,139.32,1
146.00,140.61,1
348.00,143.82,1
284.00,150.79,1
312.00,161.28,1
326.00,174.18,1
123.00,187.22,1
167.00,197.04,1
219.00,203.56,1
202.00,208.44,1
390.00,213.64,1
198.00,220.28,1
348.00,227.41,1
150.00,233.94,1
239.00,238.51,1
286.00,241.66,1
191.00,244.34,1
57.00,244.28,1
78.00,239.37,1
46.00,229.81,1
48.00,216.71,1
58.00,201.25,1
70.00,184.79,1
176.00,169.26,1
70.00,155.93,1
148.00,144.48,1
33.00,134.29,1
89.00,124.62,1
153.00,116.16,1
170.00,110.56,1
240.00,108.71,1
339.00,111.85,1
361.00,121.12,1
354.00,135.80,1
246.00,153.34,1
252.00,170.66,1
219.00,186.18,1
333.00,200.27,1
288.00,214.06,1
284.00,227.31,1
355.00,239.86,1
324.00,252.36,1
203.00,263.48,1
286.00,271.62,1
196.00,276.87,1
205.00,279.02,1
166.00,277.81,1
212.00,273.92,1
143.00,267.96,1
56.00,259.07,1
94.00,246.66,1
90.00,231.87,1
64.00,215.77,1
102.00,199.05,1
83.00,182.67,1
164.00,167.75,1
170.00,155.67,1
217.00,147.31,1
290.00,143.48,1
76.00,143.03,1
249.00,143.66,1
171.00,145.56,1
70.00,147.65,1
239.00,148.89,1
398.00,152.76,1
304.00,161.74,1
396.00,174.83,1
486.00,192.09,1
325.00,212.81,1
127.00,231.97,1
276.00,245.87,1
43.00,254.29,1
322.00,257.95,1
321.00,260.54,1
322.00,264.53,1
209.00,268.51,1
187.00,270.33,1
349.00,270.47,1
182.00,270.45,1
194.00,269.00,1
199.00,265.36,1
57.00,259.16,1
51.00,248.92,1
109.00,235.09,1
53.00,219.47,1
358.00,205.09,1
111.00,194.64,1
321.00,187.71,1
158.00,183.80,1
272.00,182.26,1
168.00,182.27,1
212.00,183.03,1
210.00,184.19,1
345.00,187.05,1
294.00,192.90,1
510.00,202.87,1
300.00,217.05,1
397.00,233.10,1
488.00,250.72,1
320.00,269.86,1
272.00,287.05,1
257.00,299.86,1
302.00,308.67,1
248.00,314.31,1
164.00,316.16,1
378.00,315.03,1
217.00,313.14,1
108.00,308.97,1
280.00,301.42,1
151.00,292.48,1
38.00,281.10,1
32.00,265.23,1
161.00,246.61,1
139.00,228.37,1
202.00,212.25,1
186.00,199.00,1
230.00,189.00,1
183.00,182.03,1
244.00,177.65,1
246.00,176.03,1
325.00,177.78,1
243.00,182.68,1
336.00,189.88,1
412.00,200.03,1
426.00,214.26,1
477.00,232.43,1
289.00,252.34,1
174.00,269.28,1
304.00,281.06,1
58.00,287.68,1
277.00,288.99,1
186.00,287.00,1
280.00,283.69,1
212.00,279.72,1
186.00,274.81,1
253.00,268.92,1
215.00,263.04,1
222.00,257.36,1
132.00,251.08,1
48.00,242.43,1
76.00,230.40,1
165.00,216.67,1
55.00,202.88,1
227.00,189.86,1
130.00,178.96,1
85.00,169.49,1
139.00,160.32,1
313.00,153.64,1
254.00,151.87,1
335.00,155.14,1
436.00,163.72,1
135.00,175.89,1
279.00,187.46,1
326.00,198.48,1
299.00,210.45,1
255.00,222.33,1
435.00,234.28,1
351.00,247.80,1
226.00,261.15,1
347.00,272.16,1
234.00,281.08,1
272.00,287.55,1
337.00,292.18,1
244.00,295.88,1
150.00,296.98,1
332.00,295.23,1
197.00,292.49,1
126.00,287.80,1
97.00,279.23,1
48.00,266.56,1
35.00,250.05,1
39.00,230.57,1
238.00,211.03,1
112.00,194.39,1
105.00,180.00,1
35.00,166.08,1
193.00,153.05,1
292.00,143.97,1
275.00,140.97,1
233.00,142.91,1
370.00,148.83,1
323.00,159.09,1
332.00,172.74,1
218.00,187.35,1
257.00,200.72,1
373.00,213.38,1
373.00,227.33,1
286.00,242.02,1
329.00,255.71,1
295.00,267.90,1
319.00,278.53,1
261.00,287.28,1
321.00,294.03,1
153.00,298.17,1
260.00,298.80,1
170.00,296.33,1
215.00,291.40,1
179.00,284.45,1
133.00,275.54,1
74.00,263.94,1
68.00,249.24,1
164.00,232.88,1
132.00,217.11,1
49.00,201.88,1
66.00,186.08,1
177.00,170.87,1
184.00,158.66,1
218.00,150.42,1
147.00,145.52,1
341.00,144.03,1
196.00,146.57,1
286.00,152.06,1
406.00,160.90,1
333.00,174.09,1
355.00,190.12,1
334.00,207.44,1
336.00,224.96,1
296.00,241.60,1
325.00,256.61,1
288.00,269.74,1
371.00,281.31,1
99.00,290.13,1
221.00,293.73,1
356.00,294.20,1
213.00,294.29,1
326.00,293.79,1
174.00,292.27,1
231.00,288.92,1
164.00,283.45,1
34.00,274.78,1
53.00,261.43,1
85.00,244.51,1
128.00,226.46,1
48.00,208.48,1
71.00,190.37,1
96.00,172.67,1
151.00,156.93,1
134.00,144.17,1
156.00,134.45,1
277.00,128.59,1
292.00,128.15,1
286.00,133.02,1
257.00,141.57,1
300.00,152.48,1
271.00,165.02,1
442.00,179.69,1
272.00,196.66,1
375.00,214.30,1
287.00,231.43,1
300.00,247.12,1
303.00,260.70,1
168.00,271.29,1
227.00,277.54,1
150.00,279.52,1
412.00,279.55,1
456.00,282.16,1
235.00,287.69,1
166.00,291.41,1
238.00,291.27,1
98.00,287.66,1
126.00,280.06,1
65.00,268.46,1
42.00,253.23,1
57.00,234.94,1
65.00,215.10,1
108.00,195.36,1
92.00,176.99,1
91.00,160.34,1
214.00,146.42,1
248.00,137.33,1
172.00,133.22,1
157.00,131.89,1
265.00,132.72,1
370.00,137.75,1
187.00,146.82,1
214.00,156.78,1
366.00,167.26,1
325.00,180.20,1
284.00,194.79,1
281.00,209.14,1
228.00,222.00,1
94.00,231.30,1
93.00,234.88,1
183.00,233.67,1
245.00,230.83,1
331.00,229.35,1
133.00,229.23,1
84.00,227.16,1
83.00,221.22,1
36.00,211.74,1
59.00,199.26,1
61.00,184.98,1
61.00,170.02,1
75.00,155.19,1
214.00,142.30,1
127.00,133.00,1
102.00,126.25,1
175.00,121.12,1
40.00,117.28,1
165.00,113.96,1
258.00,112.85,1
248.00,115.92,1
239.00,122.64,1
278.00,131.99,1
298.00,143.74,1
287.00,157.51,1
386.00,173.14,1
198.00,189.68,1
207.00,204.16,1
307.00,216.00,1
266.00,226.83,1
266.00,236.70,1
232.00,244.88,1
143.00,250.23,1
319.00,252.96,1
195.00,254.74,1
169.00,254.93,1
348.00,253.94,1
59.00,252.43,1
146.00,248.02,1
72.00,239.90,1
61.00,228.74,1
105.00,215.20,1
221.00,201.85,1
34.00,189.83,1
153.00,178.06,1
123.00,167.06,1
221.00,158.31,1
136.00,152.22,1
255.00,148.76,1
195.00,148.20,1
223.00,150.06,1
155.00,153.09,1
365.00,157.80,1
265.00,165.69,1
230.00,175.52,1
233.00,185.13,1
344.00,194.90,1
268.00,205.71,1
264.00,216.61,1
263.00,226.48,1
260.00,235.18,1
170.00,241.88,1
228.00,245.84,1
130.00,246.98,1
184.00,245.25,1
53.00,240.39,1
31.00,231.44,1
96.00,218.73,1
124.00,204.73,1
112.00,191.07,1
48.00,177.64,1
46.00,163.68,1
90.00,149.57,1
179.00,137.25,1
83.00,127.73,1
51.00,119.55,1
204.00,112.59,1
313.00,109.94,1
156.00,112.41,1
317.00,118.36,1
318.00,128.12,1
361.00,142.12,1
218.00,158.50,1
371.00,175.40,1
294.00,192.82,1
280.00,209.93,1
170.00,224.46,1
148.00,234.43,1
295.00,240.53,1
258.00,245.45,1
188.00,249.33,1
161.00,250.61,1
191.00,249.11,1
217.00,246.01,1
263.00,242.86,1
172.00,240.00,1
118.00,235.89,1
106.00,229.21,1
42.00,219.62,1
46.00,207.02,1
152.00,192.94,1
260.00,180.90,1
208.00,173.05,1
151.00,168.20,1
204.00,164.87,1
244.00,163.50,1
180.00,164.27,1
116.00,165.38,1
278.00,166.46,1
292.00,169.76,1
337.00,176.53,1
308.00,186.43,1
500.00,199.77,1
312.00,216.68,1
387.00,234.92,1
249.00,252.06,1
270.00,266.30,1
287.00,277.19,1
290.00,285.68,1
371.00,292.91,1
200.00,298.90,1
395.00,303.21,1
220.00,306.45,1
176.00,307.12,1
144.00,303.40,1
67.00,294.90,1
127.00,282.03,1
94.00,266.30,1
47.00,248.57,1
148.00,229.65,1
527.00,214.88,1
189.00,208.00,1
38.00,203.68,1
236.00,197.83,1
289.00,193.44,1
244.00,192.43,1
228.00,193.62,1
346.00,196.77,1
208.00,202.01,1
300.00,208.09,1
361.00,215.49,1
420.00,225.98,1
234.00,238.37,1
286.00,249.60,1
361.00,259.53,1
380.00,269.99,1
272.00,280.52,1
252.00,288.96,1
156.00,293.52,1
199.00,293.61,1
237.00,290.45,1
200.00,285.67,1
276.00,280.14,1
224.00,274.75,1
49.00,267.92,1
81.00,257.23,1
39.00,242.62,1
82.00,225.42,1
118.00,207.55,1
95.00,190.54,1
105.00,174.73,1
78.00,160.10,1
286.00,148.22,1
135.00,140.77,1
306.00,137.61,1
185.00,138.34,1
288.00,142.30,1
156.00,148.17,1
276.00,155.01,1
359.00,163.92,1
301.00,176.00,1
232.00,189.25,1
362.00,202.38,1
128.00,214.62,1
193.00,223.50,1
137.00,228.25,1
197.00,229.80,1
93.00,228.49,1
257.00,225.23,1
116.00,221.28,1
198.00,216.62,1
35.00,210.44,1
39.00,201.29,1
34.00,188.85,1
107.00,174.93,1
260.00,162.77,1
83.00,154.02,1
34.00,146.08,1
137.00,137.61,1
217.00,130.96,1
153.00,127.57,1
359.00,128.11,1
367.00,134.50,1
232.00,145.87,1
227.00,158.47,1
341.00,171.28,1
264.00,185.06,1
339.00,199.43,1
244.00,213.57,1
274.00,226.35,1
165.00,236.47,1
249.00,243.39,1
207.00,247.78,1
152.00,249.65,1
66.00,247.56,1
307.00,242.66,1
236.00,238.48,1
173.00,235.29,1
39.00,230.22,1
73.00,221.44,1
74.00,209.60,1
195.00,197.13,1
169.00,186.36,1
42.00,176.77,1
49.00,166.11,1
40.00,153.98,1
182.00,142.23,1
295.00,134.38,1
188.00,131.92,1
256.00,133.33,1
429.00,139.35,1
195.00,150.08,1
388.00,163.24,1
343.00,178.67,1
335.00,196.17,1
272.00,213.61,1
41.00,227.40,1
252.00,235.29,1
331.00,240.76,1
252.00,246.59,1
306.00,252.29,1
33.00,255.72,1
261.00,255.12,1
244.00,252.85,1
276.00,251.24,1
472.00,252.19,1
256.00,256.77,1
30.00,260.14,1
142.00,257.86,1
36.00,250.46,1
89.00,239.05,1
250.00,226.29,1
158.00,215.28,1
45.00,204.85,1
52.00,192.59,1
161.00,179.47,1
66.00,167.20,1
135.00,155.88,1
218.00,146.71,1
261.00,141.76,1
292.00,141.81,1
265.00,146.33,1
244.00,153.74,1
124.00,161.53,1
185.00,167.70,1
360.00,173.90,1
204.00,182.02,1
164.00,189.88,1
239.00,195.94,1
226.00,201.24,1
224.00,206.18,1
268.00,210.90,1
60.00,214.30,1
88.00,213.70,1
54.00,208.58,1
178.00,200.87,1
50.00,192.18,1
63.00,182.02,1
82.00,170.41,1
92.00,158.59,1
242.00,148.56,1
148.00,142.03,1
251.00,138.89,1
127.00,138.32,1
253.00,139.60,1
213.00,142.96,1
74.00,147.01,1
277.00,150.50,1
412.00,156.78,1
228.00,167.32,1
180.00,178.47,1
212.00,187.64,1
405.00,196.76,1
235.00,207.55,1
106.00,217.00,1
195.00,222.31,1
227.00,224.97,1
207.00,226.62,1
186.00,227.21,1
157.00,226.23,1
304.00,224.66,1
34.00,222.62,1
45.00,217.15,1
61.00,207.33,1
167.00,195.72,1
68.00,184.25,1
35.00,172.25,1
130.00,159.62,1
50.00,147.59,1
114.00,136.41,1
64.00,126.23,1
214.00,118.08,1
488.00,116.09,1
167.00,121.90,1
150.00,130.33,1
298.00,138.75,1
247.00,148.77,1
467.00,161.90,1
166.00,177.65,1
400.00,193.66,1
296.00,209.84,1
367.00,226.46,1
200.00,241.77,1
283.00,254.08,1
228.00,263.24,1
305.00,270.11,1
280.00,275.65,1
281.00,280.21,1
175.00,282.81,1
159.00,281.98,1
167.00,277.48,1
392.00,272.20,1
146.00,268.25,1
113.00,262.95,1
90.00,254.07,1
139.00,242.49,1
247.00,230.76,1
47.00,219.85,1
56.00,207.58,1
208.00,194.42,1
64.00,182.42,1
80.00,170.70,1
233.00,159.93,1
94.00,151.73,1
194.00,145.56,1
173.00,141.49,1
401.00,141.46,1
342.00,147.70,1
189.00,158.09,1
174.00,168.14,1
257.00,176.78,1
229.00,185.10,1
252.00,193.29,1
294.00,201.61,1
383.00,211.43,1
346.00,223.50,1
293.00,236.59,1
335.00,249.18,1
286.00,260.84,1
326.00,271.27,1
136.00,279.10,1
36.00,281.07,1
67.00,275.55,1
175.00,265.04,1
85.00,252.46,1
98.00,238.21,1
82.00,222.49,1
139.00,206.50,1
83.00,191.17,1
334.00,178.48,1
223.00,170.99,1
310.00,168.73,1
180.00,169.90,1
384.00,173.88,1
372.00,182.17,1
215.00,193.51,1
335.00,205.14,1
302.00,217.01,1
148.00,227.84,1
243.00,235.50,1
305.00,241.29,1
293.00,247.18,1
268.00,253.06,1
257.00,258.14,1
172.00,261.36,1
283.00,262.44,1
134.00,261.81,1
258.00,259.36,1
146.00,255.49,1
35.00,248.91,1
55.00,237.92,1
94.00,223.62,1
47.00,207.78,1
35.00,190.75,1
102.00,173.33,1
46.00,156.70,1
214.00,142.26,1
75.00,131.12,1
126.00,122.38,1
289.00,116.78,1
317.00,117.11,1
544.00,125.62,1
418.00,142.99,1
280.00,165.19,1
309.00,187.24,1
284.00,207.58,1
399.00,226.71,1
252.00,244.77,1
288.00,260.25,1
326.00,272.94,1
338.00,284.13,1
252.00,293.61,1
350.00,300.94,1
147.00,305.63,1
281.00,306.72,1
225.00,305.12,1
357.00,302.81,1
103.00,299.64,1
300.00,294.48,1
229.00,288.54,1
140.00,281.88,1
64.00,272.27,1
78.00,258.86,1
124.00,242.95,1
235.00,227.46,1
182.00,214.57,1
41.00,202.98,1
240.00,191.60,1
333.00,183.67,1
170.00,180.44,1
210.00,179.35,1
346.00,180.33,1
224.00,184.43,1
344.00,190.84,1
329.00,199.66,1
426.00,211.58,1
518.00,227.68,1
295.00,246.95,1
397.00,265.89,1
313.00,283.08,1
272.00,297.49,1
443.00,309.35,1
160.00,319.02,1
244.00,324.17,1
172.00,324.12,1
370.00,321.28,1
191.00,317.62,1
176.00,311.98,1
55.00,302.37,1
154.00,288.65,1
125.00,272.68,1
80.00,255.51,1
98.00,237.21,1
105.00,218.60,1
193.00,201.37,1
152.00,186.93,1
277.00,176.20,1
252.00,170.13,1
193.00,167.94,1
248.00,168.03,1
456.00,171.98,1
402.00,182.27,1
492.00,198.57,1
350.00,218.74,1
220.00,238.53,1
411.00,255.61,1
395.00,272.02,1
452.00,289.18,1
352.00,306.31,1
256.00,320.87,1
234.00,330.38,1
127.00,333.63,1
362.00,332.08,1
382.00,330.11,1
330.00,329.76,1
142.00,328.36,1
135.00,322.67,1
121.00,312.09,1
197.00,298.50,1
183.00,284.06,1
42.00,268.69,1
197.00,251.92,1
294.00,236.88,1
204.00,225.79,1
162.00,217.07,1
229.00,209.51,1
200.00,203.62,1
249.00,199.70,1
383.00,199.06,1
355.00,203.32,1
327.00,211.64,1
471.00,223.20,1
503.00,239.24,1
383.00,259.02,1
299.00,278.42,1
266.00,294.27,1
237.00,305.38,1
331.00,312.58,1
264.00,317.33,1
192.00,319.13,1
270.00,317.52,1
268.00,314.06,1
238.00,309.69,1
229.00,304.16,1
161.00,296.99,1
137.00,287.43,1
107.00,275.16,1
73.00,260.15,1
44.00,242.60,1
40.00,222.87,1
214.00,203.29,1
119.00,186.54,1
185.00,172.92,1
274.00,163.16,1
262.00,158.53,1
258.00,158.56,1
237.00,161.76,1
348.00,167.77,1
222.00,176.34,1
327.00,186.26,1
203.00,196.55,1
409.00,207.33,1
339.00,219.91,1
306.00,233.74,1
206.00,246.09,1
345.00,256.12,1
301.00,265.17,1
274.00,273.37,1
296.00,280.03,1
193.00,284.59,1
208.00,285.97,1
126.00,283.66,1
90.00,277.05,1
53.00,265.73,1
90.00,250.72,1
46.00,233.37,1
37.00,214.28,1
121.00,194.68,1
58.00,176.15,1
101.00,159.04,1
149.00,144.16,1
170.00,132.78,1
248.00,125.82,1
215.00,123.65,1
313.00,126.10,1
298.00,133.23,1
146.00,142.97,1
243.00,152.52,1
389.00,163.22,1
507.00,178.59,1
502.00,200.06,1
330.00,225.03,1
533.00,250.59,1
261.00,275.43,1
723.00,299.96,1
342.00,325.64,1
243.00,348.02,1
364.00,363.32,1
68.00,371.52,1
276.00,371.88,1
163.00,366.22,1
79.00,355.41,1
748.00,344.27,1
248.00,339.50,1
467.00,338.80,1
71.00,337.44,1
212.00,332.05,1
62.00,321.60,1
112.00,306.75,1
170.00,289.13,1
333.00,272.67,1
166.00,259.43,1
387.00,249.49,1
736.00,247.58,1
436.00,256.93,1
178.00,270.28,1
442.00,281.69,1
428.00,293.35,1
419.00,306.75,1
340.00,320.06,1
255.00,330.79,1
725.00,341.03,1
325.00,354.36,1
345.00,366.99,1
116.00,373.75,1
312.00,373.87,1
142.00,368.86,1
208.00,359.42,1
251.00,347.03,1
52.00,332.45,1
208.00,314.96,1
388.00,298.33,1
485.00,287.98,1
82.00,282.53,1
43.00,274.77,1
297.00,263.67,1
607.00,256.78,1
202.00,257.17,1
182.00,258.82,1
380.00,259.34,1
161.00,260.28,1
364.00,261.20,1
58.00,261.09,1
256.00,258.44,1
433.00,256.17,1
539.00,259.79,1
187.00,267.98,1
174.00,274.33,1
266.00,276.69,1
277.00,277.46,1
156.00,276.94,1
645.00,277.59,1
428.00,284.47,1
539.00,297.17,1
168.00,310.83,1
344.00,320.97,1
582.00,329.96,1
310.00,340.88,1
42.00,348.20,1
233.00,347.44,1
62.00,340.12,1
350.00,329.19,1
301.00,318.78,1
687.00,313.88,1
1023.00,322.06,1
235.00,342.19,1
1023.00,367.02,1
85.00,393.32,1
321.00,412.81,1
175.00,421.43,1
294.00,422.04,1
183.00,416.38,1
269.00,406.04,1
137.00,391.83,1
200.00,374.27,1
154.00,354.24,1
192.00,333.04,1
561.00,315.01,1
221.00,303.54,1
406.00,296.45,1
314.00,292.40,1
160.00,289.53,1
389.00,286.22,1
142.00,283.17,1
491.00,281.11,1
76.00,280.17,1
138.00,276.62,1
49.00,268.13,1
92.00,255.50,1
42.00,239.66,1
180.00,222.64,1
127.00,206.70,1
145.00,192.55,1
142.00,180.04,1
113.00,169.07,1
212.00,159.93,1
155.00,153.44,1
253.00,149.85,1
304.00,150.12,1
275.00,154.78,1
115.00,161.21,1
322.00,167.61,1
280.00,175.53,1
445.00,186.77,1
390.00,202.06,1
420.00,220.61,1
236.00,239.58,1
287.00,255.82,1
434.00,269.99,1
253.00,283.48,1
180.00,293.62,1
1019.00,305.08,1
935.00,330.15,1
483.00,366.23,1
104.00,398.12,1
93.00,415.46,1
41.00,417.57,1
62.00,407.20,1
74.00,387.68,1
106.00,362.59,1
262.00,336.04,1
221.00,311.76,1
432.00,292.41,1
331.00,279.76,1
249.00,272.05,1
280.00,266.38,1
227.00,261.83,1
237.00,257.73,1
463.00,255.73,1
267.00,257.55,1
472.00,262.62,1
776.00,274.24,1
356.00,293.72,1
252.00,313.24,1
511.00,329.05,1
572.00,345.46,1
154.00,361.50,1
308.00,371.51,1
249.00,375.23,1
210.00,374.00,1
713.00,372.11,1
136.00,373.05,1
172.00,370.98,1
250.00,363.20,1
157.00,352.12,1
364.00,339.71,1
262.00,328.53,1
259.00,318.65,1
430.00,310.61,1
423.00,307.02,1
155.00,306.00,1
308.00,303.70,1
73.00,298.90,1
579.00,293.90,1
73.00,291.16,1
539.00,289.90,1
440.00,292.48,1
622.00,301.65,1
96.00,313.34,1
231.00,320.44,1
211.00,321.58,1
195.00,318.84,1
85.00,311.82,1
431.00,302.75,1
225.00,295.53,1
732.00,293.63,1
156.00,297.70,1
400.00,302.87,1
763.00,310.97,1
334.00,325.68,1
51.00,338.35,1
99.00,341.22,1
105.00,334.96,1
251.00,323.75,1
101.00,310.37,1
47.00,294.05,1
726.00,279.54,1
493.00,275.81,1
390.00,281.25,1
338.00,289.45,1
162.00,296.26,1
182.00,298.60,1
410.00,298.22,1
92.00,297.10,1
252.00,293.41,1
715.00,291.75,1
279.00,297.06,1
441.00,305.45,1
121.00,312.31,1
198.00,314.48,1
288.00,312.40,1
103.00,307.75,1
108.00,299.03,1
575.00,289.91,1
298.00,286.22,1
107.00,284.52,1
384.00,281.22,1
288.00,279.02,1
369.00,279.12,1
66.00,278.98,1
55.00,274.20,1
122.00,263.97,1
261.00,252.08,1
293.00,242.45,1
115.00,235.08,1
420.00,229.51,1
37.00,225.90,1
442.00,223.42,1
369.00,224.85,1
288.00,230.68,1
127.00,236.34,1
243.00,239.31,1
334.00,241.48,1
422.00,246.17,1
344.00,254.22,1
477.00,265.08,1
358.00,278.27,1
33.00,289.22,1
211.00,293.14,1
100.00,290.96,1
400.00,286.39,1
579.00,285.70,1
58.00,289.07,1
39.00,288.17,1
173.00,280.57,1
331.00,271.42,1
71.00,262.99,1
208.00,253.51,1
595.00,246.91,1
202.00,246.99,1
450.00,250.87,1
633.00,259.93,1
414.00,275.86,1
205.00,292.59,1
150.00,303.67,1
267.00,308.46,1
144.00,308.78,1
658.00,308.84,1
512.00,315.05,1
278.00,325.51,1
54.00,331.98,1
350.00,331.98,1
248.00,329.29,1
187.00,324.90,1
123.00,316.96,1
259.00,306.16,1
432.00,296.69,1
124.00,290.01,1
92.00,281.68,1
119.00,269.55,1
97.00,254.93,1
172.00,239.42,1
416.00,226.79,1
151.00,219.24,1
54.00,212.63,1
81.00,203.41,1
141.00,192.64,1
53.00,181.52,1
54.00,169.56,1
243.00,158.20,1
146.00,149.99,1
85.00,143.94,1
281.00,139.52,1
284.00,139.25,1
101.00,142.32,1
447.00,147.64,1
172.00,156.49,1
364.00,167.61,1
255.00,180.06,1
332.00,193.56,1
1023.00,213.45,1
482.00,245.14,1
361.00,280.64,1
227.00,310.17,1
344.00,331.95,1
211.00,346.83,1
296.00,355.46,1
814.00,363.63,1
127.00,374.75,1
365.00,382.62,1
284.00,385.37,1
44.00,382.75,1
233.00,373.02,1
251.00,359.60,1
639.00,348.87,1
79.00,342.45,1
127.00,333.88,1
99.00,319.95,1
243.00,303.46,1
164.00,287.10,1
283.00,272.23,1
215.00,259.74,1
592.00,252.41,1
37.00,250.45,1
321.00,248.84,1
80.00,245.66,1
444.00,242.76,1
268.00,242.73,1
542.00,247.24,1
226.00,255.58,1
291.00,264.09,1
130.00,269.57,1
303.00,271.85,1
314.00,273.27,1
575.00,277.76,1
408.00,287.50,1
644.00,302.21,1
191.00,319.02,1
95.00,330.50,1
279.00,333.66,1
327.00,333.10,1
127.00,330.42,1
74.00,322.80,1
63.00,309.14,1
304.00,292.67,1
265.00,278.23,1
64.00,265.47,1
291.00,252.65,1
51.00,240.32,1
499.00,230.38,1
445.00,227.56,1
210.00,231.14,1
104.00,234.22,1
246.00,234.29,1
387.00,234.72,1
512.00,239.92,1
316.00,250.23,1
561.00,263.91,1
113.00,278.43,1
779.00,293.23,1
252.00,310.67,1
268.00,326.46,1
438.00,337.81,1
458.00,348.51,1
234.00,358.25,1
420.00,364.90,1
273.00,369.02,1
190.00,369.49,1
116.00,363.89,1
76.00,351.69,1
226.00,334.85,1
97.00,316.14,1
47.00,295.29,1
73.00,271.89,1
198.00,248.38,1
42.00,226.52,1
365.00,207.77,1
318.00,195.69,1
512.00,192.50,1
149.00,196.02,1
252.00,200.98,1
356.00,206.44,1
114.00,212.71,1
116.00,216.19,1
300.00,217.03,1
76.00,217.02,1
241.00,215.56,1
578.00,216.72,1
259.00,224.23,1
130.00,232.65,1
350.00,238.54,1
165.00,243.35,1
254.00,246.67,1
386.00,249.80,1
127.00,253.46,1
99.00,253.97,1
124.00,249.66,1
54.00,241.40,1
311.00,231.63,1
285.00,224.48,1
144.00,220.10,1
66.00,214.76,1
402.00,209.21,1
210.00,207.00,1
275.00,207.52,1
62.00,207.85,1
129.00,205.60,1
484.00,203.74,1
39.00,205.03,1
323.00,206.55,1
309.00,209.09,1
236.00,213.86,1
333.00,219.63,1
177.00,225.67,1
315.00,231.08,1
542.00,238.70,1
498.00,252.31,1
171.00,268.40,1
462.00,282.52,1
233.00,294.88,1
371.00,305.26,1
335.00,313.89,1
329.00,321.39,1
251.00,326.75,1
97.00,327.68,1
177.00,322.60,1
310.00,314.36,1
222.00,306.13,1
158.00,297.29,1
160.00,286.53,1
89.00,273.59,1
39.00,257.87,1
237.00,240.74,1
188.00,225.56,1
232.00,213.54,1
162.00,204.09,1
46.00,195.13,1
109.00,184.88,1
128.00,174.23,1
364.00,166.41,1
383.00,165.16,1
352.00,170.96,1
420.00,182.13,1
643.00,199.74,1
323.00,223.24,1
113.00,245.29,1
130.00,259.56,1
206.00,266.55,1
310.00,270.09,1
408.00,274.05,1
259.00,279.48,1
98.00,282.83,1
391.00,283.01,1
283.00,283.40,1
203.00,283.92,1
50.00,281.03,1
300.00,274.55,1
124.00,266.96,1
37.00,257.22,1
65.00,243.50,1
175.00,227.88,1
514.00,216.16,1
64.00,210.54,1
209.00,206.34,1
188.00,201.87,1
127.00,197.68,1
228.00,193.50,1
314.00,191.35,1
241.00,192.48,1
360.00,196.54,1
366.00,204.05,1
270.00,214.25,1
188.00,223.97,1
493.00,233.36,1
251.00,244.57,1
504.00,257.43,1
402.00,272.40,1
289.00,287.98,1
244.00,300.41,1
222.00,308.18,1
294.00,312.03,1
312.00,313.93,1
464.00,316.43,1
200.00,319.76,1
54.00,319.34,1
135.00,312.17,1
75.00,299.66,1
135.00,283.75,1
127.00,266.20,1
170.00,248.69,1
158.00,232.33,1
59.00,216.71,1
42.00,200.30,1
206.00,184.08,1
256.00,171.54,1
390.00,165.46,1
544.00,168.56,1
234.00,179.43,1
362.00,193.09,1
343.00,207.85,1
204.00,222.56,1
327.00,235.29,1
371.00,247.34,1
313.00,259.78,1
281.00,271.21,1
294.00,280.59,1
317.00,288.23,1
752.00,298.39,1
411.00,314.63,1
387.00,332.80,1
261.00,347.53,1
468.00,358.62,1
206.00,366.80,1
329.00,370.88,1
281.00,371.17,1
150.00,367.74,1
39.00,358.14,1
151.00,342.15,1
44.00,321.87,1
103.00,298.64,1
193.00,274.80,1
385.00,254.83,1
411.00,242.59,1
408.00,238.59,1
191.00,239.45,1
131.00,239.80,1
298.00,238.36,1
227.00,237.27,1
504.00,239.00,1
239.00,244.56,1
346.00,251.72,1
383.00,259.69,1
323.00,269.00,1
296.00,278.15,1
276.00,285.74,1
411.00,292.47,1
418.00,300.47,1
366.00,309.94,1
383.00,319.57,1
371.00,328.74,1
386.00,337.33,1
252.00,344.24,1
108.00,346.39,1
182.00,341.89,1
140.00,332.24,1
146.00,318.95,1
50.00,302.27,1
91.00,282.37,1
132.00,260.89,1
50.00,239.29,1
270.00,219.12,1
352.00,204.37,1
395.00,197.70,1
284.00,197.85,1
205.00,201.06,1
206.00,204.29,1
310.00,207.65,1
238.00,212.14,1
241.00,217.03,1
182.00,221.03,1
320.00,224.41,1
226.00,228.21,1
420.00,233.41,1
331.00,241.17,1
238.00,249.99,1
293.00,257.52,1
324.00,264.22,1
152.00,269.61,1
320.00,272.64,1
230.00,274.37,1
153.00,274.34,1
81.00,270.36,1
112.00,261.82,1
63.00,249.74,1
54.00,234.73,1
129.00,217.98,1
40.00,200.97,1
127.00,184.17,1
112.00,168.68,1
172.00,155.66,1
237.00,146.32,1
205.00,141.41,1
145.00,139.52,1
230.00,139.47,1
258.00,141.97,1
402.00,148.65,1
366.00,160.60,1
353.00,176.66,1
314.00,194.46,1
87.00,210.38,1
323.00,222.21,1
363.00,232.92,1
330.00,244.73,1
520.00,258.36,1
594.00,276.53,1
305.00,297.86,1
236.00,316.14,1
322.00,328.62,1
219.00,336.29,1
229.00,339.15,1
136.00,336.79,1
260.00,330.13,1
623.00,324.72,1
95.00,323.12,1
58.00,318.42,1
320.00,308.71,1
100.00,297.72,1
126.00,284.79,1
176.00,269.92,1
128.00,254.71,1
190.00,239.85,1
235.00,226.78,1
240.00,216.79,1
329.00,210.70,1
303.00,209.03,1
347.00,211.45,1
150.00,215.80,1
338.00,220.12,1
302.00,225.44,1
346.00,232.65,1
212.00,240.41,1
320.00,247.37,1
378.00,254.65,1
292.00,263.05,1
254.00,270.80,1
288.00,276.73,1
224.00,280.80,1
227.00,282.58,1
156.00,281.50,1
203.00,277.52,1
111.00,270.91,1
127.00,261.51,1
47.00,249.13,1
37.00,233.66,1
69.00,215.77,1
46.00,196.91,1
133.00,178.49,1
43.00,161.53,1
198.00,146.75,1
134.00,135.40,1
296.00,128.58,1
128.00,126.17,1
244.00,126.77,1
168.00,129.54,1
572.00,136.88,1
276.00,151.08,1
385.00,169.42,1
206.00,188.10,1
407.00,206.02,1
264.00,223.43,1
404.00,240.34,1
360.00,257.07,1
564.00,275.21,1
214.00,293.96,1
275.00,308.96,1
276.00,318.76,1
292.00,324.91,1
182.00,327.41,1
247.00,325.95,1
177.00,321.14,1
130.00,312.90,1
51.00,300.35,1
99.00,283.65,1
132.00,264.76,1
61.00,245.12,1
66.00,224.72,1
88.00,204.10,1
145.00,184.89,1
87.00,168.02,1
199.00,153.93,1
171.00,143.55,1
188.00,136.98,1
235.00,133.91,1
325.00,135.25,1
269.00,141.29,1
257.00,150.47,1
257.00,161.05,1
297.00,172.57,1
321.00,185.30,1
310.00,199.16,1
293.00,213.32,1
348.00,227.30,1
307.00,241.11,1
325.00,254.28,1
264.00,265.97,1
251.00,275.19,1
311.00,281.98,1
244.00,287.05,1
215.00,289.80,1
143.00,289.02,1
178.00,284.51,1
68.00,276.39,1
84.00,264.40,1
34.00,248.72,1
71.00,230.46,1
145.00,211.64,1
180.00,194.81,1
136.00,180.88,1
108.00,168.94,1
267.00,159.39,1
201.00,153.86,1
223.00,151.95,1
245.00,152.83,1
311.00,156.91,1
307.00,164.58,1
303.00,175.13,1
299.00,187.34,1
377.00,201.00,1
404.00,216.75,1
337.00,234.11,1
316.00,251.07,1
313.00,266.26,1
350.00,279.68,1
272.00,291.25,1
288.00,300.19,1
261.00,306.23,1
267.00,309.61,1
196.00,310.15,1
169.00,307.15,1
200.00,300.78,1
142.00,291.89,1
137.00,280.61,1
129.00,267.27,1
84.00,252.25,1
44.00,235.30,1
63.00,216.59,1
101.00,197.45,1
88.00,179.31,1
164.00,163.24,1
126.00,150.11,1
196.00,140.22,1
217.00,134.13,1
217.00,132.09,1
250.00,133.61,1
266.00,138.47,1
355.00,146.99,1
293.00,159.07,1
368.00,173.81,1
324.00,190.47,1
486.00,209.25,1
288.00,229.68,1
270.00,248.64,1
276.00,263.96,1
287.00,276.04,1
243.00,285.11,1
254.00,291.08,1
237.00,294.18,1
220.00,294.65,1
217.00,292.66,1
150.00,288.14,1
182.00,280.97,1
118.00,271.42,1
125.00,259.68,1
86.00,245.94,1
54.00,230.29,1
54.00,212.82,1
69.00,194.43,1
97.00,176.43,1
132.00,160.19,1
159.00,146.85,1
211.00,137.31,1
205.00,132.04,1
244.00,130.83,1
222.00,133.12,1
315.00,138.76,1
288.00,147.86,1
310.00,159.82,1
231.00,173.07,1
310.00,186.35,1
247.00,199.35,1
328.00,211.99,1
252.00,224.12,1
268.00,235.02,1
239.00,244.02,1
267.00,251.16,1
297.00,257.13,1
232.00,262.20,1
243.00,265.69,1
200.00,267.15,1
194.00,266.34,1
124.00,262.79,1
165.00,256.41,1
85.00,247.55,1
80.00,236.05,1
54.00,221.92,1
95.00,206.17,1
75.00,190.04,1
83.00,174.20,1
136.00,159.54,1
134.00,147.15,1
186.00,137.76,1
224.00,132.11,1
226.00,130.56,1
234.00,132.60,1
168.00,136.93,1
232.00,142.31,1
289.00,149.30,1
238.00,158.31,1
254.00,168.35,1
344.00,179.43,1
270.00,191.93,1
261.00,204.55,1
143.00,215.11,1
280.00,222.85,1
265.00,229.37,1
204.00,235.12,1
188.00,238.84,1
183.00,240.07,1
193.00,239.21,1
129.00,236.40,1
36.00,230.44,1
50.00,220.28,1
152.00,207.67,1
47.00,194.52,1
44.00,180.44,1
96.00,165.68,1
54.00,151.38,1
226.00,139.06,1
162.00,130.63,1
192.00,126.04,1
202.00,124.59,1
232.00,126.21,1
233.00,130.73,1
257.00,137.76,1
361.00,147.71,1
277.00,160.80,1
274.00,175.24,1
179.00,188.72,1
374.00,201.03,1
268.00,213.61,1
226.00,225.48,1
240.00,234.99,1
228.00,242.17,1
276.00,247.66,1
296.00,252.54,1
184.00,256.59,1
128.00,257.74,1
206.00,255.46,1
127.00,250.82,1
171.00,244.22,1
65.00,235.54,1
36.00,223.92,1
38.00,209.11,1
40.00,192.17,1
71.00,174.50,1
48.00,157.21,1
127.00,141.31,1
151.00,128.29,1
184.00,119.20,1
248.00,114.70,1
194.00,114.68,1
234.00,118.05,1
233.00,124.09,1
302.00,132.87,1
254.00,144.18,1
314.00,157.30,1
273.00,171.66,1
273.00,186.25,1
278.00,200.24,1
279.00,213.39,1
254.00,225.35,1
314.00,236.09,1
255.00,245.84,1
182.00,253.43,1
205.00,257.62,1
141.00,258.33,1
101.00,255.21,1
106.00,248.13,1
92.00,237.92,1
46.00,225.10,1
70.00,210.04,1
34.00,193.45,1
66.00,176.13,1
45.00,158.90,1
55.00,142.28,1
100.00,127.06,1
60.00,113.89,1
174.00,103.37,1
138.00,96.47,1
157.00,93.03,1
157.00,92.40,1
192.00,94.37,1
212.00,98.98,1
195.00,105.88,1
356.00,115.52,1
244.00,128.59,1
260.00,143.43,1
240.00,158.25,1
223.00,172.25,1
201.00,184.53,1
189.00,194.49,1
238.00,202.39,1
194.00,208.80,1
208.00,213.66,1
222.00,217.17,1
170.00,219.44,1
106.00,219.45,1
137.00,216.51,1
97.00,211.02,1
127.00,203.67,1
70.00,194.85,1
48.00,184.30,1
69.00,172.12,1
35.00,159.01,1
40.00,145.26,1
58.00,131.45,1
121.00,118.90,1
206.00,109.61,1
133.00,104.40,1
133.00,101.98,1
143.00,101.26,1
182.00,102.31,1
226.00,105.77,1
246.00,112.16,1
200.00,120.88,1
301.00,131.32,1
254.00,143.64,1
312.00,157.51,1
198.00,171.73,1
226.00,184.57,1
190.00,195.17,1
259.00,203.92,1
97.00,210.48,1
250.00,214.32,1
246.00,217.11,1
180.00,219.67,1
145.00,220.56,1
92.00,218.58,1
