37.00,45.37,1
51.00,45.09,1
36.00,44.83,1
50.00,44.58,1
39.00,44.37,1
55.00,44.25,1
37.00,44.24,1
39.00,44.15,1
35.00,43.87,1
42.00,43.45,1
43.00,43.03,1
44.00,42.71,1
39.00,42.47,1
39.00,42.20,1
39.00,41.90,1
45.00,41.62,1
41.00,41.44,1
36.00,41.27,1
49.00,41.13,1
34.00,41.04,1
56.00,41.05,1
45.00,41.28,1
60.00,41.79,1
35.00,42.46,1
50.00,43.05,1
47.00,43.57,1
66.00,44.27,1
85.00,45.52,1
75.00,47.55,1
50.00,49.87,1
56.00,51.90,1
53.00,53.49,1
48.00,54.68,1
88.00,55.73,1
236.00,58.49,1
77.00,63.93,1
140.00,70.33,1
80.00,76.49,1
80.00,81.78,1
38.00,85.39,1
336.00,89.39,1
50.00,95.77,1
173.00,102.48,1
124.00,108.50,1
65.00,113.50,1
101.00,116.49,1
77.00,117.74,1
113.00,117.84,1
105.00,117.38,1
138.00,116.96,1
45.00,116.30,1
47.00,114.22,1
68.00,110.56,1
162.00,106.98,1
88.00,104.68,1
114.00,103.21,1
62.00,101.81,1
225.00,101.20,1
86.00,102.34,1
88.00,103.83,1
211.00,105.44,1
54.00,107.84,1
324.00,111.39,1
40.00,116.54,1
204.00,121.62,1
55.00,125.62,1
36.00,127.36,1
547.00,130.05,1
131.00,138.21,1
105.00,147.45,1
69.00,152.96,1
197.00,155.72,1
88.00,157.21,1
88.00,156.95,1
34.00,154.03,1
83.00,148.66,1
205.00,143.01,1
236.00,139.99,1
536.00,143.16,1
40.00,152.00,1
71.00,159.38,1
90.00,161.94,1
54.00,161.03,1
64.00,157.20,1
68.00,151.14,1
49.00,143.56,1
36.00,134.71,1
35.00,124.81,1
64.00,114.58,1
111.00,105.29,1
174.00,98.54,1
54.00,94.38,1
234.00,92.36,1
70.00,92.69,1
234.00,94.91,1
209.00,99.61,1
71.00,105.89,1
268.00,112.29,1
277.00,120.75,1
68.00,130.57,1
331.00,139.87,1
340.00,151.15,1
467.00,167.02,1
106.00,184.97,1
99.00,198.93,1
113.00,206.36,1
1000.00,216.13,1
459.00,237.60,1
895.00,269.38,1
610.00,308.53,1
354.00,348.45,1
93.00,378.89,1
316.00,396.40,1
276.00,404.86,1
974.00,413.15,1
470.00,428.04,1
300.00,443.48,1
110.00,450.35,1
161.00,446.38,1
932.00,439.89,1
86.00,437.88,1
177.00,432.47,1
267.00,419.77,1
145.00,403.29,1
412.00,385.42,1
114.00,368.04,1
171.00,349.34,1
121.00,328.30,1
150.00,306.13,1
817.00,289.42,1
648.00,287.34,1
110.00,294.57,1
310.00,300.05,1
127.00,301.35,1
118.00,298.03,1
391.00,291.81,1
710.00,290.72,1
330.00,297.99,1
384.00,308.23,1
659.00,320.36,1
426.00,336.53,1
66.00,350.72,1
218.00,356.38,1
87.00,353.78,1
305.00,345.90,1
134.00,335.35,1
218.00,322.77,1
127.00,308.29,1
71.00,291.53,1
304.00,273.91,1
86.00,257.79,1
536.00,245.37,1
92.00,238.17,1
428.00,234.29,1
487.00,235.43,1
268.00,242.29,1
293.00,250.40,1
96.00,256.14,1
195.00,257.68,1
686.00,260.04,1
264.00,268.33,1
296.00,278.25,1
232.00,285.60,1
357.00,290.96,1
578.00,298.00,1
374.00,309.14,1
406.00,321.70,1
39.00,330.71,1
40.00,330.92,1
83.00,321.81,1
208.00,307.57,1
392.00,293.95,1
308.00,284.63,1
94.00,277.25,1
253.00,268.66,1
45.00,258.60,1
62.00,245.68,1
102.00,229.98,1
40.00,212.99,1
51.00,194.90,1
135.00,176.99,1
48.00,160.58,1
67.00,145.24,1
203.00,131.96,1
280.00,123.74,1
98.00,120.55,1
170.00,119.50,1
89.00,119.11,1
327.00,120.45,1
43.00,124.02,1
187.00,127.59,1
74.00,130.15,1
379.00,133.70,1
195.00,140.45,1
129.00,148.36,1
60.00,153.67,1
260.00,156.84,1
118.00,159.83,1
386.00,164.15,1
70.00,169.92,1
42.00,173.38,1
81.00,172.18,1
56.00,167.67,1
215.00,162.05,1
95.00,157.22,1
79.00,152.36,1
82.00,146.39,1
154.00,140.31,1
61.00,134.77,1
70.00,128.96,1
78.00,122.59,1
144.00,116.75,1
99.00,112.30,1
307.00,110.58,1
106.00,112.45,1
90.00,115.19,1
155.00,117.11,1
386.00,121.25,1
124.00,129.09,1
83.00,136.71,1
118.00,141.31,1
485.00,146.80,1
50.00,155.55,1
134.00,163.00,1
74.00,166.49,1
136.00,167.07,1
78.00,165.45,1
155.00,162.44,1
156.00,159.28,1
127.00,156.52,1
45.00,153.00,1
141.00,148.22,1
42.00,142.70,1
264.00,137.83,1
44.00,134.65,1
126.00,131.73,1
150.00,128.84,1
243.00,127.92,1
53.00,128.73,1
116.00,128.93,1
141.00,128.33,1
62.00,127.43,1
136.00,125.83,1
61.00,123.70,1
214.00,121.90,1
265.00,122.75,1
234.00,127.50,1
38.00,133.29,1
425.00,139.36,1
337.00,149.60,1
131.00,162.65,1
237.00,174.09,1
69.00,182.58,1
292.00,188.50,1
118.00,193.12,1
151.00,195.85,1
56.00,195.36,1
293.00,193.09,1
93.00,191.05,1
116.00,188.09,1
48.00,182.65,1
176.00,175.65,1
115.00,168.78,1
108.00,162.21,1
111.00,155.51,1
470.00,151.90,1
297.00,155.33,1
175.00,163.06,1
151.00,170.14,1
109.00,174.72,1
288.00,177.85,1
168.00,181.41,1
168.00,184.65,1
224.00,187.03,1
46.00,188.13,1
375.00,188.44,1
92.00,189.78,1
426.00,192.66,1
69.00,196.85,1
124.00,199.19,1
147.00,198.20,1
284.00,196.69,1
152.00,196.21,1
350.00,197.12,1
43.00,198.69,1
209.00,198.64,1
66.00,196.38,1
283.00,193.33,1
113.00,190.78,1
62.00,187.25,1
147.00,181.54,1
132.00,175.22,1
683.00,173.69,1
406.00,182.54,1
43.00,196.06,1
120.00,204.87,1
60.00,207.62,1
155.00,206.05,1
470.00,205.00,1
369.00,209.50,1
206.00,217.71,1
58.00,223.68,1
301.00,225.95,1
179.00,227.14,1
204.00,227.65,1
310.00,227.93,1
221.00,229.25,1
63.00,229.40,1
432.00,228.36,1
219.00,229.49,1
312.00,232.57,1
146.00,235.39,1
152.00,236.00,1
450.00,236.09,1
195.00,238.67,1
350.00,242.59,1
251.00,247.04,1
310.00,251.86,1
84.00,255.10,1
379.00,256.18,1
140.00,256.65,1
263.00,256.13,1
212.00,254.51,1
435.00,254.15,1
361.00,257.44,1
330.00,263.77,1
288.00,270.69,1
194.00,276.09,1
568.00,281.35,1
54.00,287.50,1
91.00,288.96,1
46.00,282.74,1
135.00,271.29,1
238.00,258.22,1
218.00,246.59,1
135.00,236.29,1
139.00,225.82,1
106.00,214.67,1
804.00,208.65,1
78.00,212.02,1
251.00,217.62,1
182.00,220.97,1
164.00,222.64,1
444.00,224.45,1
48.00,227.48,1
89.00,227.46,1
169.00,223.16,1
127.00,217.09,1
856.00,215.88,1
127.00,224.14,1
293.00,234.63,1
201.00,242.39,1
431.00,249.59,1
42.00,255.94,1
522.00,260.88,1
676.00,270.59,1
317.00,287.24,1
119.00,302.21,1
123.00,309.16,1
179.00,308.64,1
279.00,304.33,1
205.00,298.78,1
183.00,291.86,1
61.00,282.19,1
184.00,269.53,1
199.00,256.17,1
38.00,242.67,1
159.00,227.94,1
56.00,212.62,1
131.00,197.25,1
671.00,187.25,1
252.00,187.67,1
88.00,192.27,1
148.00,194.16,1
148.00,193.56,1
156.00,191.64,1
394.00,190.91,1
102.00,192.68,1
395.00,195.88,1
899.00,206.64,1
36.00,226.33,1
183.00,243.34,1
254.00,253.61,1
388.00,261.94,1
209.00,269.85,1
332.00,276.35,1
114.00,280.29,1
69.00,279.22,1
313.00,273.80,1
103.00,267.23,1
171.00,259.09,1
93.00,248.76,1
328.00,238.35,1
103.00,229.60,1
128.00,220.83,1
228.00,211.69,1
135.00,203.69,1
72.00,195.57,1
419.00,188.71,1
319.00,187.45,1
220.00,190.89,1
62.00,193.97,1
215.00,194.51,1
117.00,193.50,1
208.00,191.77,1
200.00,190.17,1
328.00,190.40,1
346.00,194.22,1
517.00,203.43,1
218.00,216.88,1
1023.00,236.27,1
68.00,262.58,1
300.00,285.96,1
338.00,302.61,1
223.00,315.17,1
44.00,321.17,1
171.00,319.15,1
153.00,311.49,1
123.00,300.26,1
74.00,285.71,1
88.00,268.13,1
108.00,248.80,1
50.00,228.84,1
302.00,210.30,1
334.00,197.48,1
769.00,195.52,1
376.00,206.13,1
134.00,221.05,1
171.00,231.79,1
435.00,239.83,1
93.00,247.38,1
43.00,250.39,1
121.00,246.93,1
567.00,243.18,1
126.00,243.68,1
108.00,243.65,1
64.00,238.90,1
296.00,231.76,1
66.00,224.62,1
175.00,216.75,1
99.00,207.83,1
366.00,200.29,1
125.00,195.85,1
706.00,196.89,1
81.00,204.57,1
64.00,211.34,1
127.00,212.31,1
276.00,210.95,1
104.00,209.41,1
119.00,206.30,1
495.00,204.03,1
193.00,206.37,1
327.00,211.32,1
700.00,220.91,1
428.00,238.86,1
52.00,257.89,1
222.00,270.07,1
142.00,275.70,1
271.00,277.25,1
60.00,275.42,1
282.00,270.49,1
72.00,263.52,1
118.00,254.03,1
267.00,243.19,1
154.00,233.58,1
280.00,225.62,1
293.00,220.43,1
132.00,217.45,1
173.00,214.02,1
92.00,209.05,1
576.00,206.07,1
88.00,208.00,1
137.00,209.94,1
1013.00,215.85,1
66.00,231.59,1
470.00,249.30,1
330.00,265.56,1
134.00,279.59,1
816.00,292.69,1
144.00,308.74,1
276.00,322.13,1
44.00,327.78,1
477.00,328.16,1
118.00,326.81,1
99.00,321.73,1
467.00,313.71,1
363.00,308.82,1
509.00,308.96,1
764.00,316.58,1
298.00,331.32,1
304.00,345.33,1
312.00,354.63,1
46.00,357.96,1
151.00,353.28,1
276.00,343.25,1
563.00,334.75,1
174.00,330.24,1
50.00,323.85,1
140.00,311.66,1
571.00,299.53,1
548.00,295.52,1
383.00,299.63,1
236.00,305.65,1
235.00,309.12,1
231.00,309.25,1
68.00,305.49,1
90.00,296.31,1
255.00,283.69,1
82.00,270.36,1
250.00,256.83,1
62.00,243.33,1
48.00,228.53,1
236.00,213.00,1
308.00,201.03,1
166.00,193.68,1
66.00,187.53,1
425.00,182.63,1
121.00,181.43,1
223.00,181.86,1
188.00,182.42,1
450.00,185.54,1
184.00,192.33,1
81.00,198.56,1
187.00,201.10,1
420.00,203.62,1
85.00,208.03,1
243.00,211.38,1
84.00,212.34,1
149.00,210.65,1
123.00,206.54,1
160.00,201.16,1
72.00,194.68,1
478.00,189.79,1
656.00,193.78,1
96.00,205.96,1
276.00,217.71,1
82.00,225.48,1
121.00,228.60,1
402.00,229.40,1
158.00,231.40,1
361.00,234.19,1
130.00,236.91,1
100.00,237.08,1
266.00,234.29,1
206.00,231.35,1
587.00,231.98,1
156.00,237.52,1
174.00,242.75,1
236.00,244.77,1
422.00,247.05,1
83.00,250.23,1
168.00,250.59,1
79.00,246.67,1
198.00,239.86,1
137.00,231.80,1
273.00,224.16,1
219.00,218.40,1
108.00,213.58,1
42.00,206.78,1
270.00,198.58,1
102.00,191.44,1
107.00,184.48,1
333.00,178.46,1
287.00,176.83,1
192.00,178.85,1
82.00,180.69,1
153.00,180.31,1
85.00,177.97,1
60.00,173.46,1
112.00,166.91,1
173.00,160.18,1
127.00,154.60,1
219.00,150.60,1
251.00,149.35,1
287.00,151.80,1
43.00,155.83,1
76.00,157.43,1
86.00,155.76,1
144.00,152.58,1
272.00,150.47,1
282.00,151.89,1
193.00,156.44,1
80.00,160.90,1
73.00,162.52,1
272.00,162.48,1
59.00,162.67,1
97.00,161.44,1
741.00,163.39,1
39.00,172.92,1
415.00,184.65,1
203.00,196.33,1
136.00,206.63,1
86.00,212.19,1
120.00,212.91,1
84.00,209.83,1
306.00,205.44,1
747.00,207.22,1
263.00,218.82,1
178.00,232.45,1
569.00,244.94,1
145.00,258.42,1
479.00,271.18,1
612.00,286.10,1
131.00,303.13,1
51.00,313.72,1
69.00,313.75,1
136.00,306.13,1
112.00,293.95,1
52.00,278.41,1
130.00,260.22,1
126.00,241.40,1
195.00,223.88,1
43.00,207.76,1
77.00,191.59,1
291.00,177.00,1
101.00,166.36,1
390.00,160.10,1
43.00,157.70,1
113.00,155.53,1
84.00,151.67,1
76.00,146.66,1
49.00,140.32,1
112.00,133.23,1
319.00,128.33,1
210.00,128.35,1
242.00,132.26,1
171.00,138.01,1
99.00,143.48,1
149.00,147.16,1
85.00,149.08,1
371.00,151.31,1
74.00,155.47,1
376.00,160.89,1
324.00,169.24,1
442.00,182.13,1
279.00,198.20,1
170.00,213.53,1
41.00,223.52,1
176.00,227.30,1
54.00,226.39,1
89.00,221.25,1
67.00,212.50,1
236.00,202.61,1
90.00,193.58,1
103.00,184.61,1
108.00,175.02,1
344.00,167.43,1
43.00,163.07,1
79.00,158.57,1
541.00,156.06,1
451.00,162.34,1
601.00,178.70,1
61.00,199.38,1
226.00,216.34,1
42.00,226.64,1
174.00,230.95,1
71.00,230.36,1
454.00,228.65,1
397.00,231.18,1
302.00,238.28,1
79.00,244.72,1
79.00,245.95,1
138.00,241.78,1
295.00,235.99,1
189.00,231.37,1
164.00,227.12,1
468.00,224.52,1
261.00,226.39,1
60.00,229.01,1
197.00,228.22,1
199.00,225.46,1
80.00,221.48,1
80.00,214.71,1
77.00,205.06,1
412.00,196.29,1
88.00,191.34,1
82.00,186.79,1
141.00,180.41,1
89.00,173.32,1
75.00,165.44,1
125.00,157.01,1
127.00,149.14,1
185.00,142.90,1
178.00,139.00,1
333.00,138.68,1
177.00,142.35,1
98.00,146.92,1
225.00,150.48,1
354.00,155.69,1
241.00,164.22,1
86.00,172.91,1
63.00,177.68,1
272.00,179.43,1
416.00,183.29,1
151.00,190.59,1
70.00,196.34,1
78.00,197.25,1
125.00,194.34,1
126.00,189.44,1
259.00,184.71,1
72.00,180.93,1
67.00,175.95,1
288.00,170.42,1
45.00,166.28,1
38.00,161.06,1
260.00,154.90,1
293.00,152.14,1
103.00,152.89,1
132.00,153.62,1
224.00,153.98,1
47.00,154.34,1
344.00,154.99,1
43.00,156.78,1
340.00,159.31,1
196.00,163.56,1
88.00,168.15,1
94.00,169.93,1
245.00,169.93,1
128.00,170.20,1
448.00,172.61,1
208.00,178.96,1
216.00,186.81,1
59.00,192.39,1
51.00,193.48,1
46.00,189.56,1
251.00,183.58,1
179.00,178.97,1
206.00,176.31,1
204.00,175.02,1
218.00,175.14,1
261.00,176.90,1
354.00,181.44,1
194.00,188.51,1
61.00,194.30,1
54.00,195.34,1
105.00,191.96,1
202.00,186.92,1
166.00,182.48,1
47.00,177.89,1
41.00,171.01,1
187.00,162.75,1
170.00,155.93,1
267.00,152.20,1
245.00,152.14,1
367.00,156.42,1
70.00,163.20,1
42.00,167.50,1
271.00,168.75,1
291.00,171.35,1
274.00,177.00,1
140.00,183.52,1
102.00,187.83,1
387.00,190.94,1
232.00,196.15,1
131.00,201.75,1
127.00,204.44,1
78.00,203.55,1
117.00,199.45,1
135.00,193.39,1
38.00,185.91,1
92.00,176.60,1
270.00,167.75,1
145.00,161.93,1
111.00,157.69,1
87.00,153.01,1
165.00,148.11,1
98.00,143.74,1
340.00,141.47,1
222.00,143.40,1
62.00,147.13,1
450.00,151.67,1
215.00,159.86,1
205.00,169.80,1
306.00,179.44,1
139.00,188.72,1
116.00,195.29,1
44.00,197.24,1
171.00,195.29,1
153.00,191.78,1
48.00,187.10,1
163.00,180.78,1
280.00,175.41,1
205.00,173.18,1
217.00,173.26,1
48.00,173.26,1
91.00,170.89,1
128.00,166.40,1
114.00,161.28,1
417.00,158.47,1
406.00,162.27,1
183.00,171.50,1
122.00,180.24,1
215.00,186.23,1
167.00,190.58,1
167.00,193.48,1
214.00,195.19,1
208.00,196.68,1
70.00,197.09,1
280.00,196.07,1
143.00,195.20,1
55.00,193.22,1
289.00,189.78,1
104.00,186.99,1
364.00,185.81,1
232.00,187.59,1
129.00,190.66,1
206.00,192.45,1
249.00,193.97,1
293.00,196.96,1
225.00,201.47,1
177.00,205.83,1
163.00,208.46,1
48.00,208.12,1
62.00,203.67,1
83.00,195.65,1
195.00,186.56,1
215.00,179.17,1
62.00,173.31,1
223.00,167.77,1
57.00,162.68,1
182.00,157.72,1
136.00,153.34,1
219.00,150.50,1
43.00,148.48,1
332.00,147.30,1
94.00,148.16,1
65.00,148.75,1
130.00,147.17,1
209.00,145.52,1
323.00,146.67,1
112.00,150.70,1
188.00,154.86,1
42.00,157.27,1
175.00,157.61,1
146.00,157.10,1
145.00,156.57,1
310.00,157.15,1
122.00,159.75,1
59.00,161.51,1
191.00,161.04,1
56.00,159.47,1
75.00,156.12,1
198.00,151.74,1
205.00,148.99,1
69.00,147.58,1
44.00,144.82,1
83.00,139.90,1
160.00,134.60,1
134.00,130.55,1
409.00,130.08,1
554.00,137.93,1
84.00,152.66,1
152.00,166.03,1
104.00,174.76,1
148.00,179.81,1
54.00,181.43,1
216.00,180.52,1
41.00,178.22,1
251.00,175.12,1
40.00,171.77,1
278.00,168.59,1
219.00,167.33,1
84.00,167.48,1
116.00,166.21,1
102.00,163.20,1
92.00,158.94,1
139.00,153.93,1
157.00,149.39,1
183.00,146.27,1
71.00,143.97,1
108.00,141.03,1
189.00,138.07,1
87.00,135.99,1
88.00,133.65,1
357.00,132.57,1
211.00,135.81,1
54.00,140.68,1
149.00,143.60,1
55.00,144.39,1
169.00,143.75,1
82.00,142.43,1
226.00,141.34,1
64.00,140.78,1
356.00,141.58,1
399.00,147.27,1
112.00,157.19,1
167.00,166.06,1
317.00,173.62,1
522.00,184.60,1
183.00,199.66,1
85.00,212.54,1
244.00,220.21,1
90.00,224.21,1
38.00,223.63,1
197.00,218.77,1
368.00,214.45,1
133.00,212.93,1
172.00,211.39,1
198.00,208.81,1
57.00,205.07,1
168.00,199.44,1
113.00,192.75,1
246.00,186.58,1
68.00,181.28,1
183.00,175.93,1
75.00,170.23,1
125.00,164.05,1
169.00,158.01,1
98.00,152.84,1
39.00,147.19,1
223.00,141.32,1
75.00,136.83,1
184.00,133.50,1
724.00,136.25,1
345.00,150.33,1
208.00,169.50,1
60.00,185.24,1
56.00,194.23,1
456.00,199.80,1
432.00,209.03,1
80.00,220.72,1
158.00,228.46,1
124.00,231.03,1
38.00,228.96,1
65.00,221.96,1
521.00,215.00,1
179.00,213.23,1
201.00,213.78,1
375.00,215.03,1
152.00,218.00,1
78.00,219.30,1
38.00,215.87,1
45.00,207.75,1
190.00,197.30,1
328.00,189.06,1
52.00,183.99,1
340.00,180.46,1
203.00,179.54,1
225.00,180.93,1
140.00,182.57,1
202.00,183.61,1
312.00,185.42,1
149.00,188.74,1
204.00,191.75,1
130.00,193.38,1
155.00,193.34,1
177.00,192.00,1
435.00,192.45,1
162.00,196.45,1
424.00,202.79,1
99.00,210.10,1
43.00,214.18,1
258.00,213.79,1
165.00,212.41,1
99.00,210.02,1
50.00,204.63,1
399.00,198.71,1
357.00,197.61,1
211.00,201.24,1
174.00,205.23,1
246.00,208.13,1
383.00,212.15,1
78.00,217.20,1
97.00,219.12,1
270.00,217.76,1
258.00,216.93,1
139.00,216.77,1
58.00,214.40,1
77.00,208.22,1
131.00,199.48,1
103.00,189.89,1
183.00,180.62,1
348.00,174.35,1
60.00,171.57,1
173.00,169.08,1
151.00,166.21,1
43.00,162.80,1
168.00,158.15,1
114.00,153.47,1
497.00,152.22,1
99.00,156.23,1
360.00,162.86,1
279.00,171.60,1
46.00,180.54,1
429.00,187.98,1
186.00,196.43,1
95.00,203.76,1
385.00,208.87,1
304.00,215.53,1
58.00,222.15,1
390.00,226.51,1
274.00,231.53,1
370.00,238.51,1
249.00,246.40,1
246.00,253.45,1
416.00,260.00,1
234.00,267.25,1
52.00,271.64,1
80.00,269.42,1
270.00,262.82,1
202.00,255.88,1
175.00,249.17,1
458.00,244.19,1
290.00,243.73,1
372.00,246.99,1
62.00,250.36,1
88.00,249.41,1
217.00,244.20,1
288.00,238.86,1
431.00,237.06,1
124.00,238.40,1
79.00,237.79,1
166.00,233.15,1
148.00,226.51,1
68.00,218.34,1
132.00,208.34,1
184.00,198.11,1
499.00,192.06,1
329.00,193.58,1
434.00,201.57,1
72.00,211.48,1
304.00,219.30,1
681.00,229.28,1
111.00,244.00,1
136.00,255.69,1
70.00,259.80,1
55.00,257.07,1
190.00,249.52,1
154.00,240.36,1
202.00,231.24,1
186.00,222.80,1
117.00,214.73,1
332.00,207.71,1
119.00,202.94,1
65.00,197.86,1
64.00,190.03,1
331.00,182.13,1
295.00,178.56,1
214.00,179.40,1
168.00,181.49,1
288.00,184.01,1
213.00,187.78,1
203.00,192.01,1
227.00,195.88,1
137.00,198.90,1
254.00,200.86,1
102.00,201.88,1
345.00,202.62,1
205.00,204.71,1
69.00,206.34,1
130.00,204.67,1
353.00,202.26,1
41.00,200.99,1
57.00,197.45,1
304.00,192.02,1
141.00,188.20,1
281.00,186.25,1
656.00,189.92,1
129.00,200.73,1
144.00,211.05,1
349.00,218.25,1
71.00,224.04,1
610.00,230.14,1
64.00,238.36,1
290.00,245.22,1
63.00,248.18,1
98.00,246.47,1
41.00,239.41,1
235.00,229.57,1
250.00,220.79,1
68.00,213.46,1
194.00,205.63,1
253.00,198.74,1
179.00,194.22,1
32.00,189.68,1
201.00,183.63,1
376.00,179.65,1
223.00,180.47,1
335.00,184.70,1
201.00,190.86,1
82.00,196.00,1
308.00,199.00,1
187.00,202.01,1
350.00,206.16,1
83.00,210.52,1
67.00,211.70,1
182.00,208.89,1
522.00,207.72,1
169.00,211.50,1
237.00,216.48,1
695.00,224.21,1
155.00,237.45,1
130.00,249.03,1
234.00,254.93,1
45.00,256.31,1
178.00,253.02,1
212.00,247.25,1
111.00,240.55,1
386.00,234.29,1
282.00,231.40,1
349.00,232.35,1
92.00,234.24,1
113.00,233.30,1
302.00,229.98,1
405.00,229.13,1
255.00,232.20,1
267.00,236.63,1
151.00,239.95,1
68.00,239.80,1
107.00,234.96,1
229.00,227.76,1
403.00,222.76,1
505.00,224.39,1
291.00,232.28,1
48.00,239.99,1
126.00,242.11,1
129.00,239.25,1
176.00,233.79,1
302.00,228.38,1
44.00,223.53,1
118.00,216.60,1
160.00,207.81,1
242.00,199.88,1
45.00,192.94,1
485.00,188.05,1
59.00,186.99,1
139.00,186.14,1
77.00,182.76,1
140.00,177.74,1
344.00,173.84,1
83.00,172.69,1
74.00,170.93,1
178.00,167.34,1
64.00,163.15,1
445.00,160.79,1
160.00,162.90,1
396.00,168.72,1
85.00,176.15,1
80.00,181.30,1
88.00,181.99,1
52.00,178.99,1
46.00,172.76,1
95.00,164.28,1
514.00,158.63,1
45.00,158.77,1
171.00,160.03,1
152.00,160.15,1
52.00,159.29,1
206.00,157.20,1
57.00,154.73,1
90.00,151.11,1
502.00,149.48,1
47.00,152.71,1
410.00,158.44,1
295.00,167.13,1
341.00,179.32,1
208.00,192.43,1
52.00,202.71,1
245.00,208.44,1
219.00,212.19,1
275.00,215.96,1
116.00,218.99,1
78.00,218.91,1
202.00,215.46,1
268.00,211.92,1
338.00,211.12,1
290.00,213.76,1
229.00,218.18,1
96.00,221.32,1
212.00,221.61,1
255.00,220.90,1
326.00,221.71,1
118.00,223.47,1
304.00,224.57,1
48.00,224.38,1
104.00,220.98,1
38.00,213.56,1
153.00,203.62,1
265.00,194.35,1
70.00,187.12,1
451.00,182.52,1
37.00,181.35,1
157.00,180.11,1
326.00,178.80,1
98.00,179.39,1
69.00,178.80,1
404.00,177.73,1
89.00,179.04,1
282.00,181.26,1
99.00,183.18,1
118.00,183.48,1
168.00,181.83,1
210.00,180.04,1
374.00,180.70,1
172.00,184.59,1
318.00,190.01,1
277.00,196.83,1
192.00,204.32,1
134.00,209.81,1
49.00,211.23,1
85.00,207.89,1
497.00,204.39,1
127.00,205.01,1
260.00,207.08,1
213.00,208.91,1
161.00,210.39,1
93.00,209.76,1
252.00,207.31,1
321.00,206.17,1
358.00,208.88,1
241.00,214.58,1
259.00,220.92,1
215.00,226.48,1
208.00,230.62,1
127.00,232.40,1
220.00,231.68,1
167.00,229.52,1
147.00,226.08,1
62.00,220.28,1
132.00,211.89,1
171.00,202.62,1
171.00,194.20,1
126.00,186.66,1
147.00,179.47,1
78.00,172.17,1
72.00,164.02,1
48.00,154.61,1
59.00,144.21,1
120.00,133.91,1
166.00,125.50,1
88.00,119.45,1
153.00,114.98,1
55.00,111.50,1
228.00,109.24,1
51.00,108.56,1
95.00,107.97,1
200.00,107.60,1
77.00,108.48,1
349.00,111.37,1
111.00,117.21,1
205.00,124.20,1
90.00,130.46,1
131.00,135.17,1
38.00,137.48,1
214.00,138.15,1
115.00,138.90,1
73.00,139.15,1
66.00,137.42,1
107.00,134.16,1
196.00,131.18,1
186.00,130.25,1
85.00,130.64,1
69.00,130.12,1
76.00,127.89,1
251.00,125.87,1
281.00,127.32,1
78.00,131.59,1
384.00,137.27,1
88.00,144.75,1
56.00,150.73,1
300.00,154.42,1
255.00,159.68,1
60.00,165.61,1
54.00,168.16,1
194.00,167.51,1
91.00,165.86,1
149.00,163.46,1
323.00,162.13,1
386.00,165.58,1
158.00,173.12,1
71.00,179.52,1
218.00,182.73,1
446.00,187.02,1
208.00,195.08,1
114.00,202.82,1
102.00,206.41,1
132.00,205.98,1
226.00,203.72,1
215.00,201.87,1
74.00,199.82,1
203.00,196.31,1
82.00,191.79,1
63.00,185.51,1
127.00,177.36,1
152.00,169.18,1
229.00,162.84,1
198.00,159.33,1
95.00,157.35,1
317.00,156.48,1
84.00,157.37,1
208.00,158.57,1
174.00,159.82,1
155.00,161.36,1
145.00,162.40,1
165.00,162.85,1
217.00,163.53,1
147.00,164.81,1
189.00,166.13,1
123.00,166.99,1
103.00,166.57,1
183.00,164.97,1
54.00,162.62,1
154.00,159.13,1
43.00,154.56,1
239.00,149.93,1
210.00,147.51,1
278.00,148.55,1
84.00,151.48,1
174.00,153.82,1
276.00,156.37,1
151.00,160.40,1
194.00,164.54,1
200.00,168.36,1
52.00,171.02,1
740.00,176.02,1
271.00,188.96,1
220.00,205.03,1
227.00,218.21,1
170.00,227.98,1
213.00,234.29,1
249.00,238.31,1
161.00,240.70,1
118.00,240.25,1
539.00,239.71,1
244.00,243.29,1
575.00,251.23,1
60.00,261.02,1
346.00,268.43,1
183.00,272.90,1
266.00,275.34,1
227.00,275.87,1
155.00,274.37,1
446.00,272.28,1
286.00,272.72,1
79.00,273.10,1
163.00,269.38,1
156.00,262.30,1
46.00,252.55,1
216.00,240.56,1
412.00,230.85,1
241.00,226.40,1
59.00,223.41,1
58.00,217.15,1
220.00,208.48,1
172.00,200.53,1
171.00,193.93,1
247.00,188.81,1
160.00,185.48,1
259.00,183.66,1
58.00,182.28,1
440.00,181.95,1
65.00,183.98,1
220.00,185.97,1
376.00,188.61,1
245.00,194.46,1
65.00,200.18,1
44.00,201.36,1
122.00,197.90,1
204.00,192.77,1
120.00,187.87,1
154.00,182.88,1
85.00,177.26,1
322.00,172.47,1
242.00,171.16,1
75.00,171.80,1
56.00,170.30,1
155.00,166.38,1
128.00,161.98,1
46.00,157.04,1
240.00,151.89,1
59.00,147.80,1
239.00,144.74,1
240.00,144.04,1
140.00,145.86,1
241.00,148.73,1
236.00,153.08,1
117.00,158.20,1
329.00,163.47,1
289.00,170.85,1
236.00,180.27,1
109.00,188.66,1
228.00,194.42,1
254.00,199.15,1
218.00,204.04,1
153.00,207.97,1
129.00,209.47,1
95.00,207.89,1
131.00,203.47,1
155.00,197.62,1
99.00,191.10,1
122.00,183.75,1
75.00,175.55,1
71.00,166.36,1
176.00,157.13,1
152.00,149.67,1
63.00,143.55,1
94.00,137.22,1
37.00,130.23,1
127.00,123.05,1
594.00,120.86,1
164.00,127.44,1
219.00,137.66,1
105.00,146.72,1
158.00,153.61,1
48.00,157.60,1
100.00,158.34,1
250.00,157.77,1
143.00,158.28,1
128.00,158.92,1
93.00,158.23,1
269.00,157.30,1
42.00,156.96,1
56.00,154.89,1
41.00,149.84,1
535.00,146.62,1
117.00,149.47,1
348.00,155.91,1
42.00,162.73,1
100.00,166.94,1
92.00,167.40,1
91.00,165.30,1
48.00,160.87,1
117.00,154.70,1
74.00,147.83,1
43.00,140.24,1
45.00,131.52,1
130.00,122.73,1
258.00,116.64,1
280.00,115.77,1
75.00,118.67,1
507.00,124.71,1
82.00,134.83,1
268.00,145.84,1
352.00,157.40,1
68.00,169.60,1
144.00,178.49,1
84.00,182.98,1
121.00,183.94,1
78.00,181.92,1
96.00,177.43,1
56.00,170.84,1
179.00,163.35,1
106.00,156.55,1
39.00,149.77,1
60.00,141.65,1
81.00,132.77,1
125.00,124.50,1
268.00,119.07,1
133.00,117.57,1
154.00,118.26,1
88.00,119.24,1
154.00,120.05,1
204.00,121.66,1
38.00,123.84,1
322.00,126.38,1
382.00,132.93,1
353.00,145.57,1
162.00,160.69,1
237.00,174.43,1
64.00,184.86,1
212.00,191.40,1
116.00,195.04,1
244.00,197.02,1
412.00,200.43,1
308.00,207.81,1
235.00,217.04,1
102.00,224.16,1
74.00,226.41,1
110.00,223.53,1
220.00,218.19,1
213.00,213.23,1
123.00,208.76,1
137.00,203.38,1
39.00,196.16,1
166.00,187.28,1
262.00,179.58,1
355.00,176.42,1
198.00,177.87,1
62.00,179.81,1
117.00,178.99,1
271.00,177.13,1
353.00,178.22,1
418.00,184.65,1
74.00,193.84,1
89.00,199.85,1
292.00,202.28,1
43.00,203.36,1
133.00,201.70,1
88.00,197.06,1
41.00,189.87,1
171.00,180.97,1
279.00,173.69,1
66.00,169.02,1
76.00,163.90,1
123.00,157.42,1
548.00,154.51,1
220.00,159.03,1
282.00,167.75,1
58.00,175.79,1
129.00,180.44,1
155.00,181.92,1
127.00,181.71,1
62.00,179.43,1
309.00,176.38,1
287.00,176.27,1
96.00,178.50,1
49.00,178.64,1
230.00,176.33,1
70.00,173.52,1
62.00,169.22,1
190.00,163.53,1
130.00,158.53,1
65.00,153.74,1
155.00,148.46,1
164.00,143.99,1
100.00,140.65,1
184.00,137.99,1
65.00,135.81,1
368.00,135.29,1
467.00,141.00,1
189.00,152.99,1
132.00,165.14,1
255.00,174.76,1
151.00,182.84,1
241.00,189.54,1
39.00,193.89,1
129.00,194.47,1
246.00,192.98,1
69.00,191.16,1
134.00,187.74,1
70.00,182.29,1
226.00,176.26,1
75.00,170.79,1
72.00,164.68,1
159.00,157.71,1
88.00,151.14,1
127.00,144.97,1
122.00,139.32,1
78.00,134.13,1
218.00,129.85,1
120.00,127.55,1
425.00,128.92,1
318.00,136.38,1
320.00,149.01,1
295.00,164.12,1
37.00,178.02,1
58.00,186.22,1
45.00,187.80,1
242.00,185.99,1
240.00,184.82,1
225.00,185.68,1
235.00,187.85,1
236.00,191.00,1
237.00,194.90,1
459.00,201.12,1
130.00,209.87,1
62.00,216.04,1
55.00,216.12,1
162.00,211.73,1
342.00,207.35,1
38.00,204.48,1
196.00,200.59,1
113.00,195.47,1
192.00,190.20,1
79.00,184.66,1
86.00,177.94,1
83.00,169.69,1
119.00,160.87,1
357.00,154.47,1
56.00,151.87,1
422.00,152.24,1
251.00,157.05,1
142.00,164.30,1
242.00,170.80,1
127.00,176.31,1
129.00,179.83,1
375.00,182.84,1
40.00,186.71,1
146.00,188.45,1
37.00,186.57,1
95.00,181.54,1
77.00,174.24,1
120.00,165.96,1
84.00,157.50,1
232.00,150.16,1
140.00,145.30,1
88.00,141.76,1
92.00,137.74,1
134.00,133.49,1
152.00,130.08,1
60.00,127.30,1
101.00,124.05,1
182.00,121.15,1
59.00,119.27,1
67.00,116.93,1
166.00,114.25,1
310.00,114.31,1
273.00,119.44,1
332.00,129.21,1
127.00,141.17,1
374.00,153.55,1
293.00,167.55,1
126.00,181.63,1
127.00,191.86,1
162.00,197.75,1
99.00,200.23,1
454.00,202.22,1
130.00,206.48,1
133.00,209.89,1
127.00,209.87,1
49.00,206.49,1
98.00,199.75,1
115.00,190.97,1
53.00,181.11,1
90.00,170.20,1
244.00,160.22,1
34.00,152.41,1
144.00,145.21,1
188.00,139.15,1
175.00,135.71,1
237.00,135.02,1
544.00,139.91,1
264.00,152.24,1
352.00,168.38,1
224.00,184.94,1
270.00,200.26,1
293.00,214.02,1
55.00,224.92,1
282.00,231.39,1
128.00,234.81,1
208.00,235.80,1
68.00,233.78,1
95.00,228.11,1
120.00,219.39,1
46.00,208.65,1
137.00,196.43,1
85.00,184.01,1
163.00,172.37,1
49.00,161.62,1
97.00,151.06,1
106.00,140.92,1
221.00,132.95,1
252.00,129.13,1
178.00,129.46,1
150.00,131.72,1
418.00,136.46,1
190.00,145.30,1
114.00,154.76,1
138.00,161.42,1
266.00,166.56,1
317.00,173.14,1
406.00,183.22,1
283.00,196.50,1
440.00,211.78,1
407.00,229.41,1
348.00,248.46,1
274.00,266.11,1
238.00,280.08,1
104.00,288.48,1
396.00,292.28,1
112.00,293.82,1
79.00,291.02,1
114.00,282.46,1
103.00,269.95,1
60.00,254.63,1
278.00,238.71,1
129.00,224.87,1
145.00,212.55,1
322.00,202.28,1
229.00,196.29,1
214.00,193.46,1
109.00,191.24,1
320.00,189.45,1
548.00,192.60,1
360.00,203.25,1
183.00,216.65,1
159.00,226.97,1
231.00,233.35,1
153.00,236.86,1
302.00,238.60,1
173.00,239.73,1
160.00,239.32,1
267.00,237.35,1
327.00,236.45,1
120.00,236.56,1
206.00,235.22,1
95.00,231.59,1
57.00,224.91,1
62.00,214.57,1
138.00,202.24,1
78.00,189.62,1
161.00,177.50,1
51.00,166.14,1
88.00,154.91,1
263.00,145.30,1
215.00,140.07,1
100.00,138.02,1
358.00,138.32,1
202.00,142.39,1
223.00,148.94,1
187.00,155.91,1
290.00,163.36,1
180.00,171.46,1
191.00,178.89,1
332.00,186.02,1
144.00,193.55,1
310.00,200.56,1
143.00,206.76,1
360.00,212.53,1
171.00,218.45,1
230.00,223.42,1
243.00,227.05,1
238.00,230.18,1
358.00,233.84,1
79.00,237.44,1
187.00,238.16,1
130.00,235.64,1
238.00,231.58,1
210.00,227.59,1
68.00,223.04,1
156.00,216.37,1
74.00,207.89,1
102.00,197.95,1
220.00,187.96,1
266.00,180.86,1
371.00,178.79,1
126.00,180.68,1
215.00,183.07,1
571.00,188.17,1
105.00,197.94,1
255.00,207.38,1
206.00,214.49,1
227.00,220.18,1
532.00,227.08,1
203.00,237.24,1
200.00,246.52,1
296.00,252.86,1
158.00,257.18,1
299.00,259.47,1
231.00,260.80,1
250.00,261.53,1
179.00,260.95,1
183.00,258.41,1
102.00,253.30,1
301.00,246.70,1
218.00,241.15,1
135.00,236.16,1
127.00,229.64,1
147.00,221.52,1
271.00,213.75,1
84.00,207.17,1
264.00,201.13,1
127.00,195.99,1
280.00,192.21,1
163.00,190.03,1
286.00,189.46,1
109.00,189.73,1
164.00,189.18,1
477.00,190.05,1
177.00,195.14,1
200.00,201.07,1
325.00,206.38,1
314.00,213.22,1
318.00,221.85,1
265.00,231.15,1
211.00,239.32,1
240.00,245.28,1
352.00,250.32,1
347.00,256.56,1
201.00,263.11,1
98.00,266.42,1
71.00,263.87,1
127.00,256.28,1
249.00,246.80,1
114.00,237.54,1
80.00,227.26,1
90.00,214.96,1
193.00,202.24,1
154.00,191.09,1
194.00,182.04,1
238.00,175.60,1
433.00,174.06,1
257.00,178.37,1
143.00,184.79,1
108.00,188.95,1
231.00,190.74,1
124.00,191.52,1
224.00,191.60,1
219.00,191.87,1
804.00,197.91,1
192.00,212.62,1
211.00,228.34,1
278.00,240.10,1
167.00,248.83,1
298.00,254.76,1
427.00,260.69,1
263.00,268.26,1
348.00,275.89,1
326.00,283.20,1
85.00,288.37,1
140.00,288.00,1
73.00,281.77,1
180.00,271.59,1
79.00,259.10,1
357.00,246.78,1
212.00,237.57,1
307.00,231.69,1
291.00,228.78,1
157.00,227.64,1
118.00,225.23,1
144.00,220.36,1
286.00,215.11,1
166.00,211.30,1
208.00,208.25,1
213.00,205.61,1
344.00,204.89,1
308.00,207.62,1
255.00,212.86,1
226.00,218.43,1
248.00,223.34,1
380.00,228.79,1
281.00,236.01,1
149.00,242.72,1
379.00,247.70,1
260.00,252.93,1
364.00,258.98,1
314.00,265.78,1
275.00,272.64,1
94.00,276.75,1
183.00,276.07,1
76.00,270.81,1
74.00,261.22,1
232.00,249.05,1
56.00,236.46,1
127.00,222.98,1
262.00,210.10,1
214.00,200.51,1
76.00,192.92,1
84.00,184.49,1
174.00,175.44,1
199.00,167.99,1
127.00,162.55,1
272.00,159.04,1
113.00,157.62,1
239.00,157.43,1
215.00,158.76,1
374.00,163.16,1
364.00,172.13,1
150.00,183.60,1
305.00,194.26,1
226.00,204.09,1
151.00,212.32,1
151.00,217.14,1
640.00,222.65,1
311.00,233.89,1
163.00,246.50,1
116.00,254.08,1
173.00,256.15,1
91.00,253.79,1
60.00,246.93,1
161.00,236.60,1
116.00,225.02,1
108.00,212.92,1
134.00,200.51,1
73.00,188.15,1
63.00,175.36,1
302.00,163.98,1
150.00,156.68,1
227.00,152.83,1
200.00,151.53,1
188.00,152.25,1
128.00,153.59,1
252.00,155.29,1
172.00,158.10,1
118.00,160.92,1
323.00,163.78,1
241.00,168.87,1
356.00,176.81,1
326.00,187.61,1
313.00,200.56,1
156.00,212.93,1
510.00,224.68,1
270.00,238.15,1
184.00,250.72,1
68.00,257.84,1
154.00,258.60,1
92.00,254.44,1
67.00,246.16,1
247.00,235.62,1
86.00,225.15,1
178.00,214.67,1
227.00,205.14,1
143.00,197.53,1
231.00,191.37,1
252.00,187.46,1
138.00,185.53,1
213.00,184.06,1
211.00,183.26,1
298.00,184.34,1
361.00,188.73,1
274.00,196.50,1
371.00,206.54,1
126.00,216.78,1
298.00,225.01,1
343.00,232.63,1
371.00,241.94,1
208.00,251.71,1
155.00,258.57,1
116.00,260.46,1
99.00,257.27,1
297.00,251.42,1
335.00,247.16,1
128.00,244.81,1
196.00,241.43,1
313.00,237.75,1
117.00,234.86,1
115.00,230.36,1
154.00,223.42,1
90.00,215.00,1
227.00,206.14,1
255.00,199.20,1
124.00,194.45,1
179.00,190.05,1
282.00,186.75,1
207.00,185.91,1
265.00,187.07,1
277.00,190.15,1
200.00,194.65,1
275.00,199.50,1
284.00,205.15,1
378.00,212.78,1
325.00,222.82,1
205.00,233.28,1
600.00,244.57,1
490.00,260.74,1
310.00,280.02,1
133.00,295.68,1
253.00,304.64,1
250.00,308.69,1
117.00,308.70,1
267.00,304.69,1
255.00,299.04,1
106.00,292.16,1
90.00,281.81,1
205.00,268.63,1
256.00,255.95,1
185.00,245.31,1
219.00,236.11,1
129.00,227.51,1
516.00,221.68,1
163.00,220.88,1
318.00,222.61,1
196.00,224.79,1
238.00,226.85,1
252.00,228.55,1
329.00,231.16,1
102.00,233.86,1
92.00,233.31,1
312.00,230.10,1
211.00,227.72,1
383.00,227.63,1
298.00,230.55,1
314.00,235.85,1
412.00,243.14,1
204.00,251.75,1
140.00,257.90,1
108.00,258.94,1
143.00,255.24,1
111.00,248.13,1
185.00,239.07,1
197.00,229.86,1
104.00,220.91,1
291.00,212.54,1
192.00,206.44,1
360.00,203.54,1
188.00,203.70,1
92.00,203.93,1
177.00,201.89,1
426.00,200.88,1
209.00,203.76,1
434.00,209.79,1
220.00,218.19,1
222.00,226.43,1
263.00,232.87,1
226.00,238.11,1
301.00,242.62,1
207.00,246.58,1
206.00,249.04,1
109.00,248.70,1
363.00,246.68,1
148.00,245.12,1
131.00,242.37,1
305.00,238.15,1
109.00,234.10,1
124.00,228.64,1
238.00,221.80,1
66.00,214.77,1
214.00,207.14,1
283.00,200.93,1
142.00,197.19,1
164.00,193.88,1
174.00,190.26,1
214.00,187.22,1
522.00,188.03,1
175.00,194.28,1
226.00,201.69,1
326.00,208.52,1
324.00,216.77,1
126.00,224.97,1
154.00,229.78,1
248.00,231.47,1
96.00,231.25,1
102.00,227.90,1
358.00,223.26,1
259.00,221.27,1
194.00,221.30,1
228.00,221.24,1
259.00,221.39,1
109.00,221.25,1
180.00,219.26,1
108.00,215.22,1
88.00,209.03,1
77.00,200.39,1
75.00,189.78,1
113.00,178.25,1
108.00,166.97,1
119.00,156.58,1
137.00,147.50,1
600.00,143.90,1
427.00,150.99,1
138.00,164.66,1
439.00,179.07,1
234.00,194.44,1
226.00,209.09,1
318.00,221.60,1
190.00,232.48,1
184.00,240.33,1
214.00,244.71,1
280.00,247.33,1
128.00,248.61,1
230.00,247.69,1
214.00,245.44,1
330.00,243.78,1
334.00,244.49,1
410.00,248.60,1
160.00,254.37,1
191.00,257.96,1
60.00,257.14,1
354.00,253.47,1
84.00,249.35,1
139.00,243.45,1
133.00,234.99,1
137.00,225.28,1
132.00,214.88,1
111.00,204.13,1
214.00,193.90,1
318.00,186.80,1
127.00,183.34,1
264.00,181.55,1
159.00,180.92,1
147.00,180.49,1
432.00,181.50,1
177.00,186.07,1
227.00,191.80,1
258.00,197.16,1
305.00,203.37,1
330.00,211.25,1
215.00,220.00,1
303.00,228.16,1
545.00,238.09,1
338.00,252.03,1
239.00,266.35,1
272.00,277.42,1
345.00,286.00,1
303.00,293.51,1
231.00,299.28,1
106.00,300.99,1
186.00,297.51,1
257.00,291.09,1
121.00,283.37,1
123.00,273.25,1
126.00,260.49,1
127.00,246.34,1
118.00,231.55,1
179.00,217.11,1
271.00,205.13,1
128.00,196.26,1
222.00,189.22,1
139.00,183.49,1
202.00,178.88,1
171.00,175.37,1
192.00,172.98,1
168.00,171.43,1
215.00,170.72,1
127.00,170.53,1
159.00,169.93,1
373.00,170.62,1
272.00,175.22,1
389.00,183.75,1
487.00,196.83,1
480.00,215.44,1
393.00,237.76,1
151.00,258.56,1
214.00,273.34,1
110.00,281.21,1
282.00,283.79,1
92.00,282.67,1
105.00,277.19,1
68.00,266.86,1
140.00,253.32,1
189.00,239.07,1
183.00,226.13,1
90.00,214.15,1
277.00,203.26,1
229.00,195.50,1
162.00,190.55,1
233.00,186.99,1
225.00,185.16,1
385.00,186.50,1
232.00,191.54,1
211.00,197.83,1
110.00,202.39,1
338.00,205.52,1
193.00,209.19,1
439.00,214.69,1
288.00,222.99,1
112.00,231.24,1
229.00,236.00,1
133.00,237.63,1
192.00,236.69,1
232.00,234.34,1
147.00,231.44,1
264.00,228.11,1
242.00,225.62,1
236.00,224.40,1
127.00,223.00,1
277.00,220.91,1
258.00,219.78,1
90.00,218.95,1
90.00,215.47,1
64.00,208.42,1
466.00,201.81,1
159.00,199.68,1
216.00,199.73,1
129.00,199.11,1
216.00,197.76,1
108.00,195.72,1
256.00,193.38,1
240.00,192.32,1
144.00,192.43,1
187.00,192.06,1
209.00,191.44,1
241.00,191.63,1
255.00,193.26,1
64.00,194.85,1
200.00,194.43,1
181.00,193.01,1
263.00,192.38,1
211.00,193.13,1
183.00,194.49,1
150.00,195.10,1
60.00,193.59,1
156.00,189.58,1
93.00,184.13,1
515.00,181.00,1
225.00,183.76,1
189.00,189.34,1
290.00,194.70,1
178.00,200.18,1
86.00,203.77,1
231.00,204.53,1
119.00,203.87,1
127.00,201.53,1
115.00,197.14,1
108.00,191.10,1
66.00,183.49,1
102.00,174.46,1
66.00,164.61,1
407.00,156.97,1
135.00,154.40,1
264.00,155.16,1
76.00,156.73,1
141.00,157.33,1
127.00,156.61,1
155.00,155.43,1
179.00,154.48,1
88.00,153.63,1
84.00,151.51,1
462.00,150.84,1
163.00,155.03,1
149.00,160.89,1
155.00,165.10,1
165.00,168.00,1
72.00,169.23,1
118.00,168.08,1
83.00,164.88,1
224.00,161.17,1
81.00,158.09,1
451.00,157.44,1
85.00,160.66,1
108.00,163.82,1
230.00,165.16,1
391.00,168.66,1
197.00,175.76,1
105.00,182.72,1
91.00,186.08,1
178.00,186.31,1
213.00,185.76,1
61.00,184.70,1
167.00,181.91,1
148.00,178.26,1
286.00,175.78,1
172.00,175.47,1
184.00,176.17,1
74.00,175.95,1
115.00,173.68,1
42.00,169.05,1
210.00,163.32,1
107.00,158.27,1
267.00,154.90,1
75.00,153.16,1
63.00,150.74,1
61.00,146.05,1
71.00,139.77,1
99.00,132.86,1
242.00,127.44,1
184.00,125.51,1
94.00,125.73,1
248.00,126.86,1
63.00,128.94,1
188.00,130.90,1
234.00,133.64,1
179.00,138.23,1
114.00,142.98,1
156.00,146.52,1
187.00,149.43,1
103.00,151.93,1
160.00,153.37,1
62.00,153.38,1
156.00,151.94,1
127.00,149.96,1
113.00,147.81,1
82.00,144.88,1
344.00,143.01,1
124.00,144.31,1
187.00,146.97,1
82.00,148.92,1
87.00,149.08,1
47.00,146.75,1
247.00,143.66,1
174.00,142.49,1
155.00,143.10,1
62.00,143.34,1
90.00,141.80,1
118.00,138.90,1
121.00,135.80,1
75.00,132.54,1
67.00,128.46,1
326.00,125.55,1
100.00,125.99,1
185.00,128.04,1
197.00,130.89,1
128.00,134.60,1
154.00,137.99,1
78.00,140.25,1
125.00,140.91,1
47.00,139.84,1
134.00,137.32,1
92.00,134.22,1
80.00,130.72,1
185.00,127.35,1
96.00,125.08,1
180.00,123.83,1
129.00,123.63,1
85.00,123.71,1
180.00,123.64,1
108.00,124.06,1
256.00,125.68,1
84.00,128.56,1
192.00,131.60,1
158.00,134.74,1
173.00,138.30,1
83.00,141.28,1
189.00,143.24,1
154.00,145.07,1
59.00,146.27,1
42.00,144.95,1
149.00,141.57,1
67.00,137.68,1
114.00,133.45,1
384.00,131.44,1
305.00,135.39,1
216.00,143.97,1
96.00,152.63,1
173.00,158.95,1
74.00,162.76,1
117.00,163.89,1
69.00,162.44,1
151.00,159.31,1
160.00,156.04,1
64.00,152.82,1
230.00,149.60,1
152.00,147.79,1
74.00,146.56,1
125.00,144.28,1
189.00,142.01,1
171.00,141.17,1
118.00,141.23,1
183.00,141.48,1
39.00,141.32,1
41.00,139.02,1
54.00,134.10,1
38.00,127.47,1
110.00,120.20,1
90.00,113.58,1
252.00,109.29,1
161.00,108.66,1
209.00,111.06,1
69.00,114.59,1
114.00,117.29,1
97.00,118.72,1
124.00,119.45,1
73.00,119.50,1
59.00,118.29,1
43.00,115.35,1
206.00,112.20,1
59.00,110.36,1
140.00,109.14,1
192.00,109.00,1
125.00,110.67,1
46.00,112.31,1
152.00,112.89,1
107.00,113.37,1
93.00,113.79,1
163.00,114.11,1
544.00,118.54,1
111.00,129.26,1
38.00,139.78,1
224.00,146.54,1
278.00,153.15,1
115.00,160.55,1
114.00,166.00,1
122.00,168.51,1
38.00,168.07,1
259.00,165.95,1
341.00,166.28,1
104.00,169.74,1
316.00,173.90,1
96.00,178.20,1
55.00,180.23,1
83.00,178.18,1
62.00,173.09,1
144.00,166.37,1
234.00,160.60,1
184.00,157.48,1
105.00,155.74,1
79.00,153.17,1
48.00,148.71,1
122.00,142.87,1
126.00,137.17,1
96.00,132.19,1
191.00,128.24,1
138.00,126.09,1
114.00,125.11,1
218.00,125.05,1
92.00,126.18,1
166.00,127.56,1
74.00,128.51,1
197.00,129.20,1
331.00,132.05,1
188.00,138.55,1
72.00,145.34,1
105.00,149.31,1
192.00,151.29,1
110.00,152.74,1
56.00,152.66,1
159.00,150.70,1
88.00,148.03,1
45.00,144.25,1
299.00,140.54,1
94.00,139.21,1
124.00,138.63,1
60.00,136.92,1
125.00,134.13,1
163.00,131.48,1
170.00,130.26,1
78.00,129.84,1
179.00,129.40,1
279.00,130.71,1
90.00,134.20,1
151.00,137.46,1
58.00,139.11,1
72.00,138.56,1
107.00,136.09,1
54.00,132.52,1
69.00,127.78,1
100.00,122.35,1
144.00,117.59,1
99.00,114.10,1
111.00,111.42,1
419.00,111.86,1
299.00,118.82,1
184.00,130.08,1
99.00,140.66,1
313.00,149.80,1
108.00,158.67,1
41.00,164.89,1
78.00,166.38,1
50.00,164.04,1
125.00,159.31,1
38.00,153.21,1
45.00,145.54,1
186.00,137.49,1
128.00,131.33,1
152.00,127.23,1
206.00,125.18,1
208.00,125.86,1
104.00,128.23,1
73.00,129.82,1
99.00,129.61,1
317.00,130.02,1
158.00,133.41,1
88.00,137.52,1
218.00,140.66,1
308.00,145.29,1
157.00,152.19,1
111.00,158.47,1
192.00,162.72,1
178.00,166.13,1
255.00,169.88,1
68.00,173.37,1
176.00,174.96,1
65.00,174.38,1
53.00,171.17,1
192.00,166.08,1
77.00,160.98,1
269.00,156.86,1
183.00,155.14,1
197.00,155.56,1
294.00,157.96,1
46.00,161.44,1
222.00,163.77,1
79.00,164.83,1
38.00,163.64,1
44.00,158.99,1
37.00,151.52,1
142.00,142.98,1
174.00,135.85,1
120.00,130.99,1
40.00,126.72,1
170.00,122.33,1
229.00,120.00,1
223.00,121.27,1
91.00,124.55,1
136.00,127.40,1
233.00,130.27,1
321.00,135.80,1
319.00,145.40,1
182.00,157.30,1
154.00,168.05,1
171.00,176.11,1
102.00,181.34,1
211.00,184.17,1
90.00,185.29,1
149.00,184.49,1
120.00,181.99,1
52.00,177.68,1
95.00,171.18,1
184.00,164.12,1
98.00,157.96,1
193.00,152.79,1
198.00,149.45,1
78.00,147.48,1
69.00,144.62,1
102.00,140.27,1
127.00,135.62,1
208.00,132.27,1
85.00,130.53,1
169.00,129.42,1
99.00,128.61,1
117.00,127.74,1
295.00,128.07,1
306.00,132.45,1
144.00,140.06,1
197.00,147.75,1
227.00,155.02,1
161.00,162.14,1
263.00,168.91,1
110.00,175.06,1
325.00,180.62,1
70.00,185.74,1
169.00,188.71,1
256.00,190.21,1
128.00,191.75,1
141.00,191.95,1
74.00,189.76,1
263.00,186.37,1
168.00,183.99,1
152.00,182.31,1
216.00,180.69,1
42.00,178.65,1
70.00,174.24,1
112.00,167.56,1
135.00,160.47,1
382.00,156.10,1
55.00,155.47,1
281.00,156.24,1
98.00,157.58,1
46.00,157.71,1
336.00,156.94,1
176.00,158.56,1
92.00,161.02,1
177.00,161.98,1
408.00,164.44,1
119.00,170.08,1
68.00,174.65,1
142.00,175.58,1
210.00,175.13,1
166.00,175.01,1
88.00,174.33,1
266.00,173.06,1
63.00,172.03,1
250.00,170.85,1
127.00,170.01,1
113.00,168.85,1
38.00,165.57,1
228.00,161.03,1
76.00,156.97,1
343.00,154.67,1
84.00,154.81,1
287.00,156.42,1
202.00,159.60,1
75.00,163.08,1
185.00,164.76,1
234.00,166.20,1
78.00,167.84,1
196.00,168.39,1
133.00,168.20,1
236.00,168.27,1
157.00,169.06,1
218.00,170.43,1
101.00,171.57,1
68.00,170.78,1
188.00,168.02,1
103.00,164.89,1
101.00,161.14,1
232.00,157.40,1
134.00,155.13,1
135.00,153.53,1
88.00,151.29,1
186.00,148.69,1
72.00,146.20,1
383.00,145.37,1
348.00,149.76,1
297.00,159.55,1
258.00,171.67,1
78.00,182.57,1
204.00,189.92,1
192.00,194.82,1
62.00,197.47,1
252.00,197.66,1
353.00,198.86,1
208.00,202.86,1
82.00,206.22,1
103.00,205.88,1
67.00,201.69,1
81.00,194.47,1
92.00,185.20,1
205.00,175.90,1
78.00,167.80,1
226.00,160.96,1
122.00,155.84,1
102.00,151.52,1
109.00,146.82,1
182.00,142.55,1
215.00,140.29,1
205.00,140.69,1
182.00,143.02,1
52.00,145.19,1
48.00,144.80,1
164.00,142.29,1
209.00,140.52,1
127.00,140.40,1
82.00,140.17,1
438.00,141.39,1
110.00,146.50,1
172.00,152.38,1
46.00,155.96,1
116.00,156.64,1
144.00,155.47,1
310.00,155.35,1
406.00,159.91,1
333.00,170.15,1
43.00,181.53,1
370.00,190.69,1
111.00,198.74,1
49.00,203.58,1
167.00,203.63,1
88.00,200.81,1
80.00,195.52,1
74.00,187.70,1
414.00,180.86,1
191.00,178.73,1
322.00,180.46,1
178.00,184.19,1
179.00,188.02,1
49.00,189.55,1
84.00,187.41,1
201.00,183.05,1
158.00,179.00,1
127.00,175.33,1
184.00,171.67,1
116.00,168.27,1
454.00,167.31,1
83.00,170.20,1
73.00,172.50,1
87.00,171.15,1
198.00,168.14,1
378.00,167.45,1
60.00,169.79,1
144.00,171.26,1
135.00,170.66,1
151.00,169.24,1
149.00,167.41,1
62.00,164.68,1
101.00,160.26,1
49.00,154.17,1
44.00,146.42,1
144.00,137.99,1
266.00,131.98,1
294.00,131.14,1
69.00,133.80,1
160.00,136.28,1
70.00,137.46,1
98.00,137.08,1
37.00,134.77,1
150.00,131.23,1
140.00,128.14,1
317.00,127.73,1
132.00,130.66,1
135.00,134.51,1
56.00,136.77,1
79.00,136.64,1
80.00,134.43,1
80.00,130.92,1
99.00,126.73,1
144.00,122.84,1
285.00,121.38,1
215.00,123.93,1
222.00,129.53,1
230.00,136.86,1
188.00,145.11,1
300.00,154.06,1
81.00,162.97,1
70.00,168.75,1
195.00,171.00,1
249.00,172.91,1
228.00,176.26,1
67.00,179.36,1
255.00,180.89,1
82.00,181.50,1
118.00,180.41,1
82.00,176.94,1
220.00,172.58,1
82.00,168.56,1
41.00,163.45,1
67.00,156.04,1
107.00,147.58,1
412.00,142.01,1
49.00,141.18,1
249.00,142.19,1
64.00,143.30,1
87.00,143.24,1
58.00,140.87,1
262.00,138.25,1
105.00,137.37,1
214.00,137.85,1
248.00,140.10,1
165.00,144.45,1
223.00,149.60,1
147.00,154.84,1
131.00,159.06,1
154.00,161.66,1
180.00,163.40,1
204.00,165.26,1
154.00,167.35,1
170.00,169.04,1
87.00,169.54,1
183.00,168.67,1
181.00,167.67,1
80.00,166.53,1
102.00,163.81,1
225.00,160.54,1
300.00,159.82,1
117.00,161.78,1
210.00,164.06,1
105.00,165.67,1
49.00,165.27,1
41.00,161.49,1
97.00,155.17,1
160.00,148.48,1
422.00,145.44,1
397.00,149.96,1
104.00,159.34,1
177.00,167.66,1
72.00,172.84,1
53.00,174.13,1
205.00,172.53,1
118.00,170.41,1
197.00,168.44,1
206.00,167.31,1
55.00,166.40,1
115.00,163.79,1
322.00,161.41,1
197.00,162.15,1
118.00,164.25,1
240.00,165.99,1
340.00,169.59,1
59.00,174.84,1
69.00,177.39,1
179.00,176.57,1
49.00,174.04,1
151.00,169.91,1
242.00,166.05,1
33.00,163.15,1
46.00,158.49,1
89.00,151.45,1
128.00,144.01,1
119.00,137.43,1
86.00,131.63,1
254.00,127.37,1
272.00,127.10,1
72.00,129.90,1
180.00,132.65,1
186.00,135.47,1
84.00,138.39,1
201.00,140.62,1
174.00,143.11,1
280.00,147.12,1
65.00,151.93,1
94.00,154.73,1
68.00,154.42,1
69.00,151.57,1
124.00,147.11,1
247.00,143.53,1
94.00,141.93,1
164.00,140.97,1
152.00,140.33,1
70.00,139.65,1
197.00,138.55,1
88.00,137.69,1
155.00,136.85,1
69.00,135.54,1
43.00,132.83,1
179.00,129.12,1
127.00,126.40,1
128.00,124.80,1
205.00,124.33,1
311.00,126.93,1
89.00,132.29,1
139.00,137.19,1
147.00,140.62,1
130.00,143.23,1
314.00,146.43,1
114.00,151.24,1
63.00,154.89,1
63.00,155.07,1
351.00,154.54,1
93.00,156.15,1
201.00,158.31,1
88.00,159.53,1
102.00,159.14,1
75.00,156.63,1
369.00,154.68,1
76.00,155.45,1
186.00,156.74,1
111.00,157.16,1
88.00,156.37,1
85.00,153.65,1
45.00,148.99,1
71.00,142.58,1
92.00,135.30,1
81.00,128.07,1
208.00,122.16,1
144.00,118.93,1
151.00,117.91,1
203.00,118.59,1
262.00,121.95,1
124.00,127.53,1
181.00,133.27,1
130.00,138.32,1
205.00,142.92,1
219.00,147.97,1
382.00,155.39,1
203.00,165.69,1
285.00,176.90,1
253.00,188.04,1
56.00,197.30,1
188.00,202.36,1
176.00,204.55,1
59.00,204.41,1
85.00,200.72,1
93.00,193.95,1
144.00,185.84,1
183.00,178.19,1
79.00,171.36,1
69.00,163.87,1
120.00,155.57,1
109.00,147.57,1
208.00,141.13,1
76.00,136.55,1
68.00,132.10,1
92.00,126.86,1
158.00,122.07,1
66.00,118.32,1
40.00,114.28,1
69.00,109.19,1
94.00,103.96,1
97.00,99.47,1
124.00,96.18,1
221.00,95.21,1
300.00,98.50,1
172.00,106.02,1
342.00,116.38,1
109.00,128.39,1
230.00,139.81,1
97.00,149.36,1
203.00,156.86,1
247.00,163.57,1
128.00,170.09,1
114.00,174.52,1
212.00,176.80,1
257.00,179.27,1
48.00,181.61,1
273.00,182.56,1
254.00,184.27,1
82.00,186.60,1
259.00,187.79,1
143.00,188.63,1
199.00,189.17,1
99.00,188.62,1
42.00,185.55,1
231.00,180.49,1
199.00,176.49,1
211.00,174.58,1
482.00,176.49,1
185.00,183.38,1
56.00,190.08,1
102.00,192.16,1
264.00,191.69,1
160.00,191.53,1
466.00,193.77,1
174.00,199.56,1
123.00,205.12,1
202.00,207.68,1
176.00,208.56,1
156.00,208.19,1
331.00,207.78,1
92.00,208.13,1
158.00,207.07,1
99.00,203.59,1
142.00,198.31,1
100.00,191.70,1
100.00,183.99,1
234.00,176.44,1
63.00,170.09,1
99.00,163.45,1
70.00,155.72,1
284.00,149.02,1
132.00,145.36,1
206.00,144.02,1
131.00,143.82,1
162.00,144.12,1
281.00,145.66,1
256.00,150.13,1
234.00,157.03,1
294.00,165.52,1
166.00,174.65,1
379.00,184.14,1
64.00,193.43,1
92.00,199.05,1
465.00,202.61,1
64.00,207.59,1
311.00,211.99,1
78.00,214.64,1
330.00,216.13,1
186.00,217.76,1
245.00,219.63,1
49.00,219.77,1
90.00,216.19,1
64.00,208.73,1
296.00,200.39,1
175.00,194.28,1
98.00,189.37,1
107.00,183.30,1
42.00,175.54,1
130.00,166.48,1
116.00,157.53,1
54.00,148.96,1
175.00,140.81,1
307.00,135.87,1
240.00,136.16,1
315.00,141.00,1
116.00,148.19,1
114.00,154.22,1
212.00,158.30,1
194.00,162.22,1
83.00,165.48,1
223.00,167.29,1
51.00,167.94,1
178.00,167.03,1
76.00,164.81,1
82.00,161.06,1
468.00,158.75,1
99.00,160.98,1
128.00,163.92,1
106.00,164.56,1
46.00,162.80,1
125.00,158.73,1
80.00,153.49,1
193.00,148.38,1
108.00,144.34,1
107.00,140.76,1
264.00,138.24,1
72.00,137.61,1
221.00,137.78,1
65.00,138.14,1
107.00,137.63,1
165.00,136.36,1
276.00,136.79,1
351.00,141.42,1
223.00,150.21,1
40.00,158.85,1
62.00,163.17,1
156.00,163.68,1
248.00,163.80,1
130.00,164.96,1
78.00,165.22,1
224.00,164.17,1
74.00,162.90,1
123.00,160.64,1
68.00,156.80,1
58.00,151.30,1
82.00,144.31,1
231.00,137.97,1
200.00,134.76,1
247.00,135.13,1
152.00,137.95,1
216.00,141.89,1
99.00,145.84,1
115.00,148.39,1
92.00,148.88,1
94.00,147.58,1
485.00,148.04,1
144.00,153.51,1
200.00,160.66,1
200.00,166.93,1
113.00,172.08,1
154.00,175.06,1
154.00,176.30,1
128.00,176.27,1
118.00,174.78,1
168.00,172.25,1
422.00,171.89,1
206.00,176.05,1
41.00,180.63,1
124.00,181.54,1
227.00,180.46,1
230.00,180.34,1
56.00,180.44,1
75.00,177.93,1
78.00,172.47,1
146.00,165.72,1
141.00,159.34,1
51.00,153.17,1
43.00,145.77,1
258.00,138.58,1
185.00,134.70,1
189.00,134.06,1
187.00,135.37,1
228.00,138.44,1
360.00,144.50,1
251.00,154.34,1
337.00,166.64,1
543.00,182.60,1
271.00,202.76,1
252.00,222.45,1
308.00,239.01,1
135.00,251.98,1
173.00,259.71,1
136.00,262.13,1
202.00,260.63,1
259.00,257.47,1
265.00,254.70,1
80.00,251.35,1
73.00,244.60,1
98.00,234.04,1
132.00,221.57,1
160.00,209.08,1
196.00,198.02,1
258.00,189.78,1
208.00,184.83,1
275.00,182.83,1
308.00,184.08,1
214.00,188.06,1
166.00,192.33,1
225.00,195.58,1
124.00,197.71,1
152.00,197.94,1
175.00,196.54,1
345.00,195.97,1
457.00,199.96,1
274.00,209.01,1
300.00,219.77,1
132.00,229.01,1
352.00,236.03,1
272.00,242.72,1
121.00,248.19,1
191.00,249.98,1
96.00,248.04,1
360.00,244.50,1
75.00,241.09,1
151.00,235.99,1
66.00,227.89,1
282.00,218.86,1
270.00,212.20,1
139.00,208.09,1
217.00,204.42,1
314.00,202.21,1
264.00,203.05,1
351.00,206.84,1
224.00,212.73,1
158.00,218.08,1
196.00,221.02,1
201.00,222.16,1
104.00,221.47,1
197.00,218.60,1
188.00,214.86,1
283.00,211.99,1
282.00,211.37,1
295.00,213.33,1
263.00,217.17,1
242.00,221.69,1
158.00,225.27,1
305.00,227.67,1
104.00,229.18,1
235.00,228.91,1
354.00,228.80,1
109.00,229.85,1
108.00,228.64,1
127.00,223.92,1
209.00,217.65,1
145.00,211.37,1
92.00,204.50,1
113.00,196.15,1
155.00,187.22,1
124.00,178.77,1
228.00,171.65,1
174.00,166.80,1
197.00,164.02,1
191.00,162.76,1
462.00,165.04,1
156.00,171.90,1
241.00,179.83,1
292.00,187.59,1
314.00,196.73,1
230.00,206.71,1
186.00,215.40,1
157.00,221.12,1
263.00,224.46,1
153.00,226.48,1
223.00,227.06,1
211.00,226.69,1
128.00,225.31,1
152.00,221.90,1
141.00,216.71,1
147.00,210.40,1
281.00,204.57,1
80.00,199.89,1
72.00,193.97,1
157.00,186.21,1
69.00,177.92,1
257.00,170.30,1
103.00,164.56,1
219.00,160.39,1
163.00,157.73,1
379.00,158.13,1
205.00,162.50,1
411.00,170.33,1
127.00,180.20,1
237.00,189.20,1
327.00,197.46,1
282.00,206.93,1
258.00,216.77,1
126.00,224.72,1
198.00,229.20,1
245.00,231.35,1
185.00,232.56,1
384.00,234.04,1
393.00,238.57,1
405.00,247.10,1
286.00,257.70,1
141.00,266.48,1
70.00,269.56,1
205.00,267.05,1
196.00,261.90,1
91.00,255.02,1
92.00,245.27,1
204.00,233.73,1
126.00,222.41,1
120.00,211.19,1
118.00,199.68,1
196.00,188.89,1
138.00,179.81,1
334.00,173.62,1
376.00,172.97,1
144.00,176.89,1
263.00,181.70,1
391.00,188.13,1
458.00,199.21,1
265.00,214.11,1
354.00,229.43,1
272.00,243.77,1
220.00,255.85,1
276.00,264.72,1
238.00,271.05,1
100.00,273.95,1
328.00,273.38,1
396.00,273.44,1
167.00,275.06,1
275.00,275.51,1
176.00,274.14,1
185.00,270.74,1
125.00,264.78,1
371.00,258.15,1
94.00,252.53,1
221.00,246.35,1
105.00,238.83,1
169.00,230.14,1
108.00,220.48,1
104.00,209.90,1
110.00,198.43,1
203.00,187.51,1
298.00,179.75,1
182.00,176.01,1
220.00,174.66,1
445.00,176.69,1
127.00,182.62,1
134.00,187.98,1
220.00,190.92,1
372.00,194.67,1
185.00,200.57,1
669.00,210.07,1
431.00,226.52,1
327.00,246.91,1
209.00,264.94,1
204.00,277.70,1
250.00,285.41,1
250.00,289.71,1
341.00,292.42,1
297.00,294.96,1
132.00,295.97,1
203.00,293.23,1
247.00,287.97,1
106.00,281.08,1
173.00,271.70,1
186.00,260.85,1
542.00,252.95,1
104.00,250.04,1
164.00,247.11,1
154.00,241.54,1
330.00,235.93,1
151.00,231.85,1
156.00,227.59,1
156.00,221.90,1
258.00,216.23,1
141.00,211.50,1
171.00,206.78,1
321.00,203.00,1
286.00,202.53,1
337.00,205.68,1
192.00,210.80,1
406.00,217.05,1
211.00,224.69,1
166.00,231.29,1
414.00,236.56,1
106.00,241.85,1
176.00,244.49,1
216.00,243.95,1
260.00,242.64,1
170.00,241.11,1
75.00,237.54,1
120.00,230.54,1
142.00,221.38,1
340.00,213.25,1
192.00,208.42,1
145.00,205.05,1
176.00,201.14,1
284.00,197.97,1
86.00,195.88,1
108.00,192.46,1
326.00,188.68,1
210.00,187.61,1
174.00,188.21,1
244.00,189.08,1
166.00,190.34,1
148.00,190.97,1
283.00,191.30,1
165.00,192.49,1
332.00,194.87,1
589.00,202.00,1
132.00,214.39,1
162.00,225.10,1
175.00,230.98,1
112.00,232.95,1
330.00,232.74,1
186.00,232.81,1
52.00,231.38,1
127.00,225.99,1
260.00,219.09,1
243.00,213.97,1
104.00,210.04,1
149.00,205.05,1
113.00,198.75,1
174.00,191.92,1
319.00,186.83,1
107.00,184.39,1
119.00,181.83,1
287.00,179.09,1
138.00,177.96,1
102.00,176.70,1
156.00,174.01,1
207.00,171.35,1
127.00,169.42,1
211.00,167.91,1
64.00,166.28,1
127.00,163.40,1
169.00,159.82,1
206.00,157.36,1
213.00,156.85,1
205.00,158.20,1
93.00,159.92,1
199.00,160.82,1
196.00,161.86,1
67.00,162.73,1
145.00,161.94,1
419.00,162.41,1
144.00,166.78,1
79.00,171.09,1
99.00,172.02,1
182.00,170.83,1
52.00,168.52,1
107.00,164.45,1
259.00,160.25,1
358.00,159.87,1
256.00,164.50,1
208.00,171.48,1
397.00,179.96,1
261.00,190.91,1
145.00,201.71,1
221.00,209.61,1
74.00,214.14,1
106.00,214.42,1
282.00,212.23,1
152.00,210.35,1
74.00,207.42,1
47.00,201.18,1
148.00,192.38,1
98.00,182.97,1
160.00,173.94,1
158.00,166.09,1
170.00,159.97,1
56.00,154.61,1
73.00,148.33,1
109.00,141.22,1
175.00,135.01,1
78.00,130.27,1
157.00,126.40,1
121.00,123.52,1
60.00,121.05,1
57.00,117.63,1
52.00,113.01,1
168.00,108.48,1
93.00,105.43,1
236.00,104.51,1
64.00,105.55,1
130.00,106.94,1
85.00,107.84,1
182.00,108.94,1
420.00,113.39,1
300.00,123.98,1
345.00,139.24,1
286.00,156.87,1
168.00,174.06,1
283.00,188.84,1
317.00,202.52,1
185.00,215.33,1
233.00,225.55,1
264.00,233.42,1
207.00,239.67,1
187.00,243.65,1
218.00,245.23,1
103.00,244.29,1
80.00,239.66,1
73.00,230.99,1
127.00,219.61,1
257.00,208.53,1
122.00,199.53,1
64.00,190.74,1
249.00,181.88,1
59.00,174.26,1
180.00,167.23,1
187.00,161.37,1
264.00,158.35,1
395.00,160.00,1
240.00,166.68,1
179.00,174.98,1
142.00,181.62,1
94.00,185.25,1
165.00,185.98,1
44.00,184.25,1
311.00,181.50,1
111.00,179.83,1
59.00,177.51,1
172.00,173.19,1
119.00,168.48,1
99.00,163.54,1
158.00,158.30,1
133.00,153.62,1
80.00,149.14,1
50.00,143.64,1
58.00,136.64,1
329.00,130.90,1
121.00,129.12,1
172.00,129.68,1
259.00,131.80,1
274.00,137.03,1
128.00,144.19,1
77.00,149.88,1
122.00,152.58,1
167.00,153.63,1
70.00,153.68,1
170.00,152.58,1
191.00,151.68,1
285.00,152.90,1
85.00,155.75,1
235.00,158.47,1
49.00,160.29,1
87.00,159.82,1
135.00,157.12,1
40.00,153.16,1
150.00,148.08,1
228.00,144.01,1
48.00,141.57,1
117.00,138.68,1
196.00,135.85,1
196.00,135.03,1
186.00,136.32,1
71.00,138.09,1
56.00,138.05,1
79.00,135.64,1
129.00,132.17,1
111.00,128.86,1
109.00,125.89,1
181.00,123.69,1
240.00,123.84,1
128.00,126.37,1
327.00,130.94,1
115.00,137.49,1
166.00,143.91,1
166.00,149.09,1
186.00,153.76,1
64.00,157.18,1
144.00,158.37,1
146.00,158.16,1
147.00,157.59,1
213.00,157.33,1
73.00,157.28,1
111.00,155.94,1
98.00,153.02,1
161.00,149.61,1
135.00,146.66,1
108.00,144.03,1
237.00,142.12,1
57.00,141.26,1
140.00,139.99,1
183.00,138.69,1
175.00,138.74,1
338.00,141.39,1
78.00,146.43,1
96.00,150.30,1
96.00,151.30,1
206.00,151.13,1
455.00,153.95,1
88.00,160.97,1
99.00,167.02,1
72.00,169.06,1
53.00,167.43,1
193.00,163.73,1
186.00,160.67,1
84.00,158.39,1
78.00,155.00,1
226.00,151.14,1
447.00,151.25,1
59.00,156.10,1
69.00,159.86,1
244.00,161.06,1
138.00,162.39,1
73.00,162.92,1
161.00,161.63,1
186.00,160.10,1
346.00,160.89,1
56.00,163.94,1
78.00,165.27,1
67.00,163.14,1
115.00,158.79,1
113.00,153.61,1
99.00,148.24,1
126.00,142.88,1
62.00,137.49,1
125.00,131.95,1
75.00,126.58,1
66.00,121.12,1
184.00,116.20,1
76.00,112.83,1
178.00,110.80,1
188.00,110.71,1
150.00,112.79,1
186.00,116.22,1
245.00,121.33,1
140.00,127.97,1
175.00,134.57,1
123.00,140.20,1
116.00,144.28,1
87.00,146.28,1
166.00,146.73,1
211.00,147.43,1
189.00,149.51,1
62.00,151.53,1
257.00,152.76,1
59.00,153.90,1
170.00,154.17,1
65.00,153.11,1
136.00,150.83,1
153.00,148.16,1
106.00,145.77,1
84.00,142.84,1
120.00,139.15,1
192.00,136.02,1
127.00,134.36,1
99.00,133.15,1
92.00,131.26,1
257.00,129.94,1
330.00,132.36,1
234.00,139.43,1
278.00,149.10,1
191.00,159.62,1
214.00,169.57,1
112.00,177.56,1
176.00,182.84,1
173.00,186.07,1
122.00,187.69,1
216.00,187.94,1
116.00,187.46,1
82.00,185.29,1
302.00,182.30,1
83.00,180.37,1
225.00,178.67,1
116.00,176.83,1
159.00,174.68,1
87.00,171.58,1
79.00,166.92,1
127.00,160.92,1
61.00,154.29,1
133.00,147.29,1
125.00,140.83,1
80.00,135.10,1
63.00,129.14,1
68.00,122.62,1
311.00,117.82,1
84.00,116.75,1
166.00,117.40,1
120.00,118.45,1
478.00,122.62,1
120.00,131.70,1
214.00,141.96,1
90.00,150.33,1
244.00,156.99,1
87.00,162.36,1
96.00,165.32,1
140.00,165.53,1
47.00,163.69,1
185.00,160.35,1
130.00,157.02,1
102.00,153.82,1
136.00,150.18,1
44.00,145.88,1
117.00,140.60,1
290.00,136.64,1
154.00,136.17,1
252.00,138.34,1
236.00,142.83,1
95.00,148.30,1
128.00,152.13,1
179.00,154.38,1
120.00,155.99,1
128.00,156.58,1
62.00,155.45,1
235.00,153.46,1
222.00,153.12,1
244.00,155.43,1
254.00,160.07,1
171.00,165.93,1
127.00,170.88,1
262.00,174.67,1
175.00,178.60,1
61.00,181.24,1
319.00,182.32,1
165.00,184.25,1
294.00,187.43,1
194.00,191.49,1
56.00,194.35,1
122.00,193.61,1
147.00,190.31,1
68.00,185.50,1
166.00,179.42,1
107.00,173.06,1
203.00,167.32,1
81.00,162.34,1
142.00,157.37,1
112.00,152.33,1
196.00,148.11,1
233.00,146.09,1
234.00,147.17,1
139.00,150.08,1
154.00,152.83,1
250.00,155.64,1
197.00,159.66,1
296.00,165.22,1
48.00,170.91,1
157.00,174.14,1
196.00,175.44,1
321.00,177.83,1
53.00,181.15,1
73.00,181.81,1
92.00,178.69,1
202.00,174.19,1
86.00,169.82,1
115.00,164.92,1
79.00,158.99,1
40.00,151.80,1
213.00,144.39,1
141.00,139.02,1
128.00,135.50,1
64.00,132.15,1
62.00,127.83,1
122.00,122.88,1
63.00,118.11,1
256.00,114.76,1
141.00,114.34,1
124.00,115.72,1
51.00,116.57,1
198.00,116.87,1
116.00,117.89,1
107.00,119.21,1
100.00,119.82,1
120.00,119.85,1
211.00,120.47,1
40.00,121.77,1
258.00,123.27,1
207.00,126.64,1
193.00,132.22,1
229.00,138.87,1
96.00,145.51,1
82.00,149.89,1
192.00,152.00,1
223.00,154.27,1
62.00,156.69,1
84.00,156.92,1
54.00,154.23,1
179.00,150.16,1
128.00,146.57,1
235.00,144.53,1
245.00,145.17,1
120.00,147.86,1
129.00,150.09,1
81.00,150.60,1
84.00,149.10,1
91.00,145.82,1
130.00,141.78,1
116.00,137.88,1
262.00,135.51,1
153.00,135.80,1
243.00,138.26,1
170.00,142.26,1
170.00,146.82,1
128.00,150.70,1
352.00,155.09,1
268.00,162.37,1
127.00,170.94,1
114.00,177.05,1
153.00,180.05,1
161.00,181.18,1
184.00,181.50,1
170.00,181.51,1
190.00,181.43,1
95.00,180.69,1
88.00,177.99,1
77.00,172.90,1
187.00,166.86,1
193.00,162.09,1
124.00,158.88,1
146.00,156.04,1
120.00,153.15,1
92.00,149.83,1
146.00,146.08,1
256.00,143.71,1
155.00,143.89,1
134.00,145.06,1
144.00,145.83,1
413.00,148.52,1
235.00,155.62,1
420.00,166.70,1
228.00,180.38,1
296.00,194.52,1
100.00,206.43,1
67.00,213.29,1
72.00,213.99,1
56.00,209.61,1
43.00,201.22,1
131.00,190.43,1
69.00,179.00,1
126.00,167.65,1
117.00,157.11,1
252.00,148.96,1
84.00,143.67,1
156.00,139.66,1
280.00,137.59,1
401.00,140.74,1
161.00,148.78,1
340.00,158.77,1
203.00,169.75,1
166.00,180.01,1
323.00,188.95,1
132.00,197.31,1
197.00,203.60,1
270.00,208.23,1
240.00,212.94,1
383.00,218.86,1
288.00,226.85,1
158.00,234.66,1
206.00,239.50,1
91.00,240.74,1
84.00,237.61,1
81.00,230.10,1
344.00,221.66,1
166.00,215.64,1
165.00,210.91,1
89.00,205.17,1
104.00,197.71,1
392.00,191.19,1
339.00,190.09,1
163.00,193.16,1
255.00,196.74,1
121.00,199.51,1
410.00,202.51,1
174.00,207.31,1
415.00,213.80,1
209.00,221.68,1
232.00,229.14,1
231.00,234.69,1
315.00,239.49,1
272.00,244.59,1
239.00,249.45,1
309.00,253.65,1
309.00,258.10,1
216.00,262.39,1
106.00,263.94,1
332.00,262.67,1
230.00,261.28,1
87.00,258.86,1
84.00,252.47,1
184.00,242.89,1
178.00,232.79,1
100.00,222.72,1
130.00,211.89,1
149.00,200.88,1
84.00,190.09,1
108.00,179.11,1
128.00,168.39,1
236.00,159.64,1
128.00,153.75,1
205.00,149.95,1
140.00,147.72,1
134.00,146.27,1
242.00,145.69,1
187.00,147.11,1
128.00,149.49,1
205.00,151.71,1
260.00,154.99,1
308.00,160.90,1
251.00,169.40,1
146.00,178.14,1
249.00,185.45,1
304.00,192.72,1
280.00,201.29,1
266.00,210.49,1
210.00,218.98,1
152.00,225.11,1
136.00,227.71,1
225.00,227.55,1
312.00,227.32,1
162.00,227.98,1
260.00,228.36,1
158.00,228.03,1
135.00,226.13,1
192.00,222.33,1
75.00,217.00,1
110.00,209.50,1
279.00,201.63,1
317.00,197.14,1
240.00,196.80,1
286.00,198.99,1
210.00,202.53,1
352.00,207.28,1
333.00,214.37,1
357.00,224.09,1
195.00,234.35,1
256.00,242.70,1
216.00,248.65,1
518.00,254.91,1
122.00,262.60,1
316.00,268.67,1
247.00,272.69,1
277.00,275.71,1
472.00,279.41,1
257.00,285.19,1
107.00,289.18,1
220.00,288.29,1
95.00,283.39,1
309.00,276.22,1
99.00,268.33,1
244.00,259.66,1
203.00,251.00,1
154.00,242.75,1
103.00,233.54,1
129.00,222.86,1
136.00,211.48,1
150.00,200.39,1
308.00,191.50,1
192.00,186.30,1
184.00,183.45,1
417.00,183.31,1
267.00,187.73,1
365.00,195.78,1
111.00,204.57,1
302.00,211.84,1
349.00,219.15,1
383.00,228.91,1
325.00,240.67,1
143.00,251.37,1
100.00,257.09,1
170.00,257.15,1
383.00,255.49,1
343.00,256.34,1
419.00,260.82,1
108.00,266.26,1
242.00,268.83,1
75.00,267.43,1
97.00,261.58,1
70.00,251.33,1
143.00,238.34,1
114.00,224.44,1
83.00,210.20,1
157.00,196.04,1
104.00,182.94,1
132.00,171.04,1
199.00,161.03,1
294.00,154.91,1
163.00,153.03,1
265.00,153.87,1
141.00,156.30,1
157.00,158.80,1
169.00,160.61,1
316.00,163.38,1
447.00,170.46,1
311.00,182.84,1
218.00,196.86,1
148.00,208.39,1
162.00,215.88,1
259.00,220.48,1
120.00,223.29,1
357.00,225.11,1
125.00,226.98,1
243.00,227.93,1
194.00,227.74,1
255.00,227.40,1
207.00,227.15,1
143.00,226.14,1
96.00,222.76,1
116.00,216.52,1
166.00,208.65,1
99.00,200.30,1
205.00,192.03,1
160.00,184.93,1
192.00,179.35,1
213.00,175.44,1
128.00,172.84,1
263.00,171.20,1
177.00,171.16,1
190.00,172.15,1
151.00,173.07,1
146.00,173.31,1
299.00,173.90,1
288.00,177.16,1
128.00,182.07,1
214.00,186.05,1
195.00,189.12,1
264.00,192.38,1
258.00,196.61,1
451.00,203.51,1
179.00,213.11,1
147.00,221.27,1
221.00,225.87,1
88.00,227.47,1
216.00,226.21,1
142.00,223.23,1
176.00,219.18,1
132.00,214.02,1
110.00,207.56,1
55.00,199.09,1
127.00,188.91,1
294.00,179.91,1
274.00,175.33,1
170.00,174.45,1
150.00,174.34,1
195.00,173.98,1
339.00,175.21,1
258.00,179.75,1
277.00,186.66,1
171.00,193.85,1
212.00,199.77,1
191.00,204.15,1
201.00,207.30,1
285.00,210.09,1
454.00,215.42,1
263.00,224.35,1
352.00,234.74,1
388.00,246.09,1
194.00,257.53,1
236.00,266.06,1
129.00,270.28,1
188.00,270.18,1
318.00,267.96,1
133.00,265.32,1
174.00,260.78,1
174.00,254.12,1
124.00,245.98,1
197.00,236.77,1
374.00,229.31,1
229.00,225.79,1
152.00,223.79,1
334.00,222.04,1
90.00,220.90,1
347.00,219.84,1
226.00,220.11,1
183.00,221.17,1
194.00,221.15,1
131.00,219.62,1
199.00,216.60,1
141.00,212.70,1
166.00,208.04,1
154.00,202.81,1
216.00,197.83,1
403.00,195.70,1
94.00,196.84,1
252.00,198.17,1
104.00,198.44,1
87.00,196.57,1
317.00,193.57,1
169.00,192.24,1
248.00,192.37,1
99.00,192.41,1
188.00,191.33,1
108.00,188.97,1
146.00,185.49,1
94.00,180.78,1
310.00,176.55,1
206.00,175.12,1
343.00,177.05,1
214.00,181.82,1
208.00,187.53,1
282.00,193.22,1
253.00,199.63,1
282.00,206.77,1
294.00,214.55,1
148.00,221.79,1
322.00,227.49,1
198.00,232.48,1
200.00,236.16,1
229.00,237.97,1
352.00,239.83,1
212.00,242.78,1
110.00,244.31,1
433.00,244.54,1
184.00,246.23,1
137.00,247.12,1
63.00,243.93,1
163.00,236.98,1
134.00,228.14,1
69.00,218.01,1
52.00,205.77,1
199.00,192.72,1
309.00,182.70,1
275.00,178.10,1
181.00,177.33,1
45.00,176.52,1
183.00,173.82,1
126.00,170.45,1
55.00,166.30,1
95.00,160.38,1
184.00,154.11,1
178.00,149.57,1
163.00,146.99,1
120.00,145.33,1
137.00,143.72,1
208.00,142.73,1
261.00,143.98,1
384.00,149.40,1
364.00,160.11,1
50.00,172.58,1
123.00,181.19,1
72.00,184.71,1
63.00,183.95,1
65.00,179.48,1
138.00,172.83,1
75.00,165.51,1
48.00,157.26,1
57.00,147.67,1
228.00,138.72,1
131.00,132.68,1
99.00,128.58,1
200.00,125.59,1
150.00,124.53,1
125.00,124.78,1
121.00,125.15,1
98.00,125.14,1
82.00,124.29,1
66.00,122.24,1
64.00,118.93,1
131.00,115.17,1
52.00,111.62,1
232.00,109.10,1
134.00,108.96,1
240.00,111.35,1
47.00,114.96,1
63.00,117.18,1
81.00,117.11,1
339.00,117.85,1
396.00,124.08,1
316.00,136.68,1
100.00,151.09,1
438.00,164.93,1
381.00,181.26,1
77.00,198.27,1
80.00,209.73,1
93.00,214.25,1
111.00,213.70,1
52.00,209.23,1
244.00,202.71,1
52.00,195.94,1
54.00,187.63,1
208.00,178.15,1
119.00,169.92,1
300.00,164.23,1
58.00,160.90,1
66.00,157.04,1
402.00,153.81,1
189.00,155.06,1
311.00,159.90,1
86.00,165.73,1
204.00,170.34,1
158.00,173.61,1
85.00,175.35,1
55.00,173.99,1
319.00,171.44,1
74.00,170.17,1
255.00,169.55,1
195.00,169.91,1
214.00,171.67,1
224.00,174.33,1
392.00,179.31,1
93.00,186.30,1
210.00,191.97,1
477.00,198.12,1
37.00,206.17,1
128.00,211.08,1
110.00,211.09,1
184.00,208.52,1
166.00,205.00,1
127.00,200.87,1
325.00,197.25,1
64.00,194.93,1
222.00,192.31,1
43.00,188.50,1
608.00,186.93,1
91.00,190.75,1
240.00,195.90,1
131.00,199.13,1
230.00,201.06,1
140.00,201.92,1
186.00,201.64,1
141.00,200.17,1
221.00,198.13,1
135.00,195.95,1
161.00,193.21,1
159.00,189.83,1
179.00,186.42,1
207.00,183.65,1
55.00,180.82,1
135.00,176.43,1
271.00,172.18,1
148.00,170.08,1
135.00,168.66,1
120.00,166.46,1
78.00,163.03,1
106.00,158.18,1
134.00,152.79,1
182.00,148.23,1
125.00,145.01,1
187.00,142.89,1
106.00,141.55,1
48.00,139.55,1
328.00,137.79,1
65.00,138.24,1
230.00,139.70,1
42.00,140.87,1
99.00,140.51,1
64.00,138.09,1
190.00,135.12,1
61.00,132.57,1
280.00,131.15,1
79.00,131.54,1
46.00,131.49,1
72.00,129.10,1
252.00,126.66,1
424.00,128.91,1
276.00,137.74,1
336.00,150.79,1
153.00,164.83,1
61.00,175.86,1
128.00,181.70,1
114.00,183.68,1
149.00,183.28,1
82.00,181.01,1
214.00,177.64,1
316.00,176.04,1
60.00,176.47,1
57.00,175.02,1
144.00,170.76,1
65.00,165.26,1
183.00,159.38,1
246.00,155.24,1
228.00,154.46,1
148.00,155.81,1
178.00,157.49,1
86.00,158.44,1
220.00,158.62,1
354.00,160.77,1
155.00,166.05,1
134.00,171.17,1
228.00,174.78,1
156.00,177.91,1
193.00,180.47,1
60.00,181.42,1
268.00,180.95,1
127.00,180.58,1
158.00,179.95,1
129.00,178.25,1
71.00,175.09,1
97.00,169.95,1
122.00,163.64,1
169.00,157.64,1
43.00,152.04,1
105.00,145.73,1
65.00,138.72,1
96.00,131.56,1
96.00,124.69,1
135.00,118.84,1
199.00,115.13,1
109.00,113.81,1
195.00,114.11,1
127.00,115.74,1
258.00,118.99,1
85.00,123.54,1
124.00,127.48,1
361.00,132.00,1
300.00,140.54,1
115.00,151.26,1
213.00,160.55,1
244.00,168.78,1
360.00,178.25,1
104.00,188.40,1
226.00,196.44,1
83.00,201.36,1
102.00,202.51,1
178.00,200.54,1
390.00,199.42,1
326.00,202.64,1
250.00,209.10,1
124.00,214.96,1
45.00,216.76,1
37.00,212.95,1
171.00,205.42,1
262.00,198.21,1
276.00,194.24,1
203.00,193.22,1
161.00,193.02,1
267.00,193.04,1
48.00,192.81,1
306.00,191.80,1
111.00,191.07,1
83.00,189.24,1
210.00,185.64,1
48.00,181.31,1
249.00,176.59,1
145.00,172.88,1
109.00,169.69,1
140.00,165.81,1
159.00,161.91,1
167.00,158.76,1
69.00,155.76,1
183.00,152.35,1
209.00,150.05,1
237.00,150.25,1
48.00,151.47,1
141.00,151.30,1
73.00,149.51,1
192.00,147.16,1
181.00,145.78,1
256.00,146.62,1
70.00,148.73,1
80.00,149.35,1
398.00,150.07,1
86.00,153.68,1
128.00,157.12,1
49.00,157.77,1
111.00,155.78,1
63.00,151.87,1
362.00,148.83,1
328.00,150.88,1
281.00,158.23,1
40.00,166.29,1
97.00,170.66,1
78.00,170.93,1
177.00,169.01,1
73.00,166.12,1
190.00,162.66,1
357.00,161.36,1
110.00,163.49,1
128.00,165.54,1
211.00,166.38,1
184.00,167.60,1
53.00,168.20,1
55.00,165.93,1
376.00,163.15,1
213.00,164.10,1
38.00,166.35,1
150.00,166.17,1
215.00,165.09,1
157.00,164.92,1
155.00,164.99,1
217.00,165.25,1
127.00,165.91,1
58.00,165.29,1
198.00,162.98,1
164.00,160.95,1
235.00,160.39,1
250.00,161.97,1
204.00,165.62,1
236.00,170.32,1
79.00,174.51,1
64.00,175.65,1
94.00,173.21,1
187.00,169.24,1
383.00,167.70,1
132.00,170.00,1
172.00,172.90,1
90.00,174.06,1
81.00,172.73,1
187.00,169.63,1
55.00,165.87,1
79.00,160.63,1
83.00,153.76,1
330.00,148.22,1
90.00,146.02,1
58.00,144.21,1
189.00,141.31,1
283.00,140.38,1
233.00,143.22,1
36.00,147.15,1
375.00,150.90,1
163.00,156.62,1
273.00,163.87,1
244.00,171.85,1
198.00,180.15,1
270.00,188.03,1
141.00,195.06,1
81.00,199.19,1
156.00,199.52,1
114.00,197.36,1
326.00,195.07,1
92.00,193.96,1
174.00,192.36,1
330.00,191.15,1
63.00,191.33,1
138.00,190.03,1
260.00,187.71,1
232.00,187.10,1
88.00,187.16,1
120.00,185.38,1
180.00,182.10,1
56.00,178.01,1
65.00,171.92,1
213.00,164.91,1
217.00,159.98,1
124.00,157.34,1
141.00,155.14,1
285.00,154.06,1
183.00,155.55,1
59.00,157.41,1
61.00,156.62,1
132.00,153.44,1
134.00,149.75,1
54.00,145.74,1
106.00,140.75,1
308.00,137.05,1
132.00,136.79,1
295.00,139.21,1
184.00,143.96,1
247.00,150.35,1
75.00,156.45,1
127.00,160.25,1
508.00,164.78,1
279.00,174.58,1
145.00,186.26,1
189.00,195.22,1
70.00,200.48,1
147.00,201.78,1
65.00,199.60,1
107.00,194.51,1
100.00,187.34,1
265.00,180.43,1
480.00,178.39,1
64.00,181.60,1
164.00,184.42,1
79.00,184.33,1
112.00,181.74,1
99.00,177.08,1
187.00,171.78,1
180.00,167.46,1
201.00,164.84,1
139.00,163.37,1
258.00,162.93,1
220.00,164.46,1
221.00,167.81,1
147.00,171.49,1
127.00,173.93,1
318.00,175.97,1
55.00,178.47,1
127.00,179.05,1
110.00,177.03,1
159.00,173.81,1
195.00,170.76,1
420.00,170.84,1
167.00,175.22,1
96.00,179.78,1
128.00,181.33,1
105.00,180.26,1
78.00,176.93,1
241.00,172.71,1
129.00,169.48,1
223.00,167.40,1
66.00,165.58,1
110.00,162.56,1
74.00,157.87,1
267.00,153.42,1
110.00,150.90,1
88.00,148.75,1
58.00,145.04,1
39.00,139.43,1
157.00,132.96,1
272.00,128.82,1
144.00,128.40,1
128.00,129.53,1
59.00,129.90,1
203.00,129.60,1
52.00,129.35,1
157.00,128.72,1
56.00,127.48,1
63.00,125.05,1
178.00,122.03,1
205.00,120.86,1
96.00,121.63,1
82.00,122.15,1
110.00,121.57,1
114.00,120.55,1
43.00,118.93,1
82.00,116.10,1
53.00,112.27,1
50.00,107.60,1
245.00,103.78,1
115.00,102.89,1
150.00,103.99,1
43.00,105.18,1
83.00,105.23,1
59.00,104.01,1
169.00,102.70,1
240.00,103.58,1
187.00,107.72,1
228.00,114.29,1
238.00,122.80,1
216.00,132.80,1
521.00,145.84,1
182.00,162.94,1
233.00,179.78,1
142.00,193.17,1
358.00,204.18,1
95.00,213.68,1
141.00,219.53,1
54.00,220.26,1
183.00,217.05,1
458.00,214.69,1
156.00,216.16,1
127.00,217.55,1
98.00,215.59,1
114.00,210.58,1
165.00,203.85,1
38.00,195.97,1
84.00,186.20,1
183.00,175.79,1
59.00,166.28,1
61.00,156.53,1
128.00,146.48,1
94.00,137.40,1
433.00,132.15,1
276.00,134.01,1
201.00,140.82,1
157.00,148.26,1
261.00,155.41,1
265.00,163.52,1
308.00,173.37,1
59.00,182.90,1
138.00,188.74,1
138.00,190.87,1
215.00,191.36,1
285.00,192.46,1
453.00,197.24,1
180.00,205.68,1
126.00,213.05,1
146.00,216.34,1
46.00,215.50,1
43.00,210.07,1
57.00,200.58,1
94.00,188.79,1
190.00,177.20,1
48.00,166.85,1
248.00,157.88,1
116.00,151.30,1
452.00,148.97,1
125.00,151.71,1
277.00,156.86,1
310.00,163.75,1
234.00,172.93,1
63.00,181.14,1
157.00,185.65,1
175.00,187.52,1
86.00,187.64,1
159.00,185.71,1
155.00,182.71,1
278.00,180.57,1
82.00,179.54,1
46.00,176.86,1
239.00,172.40,1
152.00,168.90,1
88.00,165.87,1
127.00,161.86,1
211.00,158.02,1
47.00,154.81,1
80.00,150.42,1
49.00,144.23,1
163.00,137.57,1
66.00,131.61,1
100.00,125.99,1
60.00,120.25,1
294.00,116.17,1
328.00,117.31,1
133.00,123.27,1
130.00,129.71,1
58.00,134.04,1
128.00,136.00,1
87.00,136.27,1
150.00,135.70,1
135.00,135.10,1
104.00,134.51,1
68.00,133.00,1
234.00,131.38,1
144.00,131.45,1
204.00,133.16,1
56.00,135.10,1
85.00,135.39,1
57.00,133.49,1
77.00,129.92,1
132.00,125.75,1
113.00,122.18,1
55.00,118.83,1
57.00,114.67,1
299.00,111.58,1
106.00,111.82,1
50.00,112.95,1
44.00,112.11,1
120.00,109.90,1
190.00,108.51,1
102.00,108.84,1
174.00,110.21,1
52.00,111.75,1
95.00,112.32,1
76.00,111.67,1
171.00,110.93,1
255.00,112.27,1
43.00,115.58,1
216.00,118.88,1
330.00,124.12,1
152.00,132.54,1
154.00,141.07,1
262.00,148.85,1
126.00,156.49,1
88.00,162.07,1
135.00,164.58,1
216.00,165.79,1
146.00,167.13,1
142.00,168.00,1
129.00,167.72,1
54.00,165.69,1
149.00,161.85,1
317.00,159.11,1
266.00,160.47,1
110.00,164.14,1
83.00,166.22,1
54.00,165.01,1
212.00,161.94,1
209.00,159.94,1
86.00,159.06,1
180.00,157.76,1
171.00,156.65,1
73.00,155.55,1
238.00,154.15,1
98.00,153.34,1
297.00,153.69,1
222.00,156.46,1
86.00,160.22,1
106.00,161.92,1
201.00,161.99,1
194.00,162.49,1
126.00,163.41,1
102.00,163.24,1
250.00,162.51,1
55.00,162.01,1
178.00,160.72,1
252.00,159.91,1
230.00,161.57,1
131.00,164.47,1
50.00,165.71,1
116.00,164.01,1
104.00,160.48,1
113.00,156.10,1
98.00,151.13,1
80.00,145.59,1
275.00,140.97,1
175.00,139.49,1
311.00,141.53,1
100.00,145.83,1
57.00,148.97,1
299.00,150.65,1
252.00,154.47,1
108.00,159.82,1
254.00,164.58,1
62.00,168.35,1
89.00,169.46,1
226.00,168.53,1
166.00,168.10,1
163.00,168.18,1
255.00,168.86,1
315.00,171.98,1
53.00,176.45,1
405.00,180.83,1
203.00,187.01,1
274.00,194.54,1
74.00,200.64,1
160.00,203.46,1
105.00,202.96,1
74.00,199.54,1
188.00,193.98,1
370.00,190.13,1
94.00,189.38,1
212.00,188.92,1
147.00,187.81,1
134.00,186.04,1
71.00,182.54,1
75.00,176.69,1
69.00,168.77,1
73.00,159.51,1
68.00,149.54,1
74.00,139.35,1
70.00,129.36,1
235.00,121.21,1
263.00,117.65,1
280.00,119.66,1
87.00,124.77,1
442.00,131.93,1
142.00,142.21,1
101.00,152.16,1
211.00,159.27,1
98.00,164.53,1
150.00,167.69,1
92.00,168.57,1
187.00,167.97,1
216.00,167.60,1
204.00,168.60,1
88.00,169.68,1
55.00,168.48,1
248.00,165.67,1
90.00,163.35,1
213.00,161.49,1
70.00,159.58,1
124.00,156.79,1
168.00,153.50,1
151.00,150.98,1
159.00,149.27,1
272.00,149.18,1
84.00,150.68,1
154.00,151.74,1
257.00,152.89,1
71.00,154.82,1
172.00,155.88,1
258.00,157.09,1
125.00,159.53,1
279.00,162.64,1
78.00,165.91,1
258.00,168.64,1
38.00,170.36,1
220.00,170.61,1
166.00,170.48,1
54.00,169.75,1
68.00,166.38,1
334.00,162.66,1
166.00,161.91,1
144.00,162.70,1
42.00,162.01,1
164.00,159.37,1
267.00,157.37,1
128.00,157.48,1
113.00,157.62,1
210.00,157.17,1
40.00,156.37,1
114.00,153.93,1
211.00,150.95,1
308.00,150.69,1
202.00,154.03,1
92.00,158.12,1
192.00,160.77,1
159.00,162.72,1
61.00,163.53,1
212.00,162.81,1
43.00,161.23,1
178.00,158.63,1
192.00,156.29,1
142.00,155.17,1
322.00,155.79,1
174.00,159.08,1
110.00,162.77,1
227.00,165.33,1
171.00,167.88,1
243.00,170.99,1
69.00,173.70,1
183.00,174.65,1
84.00,173.87,1
154.00,171.70,1
127.00,168.62,1
148.00,165.31,1
43.00,161.17,1
127.00,155.64,1
175.00,150.18,1
96.00,145.81,1
286.00,143.09,1
259.00,143.97,1
447.00,150.29,1
300.00,162.24,1
93.00,175.41,1
79.00,184.29,1
182.00,188.48,1
219.00,190.89,1
196.00,193.15,1
128.00,194.59,1
81.00,193.65,1
367.00,191.94,1
139.00,192.19,1
118.00,192.34,1
191.00,190.74,1
172.00,188.77,1
62.00,185.95,1
150.00,181.31,1
57.00,175.24,1
145.00,168.19,1
123.00,161.15,1
122.00,154.71,1
72.00,148.32,1
147.00,141.96,1
139.00,136.61,1
198.00,133.19,1
199.00,132.29,1
66.00,132.72,1
174.00,132.82,1
388.00,135.17,1
247.00,142.40,1
238.00,152.53,1
182.00,162.68,1
153.00,171.25,1
160.00,177.44,1
68.00,180.73,1
106.00,180.58,1
113.00,177.69,1
52.00,172.78,1
196.00,166.75,1
72.00,160.91,1
108.00,154.85,1
114.00,148.45,1
102.00,142.29,1
47.00,135.92,1
44.00,128.57,1
130.00,120.93,1
208.00,115.36,1
52.00,112.28,1
95.00,109.59,1
147.00,107.14,1
217.00,106.75,1
46.00,108.12,1
106.00,109.01,1
73.00,108.82,1
279.00,109.46,1
155.00,112.83,1
149.00,117.77,1
117.00,122.33,1
264.00,127.10,1
142.00,133.03,1
147.00,138.88,1
208.00,144.05,1
270.00,150.12,1
160.00,157.28,1
632.00,167.65,1
112.00,182.71,1
58.00,195.67,1
132.00,202.04,1
83.00,203.57,1
49.00,200.78,1
210.00,195.27,1
171.00,189.91,1
62.00,184.63,1
51.00,177.39,1
167.00,168.77,1
47.00,160.22,1
130.00,151.65,1
55.00,143.12,1
190.00,135.45,1
247.00,130.81,1
49.00,129.02,1
238.00,128.21,1
151.00,128.94,1
429.00,133.27,1
45.00,140.85,1
143.00,147.43,1
92.00,151.02,1
163.00,152.80,1
105.00,153.44,1
109.00,152.81,1
263.00,152.12,1
158.00,153.12,1
161.00,154.93,1
111.00,156.07,1
192.00,156.52,1
89.00,156.51,1
94.00,155.14,1
152.00,152.51,1
49.00,149.16,1
119.00,144.71,1
70.00,139.49,1
176.00,134.50,1
197.00,131.40,1
240.00,131.39,1
136.00,133.76,1
58.00,135.86,1
178.00,136.50,1
71.00,136.47,1
118.00,135.57,1
111.00,133.85,1
152.00,132.18,1
214.00,131.73,1
362.00,134.82,1
113.00,141.40,1
131.00,147.67,1
114.00,151.59,1
163.00,153.87,1
216.00,155.94,1
40.00,157.61,1
81.00,156.78,1
67.00,153.17,1
76.00,147.74,1
127.00,141.57,1
231.00,136.84,1
230.00,135.51,1
166.00,137.11,1
57.00,138.91,1
93.00,138.76,1
186.00,137.61,1
437.00,139.63,1
181.00,146.83,1
123.00,155.07,1
155.00,161.02,1
84.00,164.48,1
56.00,164.80,1
38.00,161.55,1
130.00,155.89,1
78.00,149.55,1
252.00,144.24,1
48.00,140.63,1
73.00,136.72,1
125.00,131.87,1
120.00,127.48,1
75.00,123.57,1
63.00,119.26,1
320.00,116.35,1
76.00,116.80,1
203.00,118.85,1
112.00,121.40,1
85.00,123.55,1
198.00,125.07,1
128.00,127.12,1
167.00,129.62,1
226.00,132.91,1
400.00,139.47,1
249.00,150.37,1
90.00,161.87,1
192.00,170.40,1
72.00,175.76,1
47.00,177.22,1
169.00,175.22,1
127.00,172.14,1
144.00,168.78,1
194.00,165.69,1
63.00,162.77,1
67.00,158.38,1
38.00,151.71,1
105.00,143.67,1
152.00,136.12,1
152.00,130.53,1
135.00,126.86,1
91.00,124.12,1
70.00,121.11,1
101.00,117.57,1
153.00,114.51,1
173.00,113.20,1
196.00,114.23,1
62.00,116.42,1
104.00,117.73,1
150.00,118.30,1
214.00,119.93,1
54.00,122.42,1
130.00,123.99,1
188.00,125.24,1
111.00,127.15,1
62.00,128.29,1
111.00,127.77,1
88.00,126.21,1
104.00,124.08,1
96.00,121.59,1
129.00,119.19,1
152.00,117.61,1
96.00,116.91,1
153.00,116.61,1
69.00,116.43,1
146.00,116.05,1
339.00,117.74,1
190.00,123.51,1
101.00,130.61,1
62.00,135.43,1
143.00,137.65,1
138.00,138.79,1
106.00,139.40,1
145.00,139.34,1
178.00,139.44,1
184.00,140.56,1
291.00,143.70,1
89.00,148.44,1
65.00,151.54,1
238.00,152.66,1
123.00,153.96,1
275.00,156.14,1
111.00,159.12,1
77.00,160.85,1
79.00,159.68,1
41.00,155.77,1
122.00,149.93,1
218.00,144.69,1
190.00,142.13,1
181.00,141.94,1
202.00,143.35,1
114.00,145.47,1
146.00,147.03,1
83.00,147.38,1
146.00,146.56,1
188.00,145.74,1
232.00,146.54,1
126.00,148.74,1
324.00,152.18,1
398.00,159.47,1
261.00,171.17,1
82.00,182.70,1
198.00,190.56,1
98.00,194.99,1
157.00,196.42,1
98.00,195.22,1
103.00,191.62,1
127.00,186.06,1
176.00,180.10,1
101.00,174.40,1
383.00,170.62,1
73.00,169.86,1
104.00,168.90,1
173.00,166.33,1
227.00,164.48,1
156.00,164.11,1
171.00,164.28,1
340.00,165.93,1
184.00,170.27,1
183.00,175.31,1
278.00,180.20,1
123.00,185.08,1
241.00,188.99,1
184.00,192.24,1
163.00,194.73,1
227.00,196.27,1
279.00,198.37,1
176.00,201.35,1
298.00,204.64,1
191.00,208.34,1
94.00,210.66,1
187.00,210.12,1
219.00,208.44,1
106.00,206.31,1
67.00,201.98,1
91.00,194.70,1
238.00,186.74,1
54.00,179.65,1
72.00,171.75,1
82.00,162.37,1
116.00,152.77,1
228.00,144.91,1
353.00,141.83,1
114.00,143.48,1
143.00,145.98,1
299.00,148.83,1
149.00,153.43,1
143.00,157.97,1
124.00,160.79,1
135.00,161.97,1
341.00,163.59,1
228.00,168.08,1
284.00,174.87,1
211.00,182.58,1
252.00,190.33,1
169.00,197.23,1
173.00,202.26,1
198.00,205.27,1
178.00,206.95,1
177.00,207.43,1
195.00,206.94,1
127.00,205.45,1
122.00,202.25,1
114.00,197.13,1
188.00,191.16,1
132.00,185.44,1
136.00,179.82,1
118.00,173.90,1
147.00,167.94,1
347.00,164.14,1
194.00,164.43,1
163.00,166.62,1
198.00,168.71,1
202.00,171.02,1
294.00,174.54,1
220.00,179.79,1
212.00,185.67,1
315.00,191.96,1
127.00,198.40,1
244.00,203.46,1
127.00,206.70,1
299.00,208.92,1
293.00,212.11,1
264.00,217.07,1
282.00,222.78,1
263.00,228.78,1
243.00,234.47,1
205.00,238.93,1
249.00,241.87,1
149.00,243.13,1
183.00,242.07,1
109.00,238.41,1
152.00,232.28,1
236.00,225.30,1
188.00,219.26,1
161.00,213.81,1
253.00,208.90,1
153.00,205.05,1
188.00,201.51,1
166.00,197.90,1
323.00,195.58,1
279.00,196.35,1
347.00,200.61,1
194.00,206.88,1
184.00,212.39,1
352.00,217.12,1
283.00,223.22,1
248.00,230.12,1
168.00,235.57,1
196.00,238.38,1
198.00,238.88,1
335.00,239.02,1
185.00,239.94,1
312.00,241.11,1
188.00,242.27,1
303.00,243.33,1
120.00,243.64,1
194.00,241.90,1
172.00,238.19,1
162.00,233.27,1
203.00,227.57,1
221.00,222.23,1
149.00,217.39,1
251.00,212.88,1
256.00,209.92,1
162.00,208.38,1
407.00,208.49,1
118.00,210.73,1
121.00,211.77,1
131.00,209.57,1
166.00,205.51,1
242.00,201.45,1
182.00,198.60,1
270.00,197.09,1
234.00,197.34,1
345.00,199.97,1
260.00,205.15,1
355.00,212.40,1
362.00,221.93,1
318.00,233.43,1
376.00,245.80,1
288.00,258.29,1
199.00,268.75,1
63.00,274.03,1
105.00,272.57,1
138.00,265.89,1
107.00,256.06,1
181.00,244.51,1
120.00,232.51,1
400.00,222.49,1
107.00,216.01,1
129.00,210.08,1
274.00,203.92,1
186.00,199.64,1
329.00,197.84,1
190.00,198.47,1
183.00,199.75,1
128.00,199.78,1
338.00,199.62,1
232.00,201.46,1
224.00,204.67,1
323.00,208.63,1
168.00,213.33,1
429.00,218.85,1
203.00,225.97,1
207.00,232.52,1
236.00,236.85,1
288.00,240.30,1
199.00,243.33,1
129.00,244.33,1
297.00,243.22,1
206.00,242.01,1
137.00,240.09,1
87.00,235.38,1
274.00,228.83,1
62.00,222.05,1
323.00,215.52,1
180.00,210.78,1
225.00,207.71,1
78.00,204.36,1
100.00,199.01,1
164.00,192.01,1
294.00,186.30,1
127.00,183.11,1
396.00,182.44,1
124.00,184.52,1
250.00,187.40,1
273.00,190.81,1
140.00,194.84,1
161.00,197.35,1
103.00,197.37,1
307.00,196.43,1
440.00,198.82,1
268.00,206.13,1
166.00,214.31,1
215.00,220.16,1
331.00,224.99,1
202.00,230.13,1
195.00,234.13,1
200.00,235.98,1
325.00,237.18,1
147.00,238.50,1
174.00,238.18,1
122.00,235.13,1
116.00,229.44,1
107.00,221.35,1
138.00,211.72,1
119.00,201.55,1
112.00,191.18,1
160.00,181.14,1
216.00,172.87,1
173.00,167.20,1
312.00,164.59,1
208.00,165.51,1
114.00,167.69,1
233.00,169.34,1
131.00,170.86,1
230.00,172.36,1
310.00,175.24,1
284.00,181.02,1
127.00,187.74,1
243.00,193.09,1
124.00,196.88,1
156.00,198.58,1
264.00,199.08,1
274.00,200.81,1
231.00,204.15,1
137.00,207.15,1
166.00,208.13,1
118.00,206.83,1
211.00,204.06,1
233.00,201.59,1
139.00,199.79,1
105.00,196.90,1
125.00,192.13,1
250.00,187.15,1
104.00,183.21,1
155.00,179.22,1
219.00,175.49,1
222.00,173.60,1
277.00,174.21,1
140.00,176.48,1
256.00,179.08,1
244.00,182.57,1
163.00,186.69,1
206.00,190.06,1
208.00,192.80,1
123.00,194.68,1
105.00,194.27,1
308.00,192.81,1
159.00,192.61,1
254.00,193.36,1
135.00,194.17,1
345.00,195.55,1
164.00,198.30,1
132.00,200.48,1
398.00,202.35,1
291.00,207.12,1
269.00,214.25,1
99.00,220.25,1
208.00,223.12,1
79.00,222.83,1
307.00,220.82,1
74.00,218.33,1
166.00,214.36,1
115.00,208.56,1
81.00,201.18,1
267.00,193.42,1
246.00,188.23,1
118.00,185.31,1
116.00,181.89,1
146.00,177.38,1
193.00,173.06,1
141.00,169.61,1
190.00,166.89,1
535.00,168.07,1
178.00,175.39,1
173.00,183.98,1
289.00,191.13,1
161.00,197.79,1
204.00,203.05,1
153.00,206.30,1
262.00,208.32,1
438.00,212.20,1
368.00,220.60,1
368.00,232.46,1
227.00,244.79,1
187.00,254.41,1
92.00,259.01,1
64.00,257.44,1
108.00,250.41,1
118.00,239.97,1
292.00,229.36,1
54.00,219.95,1
116.00,209.77,1
211.00,199.19,1
96.00,189.81,1
61.00,180.22,1
52.00,169.19,1
206.00,158.28,1
111.00,149.51,1
227.00,143.31,1
63.00,139.06,1
137.00,135.28,1
138.00,131.86,1
310.00,130.90,1
78.00,132.82,1
163.00,135.09,1
115.00,136.64,1
148.00,137.76,1
75.00,138.08,1
127.00,137.26,1
37.00,135.10,1
232.00,132.56,1
52.00,130.83,1
195.00,129.58,1
164.00,129.36,1
77.00,129.88,1
42.00,128.94,1
112.00,126.21,1
54.00,122.59,1
104.00,118.45,1
91.00,114.30,1
61.00,110.23,1
37.00,105.55,1
174.00,101.05,1
67.00,98.02,1
52.00,95.46,1
55.00,92.22,1
64.00,88.57,1
55.00,84.82,1
163.00,81.95,1
196.00,81.86,1
48.00,84.10,1
120.00,86.43,1
197.00,89.35,1
111.00,93.81,1
85.00,98.26,1
251.00,102.80,1
219.00,109.56,1
165.00,118.13,1
182.00,126.79,1
35.00,133.84,1
60.00,137.32,1
385.00,139.89,1
116.00,145.07,1
46.00,149.69,1
70.00,150.52,1
92.00,148.44,1
78.00,144.69,1
46.00,139.48,1
274.00,134.57,1
76.00,131.94,1
35.00,129.39,1
179.00,125.84,1
167.00,123.61,1
104.00,122.92,1
264.00,123.61,1
114.00,126.24,1
190.00,129.71,1
99.00,132.96,1
277.00,136.53,1
141.00,141.31,1
226.00,146.76,1
224.00,152.82,1
214.00,159.72,1
82.00,165.74,1
56.00,168.40,1
111.00,167.36,1
177.00,164.79,1
162.00,162.58,1
96.00,160.45,1
79.00,157.11,1
127.00,152.54,1
71.00,147.35,1
159.00,142.07,1
340.00,139.39,1
209.00,141.44,1
203.00,146.27,1
127.00,151.25,1
110.00,154.72,1
52.00,155.50,1
150.00,153.96,1
88.00,151.32,1
199.00,148.65,1
190.00,147.30,1
220.00,147.99,1
37.00,149.15,1
60.00,148.01,1
53.00,143.97,1
260.00,139.65,1
231.00,138.39,1
281.00,141.15,1
385.00,148.33,1
184.00,159.10,1
110.00,169.16,1
167.00,175.92,1
108.00,179.78,1
114.00,180.87,1
136.00,179.60,1
118.00,176.84,1
40.00,172.30,1
67.00,165.34,1
170.00,157.40,1
56.00,149.98,1
47.00,142.11,1
61.00,133.15,1
35.00,123.62,1
116.00,114.33,1
146.00,106.92,1
79.00,101.78,1
203.00,98.71,1
183.00,98.70,1
99.00,100.95,1
41.00,102.80,1
38.00,102.59,1
176.00,101.46,1
131.00,101.56,1
103.00,102.74,1
242.00,105.04,1
50.00,108.57,1
147.00,111.70,1
207.00,114.96,1
143.00,119.45,1
162.00,124.33,1
126.00,128.83,1
68.00,131.98,1
185.00,133.69,1
45.00,134.57,1
98.00,133.85,1
88.00,131.60,1
119.00,128.80,1
65.00,125.63,1
64.00,121.66,1
124.00,117.24,1
225.00,114.45,1
52.00,113.73,1
163.00,113.49,1
40.00,113.01,1
72.00,111.51,1
127.00,109.25,1
84.00,107.31,1
245.00,106.77,1
78.00,108.23,1
159.00,110.39,1
46.00,112.03,1
139.00,112.79,1
102.00,113.16,1
127.00,113.59,1
91.00,113.85,1
231.00,114.75,1
281.00,118.54,1
171.00,125.53,1
115.00,132.79,1
139.00,138.38,1
73.00,141.89,1
97.00,143.01,1
228.00,143.22,1
49.00,143.62,1
54.00,142.31,1
43.00,138.25,1
91.00,132.49,1
120.00,126.58,1
73.00,121.25,1
66.00,115.92,1
127.00,110.79,1
40.00,106.20,1
152.00,102.17,1
218.00,100.40,1
262.00,102.77,1
39.00,107.64,1
247.00,112.64,1
73.00,117.72,1
136.00,122.06,1
104.00,125.02,1
325.00,128.66,1
455.00,137.15,1
260.00,151.37,1
124.00,166.27,1
284.00,178.64,1
162.00,189.19,1
215.00,197.75,1
194.00,204.22,1
120.00,208.35,1
199.00,209.85,1
186.00,209.87,1
51.00,208.08,1
98.00,203.06,1
224.00,196.37,1
84.00,190.01,1
48.00,182.54,1
258.00,174.43,1
76.00,167.79,1
87.00,161.30,1
120.00,154.09,1
107.00,147.09,1
43.00,140.02,1
244.00,133.64,1
60.00,129.24,1
187.00,126.18,1
179.00,124.76,1
61.00,124.57,1
179.00,124.28,1
153.00,124.68,1
244.00,126.87,1
347.00,132.55,1
174.00,141.65,1
73.00,150.22,1
187.00,155.93,1
212.00,160.55,1
117.00,164.78,1
163.00,167.55,1
110.00,168.68,1
195.00,168.73,1
391.00,170.55,1
149.00,175.64,1
127.00,180.44,1
327.00,184.15,1
92.00,188.11,1
257.00,191.25,1
100.00,193.14,1
36.00,192.23,1
278.00,188.88,1
68.00,185.54,1
77.00,180.92,1
127.00,174.33,1
146.00,167.51,1
178.00,161.71,1
89.00,156.85,1
182.00,152.42,1
230.00,149.65,1
132.00,149.01,1
204.00,149.36,1
157.00,150.46,1
244.00,152.63,1
174.00,156.00,1
36.00,158.59,1
171.00,158.76,1
70.00,157.33,1
109.00,154.51,1
122.00,150.64,1
100.00,146.46,1
127.00,142.15,1
85.00,137.81,1
54.00,132.86,1
182.00,127.81,1
152.00,124.45,1
126.00,122.84,1
69.00,121.46,1
91.00,119.34,1
58.00,116.34,1
143.00,113.09,1
120.00,110.72,1
464.00,112.23,1
144.00,119.48,1
39.00,127.57,1
102.00,132.18,1
150.00,134.57,1
146.00,136.46,1
52.00,137.47,1
39.00,136.06,1
170.00,132.97,1
89.00,130.08,1
85.00,127.17,1
119.00,123.88,1
46.00,120.32,1
142.00,116.56,1
224.00,114.42,1
70.00,114.49,1
295.00,116.20,1
185.00,120.63,1
131.00,126.57,1
230.00,132.52,1
176.00,138.98,1
212.00,145.86,1
120.00,152.21,1
66.00,156.29,1
60.00,156.83,1
37.00,153.78,1
85.00,148.20,1
124.00,141.80,1
85.00,135.70,1
111.00,129.92,1
99.00,124.60,1
72.00,119.58,1
215.00,115.60,1
228.00,114.77,1
182.00,117.42,1
235.00,122.38,1
150.00,128.75,1
125.00,134.79,1
82.00,138.91,1
130.00,140.90,1
75.00,141.19,1
196.00,140.67,1
284.00,141.86,1
321.00,147.04,1
48.00,154.18,1
229.00,159.84,1
74.00,163.66,1
67.00,164.81,1
60.00,162.46,1
51.00,157.23,1
158.00,150.73,1
49.00,144.24,1
75.00,137.27,1
91.00,129.84,1
37.00,122.32,1
55.00,114.39,1
207.00,107.50,1
104.00,103.47,1
114.00,101.36,1
358.00,102.14,1
75.00,106.84,1
170.00,112.50,1
57.00,116.97,1
75.00,119.48,1
212.00,120.90,1
432.00,125.71,1
57.00,134.55,1
110.00,142.24,1
147.00,146.87,1
49.00,149.26,1
58.00,148.63,1
179.00,146.04,1
66.00,143.22,1
40.00,139.23,1
71.00,133.35,1
122.00,126.99,1
95.00,121.34,1
80.00,116.27,1
372.00,113.77,1
127.00,116.01,1
61.00,119.58,1
108.00,121.29,1
88.00,121.60,1
133.00,121.24,1
110.00,120.80,1
46.00,119.76,1
206.00,118.37,1
44.00,117.56,1
57.00,115.95,1
75.00,112.79,1
111.00,109.28,1
64.00,105.99,1
220.00,103.78,1
129.00,103.93,1
215.00,106.33,1
188.00,110.84,1
200.00,117.14,1
106.00,123.79,1
46.00,128.54,1
143.00,130.70,1
70.00,131.36,1
183.00,131.36,1
43.00,130.97,1
113.00,129.51,1
126.00,127.38,1
234.00,126.52,1
61.00,127.10,1
149.00,127.51,1
75.00,127.19,1
119.00,126.20,1
52.00,124.29,1
142.00,121.75,1
76.00,119.19,1
119.00,116.72,1
47.00,113.96,1
62.00,110.36,1
116.00,106.34,1
407.00,105.56,1
277.00,111.54,1
143.00,121.56,1
66.00,130.36,1
92.00,135.76,1
133.00,138.53,1
201.00,140.68,1
157.00,143.38,1
68.00,145.52,1
76.00,145.38,1
132.00,143.39,1
39.00,140.27,1
192.00,136.57,1
120.00,133.73,1
221.00,132.56,1
63.00,132.46,1
44.00,131.24,1
166.00,128.58,1
61.00,125.92,1
48.00,122.52,1
232.00,119.09,1
99.00,117.62,1
119.00,117.15,1
236.00,117.67,1
123.00,120.11,1
132.00,123.07,1
129.00,125.51,1
134.00,127.55,1
160.00,129.49,1
104.00,131.29,1
189.00,132.92,1
264.00,135.95,1
292.00,142.11,1
75.00,149.77,1
101.00,155.11,1
100.00,157.12,1
169.00,157.30,1
121.00,156.85,1
48.00,155.08,1
63.00,150.91,1
101.00,145.01,1
138.00,139.05,1
102.00,133.88,1
42.00,128.70,1
142.00,123.20,1
91.00,118.40,1
99.00,114.33,1
52.00,110.28,1
178.00,106.70,1
102.00,104.66,1
54.00,103.25,1
71.00,101.09,1
60.00,98.22,1
181.00,95.87,1
286.00,96.82,1
430.00,104.18,1
198.00,117.49,1
64.00,131.11,1
124.00,140.83,1
250.00,148.20,1
95.00,154.85,1
137.00,159.54,1
120.00,161.87,1
368.00,164.45,1
96.00,168.85,1
98.00,172.05,1
195.00,172.78,1
209.00,173.39,1
140.00,174.34,1
39.00,173.65,1
127.00,170.23,1
48.00,164.81,1
94.00,157.84,1
50.00,149.68,1
97.00,140.94,1
263.00,133.83,1
39.00,129.49,1
176.00,126.18,1
333.00,125.49,1
208.00,129.52,1
237.00,136.48,1
188.00,144.45,1
206.00,152.51,1
155.00,159.83,1
338.00,167.17,1
411.00,177.53,1
292.00,191.55,1
316.00,206.71,1
392.00,222.28,1
332.00,238.62,1
237.00,253.85,1
153.00,264.95,1
109.00,269.96,1
94.00,268.70,1
72.00,261.88,1
135.00,251.08,1
110.00,238.29,1
85.00,224.32,1
128.00,209.61,1
371.00,197.40,1
362.00,191.77,1
120.00,191.24,1
149.00,190.71,1
199.00,189.11,1
179.00,187.64,1
198.00,186.56,1
189.00,185.89,1
363.00,186.99,1
145.00,190.44,1
191.00,193.74,1
259.00,196.34,1
131.00,198.76,1
160.00,199.67,1
268.00,199.68,1
371.00,201.94,1
281.00,207.66,1
235.00,214.80,1
166.00,220.69,1
295.00,224.99,1
260.00,229.22,1
113.00,232.53,1
154.00,232.61,1
88.00,229.19,1
245.00,223.76,1
99.00,217.81,1
137.00,210.88,1
112.00,202.64,1
212.00,194.42,1
282.00,188.51,1
156.00,185.47,1
96.00,182.74,1
350.00,180.39,1
143.00,180.40,1
279.00,182.02,1
315.00,185.65,1
141.00,190.96,1
233.00,195.55,1
206.00,199.28,1
283.00,203.21,1
121.00,206.86,1
315.00,209.74,1
211.00,212.96,1
290.00,216.85,1
330.00,221.90,1
384.00,229.43,1
154.00,237.92,1
304.00,244.74,1
335.00,250.89,1
108.00,256.22,1
176.00,257.82,1
152.00,255.60,1
233.00,251.36,1
331.00,247.68,1
190.00,245.65,1
126.00,242.90,1
131.00,237.48,1
222.00,230.56,1
133.00,223.54,1
230.00,216.75,1
223.00,211.18,1
312.00,208.13,1
134.00,207.04,1
268.00,206.37,1
149.00,205.80,1
267.00,205.46,1
278.00,206.36,1
223.00,208.89,1
693.00,215.65,1
260.00,229.24,1
209.00,243.74,1
317.00,254.94,1
162.00,263.32,1
152.00,267.52,1
223.00,267.55,1
133.00,264.77,1
168.00,259.34,1
104.00,251.39,1
208.00,241.85,1
321.00,233.56,1
143.00,227.73,1
108.00,221.68,1
70.00,213.31,1
106.00,202.77,1
202.00,192.07,1
242.00,183.80,1
197.00,178.72,1
235.00,176.15,1
181.00,175.38,1
134.00,175.03,1
175.00,174.14,1
171.00,173.11,1
246.00,172.92,1
190.00,174.14,1
476.00,178.42,1
146.00,186.41,1
127.00,193.71,1
123.00,197.15,1
289.00,198.73,1
211.00,200.90,1
272.00,204.03,1
212.00,207.66,1
269.00,211.53,1
711.00,219.53,1
98.00,233.28,1
291.00,245.91,1
291.00,255.40,1
136.00,262.50,1
241.00,265.88,1
139.00,265.90,1
124.00,262.34,1
64.00,254.72,1
114.00,243.56,1
149.00,230.68,1
156.00,217.96,1
153.00,206.14,1
160.00,195.49,1
667.00,190.35,1
187.00,193.99,1
231.00,200.88,1
128.00,205.89,1
276.00,209.20,1
303.00,212.92,1
102.00,216.83,1
368.00,219.87,1
160.00,223.15,1
279.00,226.26,1
302.00,229.58,1
192.00,233.42,1
193.00,235.88,1
274.00,236.99,1
338.00,238.93,1
322.00,243.05,1
156.00,247.58,1
219.00,249.87,1
194.00,249.84,1
94.00,247.31,1
213.00,242.10,1
254.00,236.51,1
152.00,231.67,1
216.00,226.72,1
113.00,221.22,1
124.00,214.35,1
213.00,206.78,1
248.00,200.78,1
383.00,198.66,1
123.00,199.88,1
203.00,201.07,1
211.00,201.44,1
175.00,201.67,1
219.00,201.63,1
174.00,201.44,1
224.00,201.17,1
220.00,201.27,1
355.00,203.15,1
570.00,210.26,1
326.00,223.80,1
292.00,239.19,1
164.00,251.85,1
183.00,259.76,1
227.00,263.42,1
368.00,265.78,1
93.00,267.51,1
125.00,265.59,1
142.00,259.28,1
90.00,250.03,1
271.00,239.64,1
464.00,232.93,1
186.00,231.56,1
97.00,230.57,1
317.00,227.92,1
272.00,226.67,1
185.00,226.89,1
390.00,228.10,1
109.00,230.36,1
172.00,230.90,1
263.00,229.58,1
186.00,228.28,1
378.00,228.13,1
166.00,229.66,1
236.00,231.05,1
263.00,231.91,1
123.00,232.21,1
349.00,231.84,1
121.00,231.68,1
302.00,231.27,1
410.00,232.70,1
266.00,237.59,1
271.00,243.50,1
118.00,247.60,1
242.00,248.70,1
106.00,247.11,1
72.00,242.07,1
101.00,233.08,1
134.00,221.88,1
249.00,211.13,1
166.00,202.59,1
136.00,195.32,1
135.00,188.07,1
254.00,181.80,1
165.00,177.73,1
323.00,176.27,1
237.00,178.01,1
135.00,181.17,1
254.00,183.87,1
154.00,186.44,1
165.00,188.22,1
392.00,190.60,1
248.00,196.03,1
708.00,206.98,1
383.00,225.40,1
148.00,245.38,1
270.00,260.26,1
166.00,270.01,1
321.00,276.11,1
180.00,279.77,1
508.00,283.14,1
72.00,286.82,1
274.00,287.73,1
184.00,285.52,1
110.00,280.60,1
106.00,271.67,1
157.00,259.83,1
514.00,249.97,1
218.00,245.87,1
110.00,243.39,1
320.00,239.68,1
306.00,237.68,1
173.00,237.44,1
267.00,237.01,1
126.00,235.72,1
260.00,233.37,1
210.00,230.94,1
152.00,228.33,1
258.00,225.17,1
239.00,222.83,1
251.00,221.85,1
162.00,221.24,1
130.00,219.27,1
192.00,215.60,1
305.00,212.46,1
152.00,210.95,1
118.00,208.84,1
112.00,204.43,1
99.00,197.94,1
250.00,191.08,1
191.00,186.08,1
164.00,182.72,1
177.00,179.88,1
188.00,177.61,1
212.00,176.35,1
193.00,176.23,1
252.00,177.35,1
317.00,180.73,1
444.00,188.35,1
154.00,199.19,1
189.00,208.62,1
271.00,215.51,1
177.00,221.13,1
154.00,224.51,1
528.00,228.03,1
171.00,234.59,1
395.00,242.29,1
849.00,255.09,1
249.00,275.80,1
137.00,294.70,1
164.00,304.93,1
100.00,307.23,1
83.00,302.33,1
259.00,292.91,1
213.00,282.75,1
112.00,272.25,1
149.00,260.07,1
280.00,247.89,1
226.00,238.17,1
292.00,231.40,1
120.00,226.31,1
326.00,222.05,1
687.00,223.57,1
163.00,232.90,1
568.00,245.40,1
123.00,258.58,1
197.00,268.39,1
266.00,273.45,1
196.00,275.89,1
266.00,276.26,1
272.00,275.67,1
234.00,274.73,1
215.00,272.82,1
318.00,270.46,1
146.00,267.96,1
162.00,263.53,1
212.00,257.06,1
107.00,249.35,1
98.00,239.54,1
183.00,228.16,1
76.00,216.43,1
401.00,206.44,1
143.00,200.49,1
119.00,196.01,1
239.00,191.23,1
70.00,186.78,1
106.00,181.23,1
132.00,174.41,1
127.00,167.56,1
177.00,161.47,1
168.00,156.87,1
207.00,154.15,1
288.00,154.17,1
127.00,156.64,1
248.00,159.87,1
256.00,164.30,1
155.00,169.82,1
473.00,177.00,1
516.00,190.05,1
143.00,207.40,1
264.00,222.55,1
155.00,233.50,1
136.00,239.93,1
90.00,241.12,1
174.00,238.06,1
152.00,232.68,1
99.00,225.64,1
112.00,216.63,1
116.00,206.21,1
185.00,195.83,1
89.00,186.21,1
79.00,176.38,1
103.00,165.96,1
82.00,155.56,1
114.00,145.65,1
133.00,136.97,1
187.00,130.55,1
105.00,126.43,1
132.00,123.50,1
