380.00,215.27,1
357.00,229.06,1
176.00,242.48,1
280.00,252.83,1
318.00,261.04,1
83.00,266.89,1
40.00,266.74,1
355.00,262.08,1
128.00,257.13,1
188.00,251.46,1
227.00,244.87,1
53.00,237.51,1
160.00,228.11,1
55.00,216.95,1
216.00,205.32,1
78.00,194.35,1
87.00,183.37,1
183.00,172.55,1
297.00,164.84,1
70.00,160.54,1
88.00,156.30,1
288.00,152.33,1
90.00,150.51,1
246.00,150.04,1
315.00,152.17,1
135.00,157.15,1
83.00,161.26,1
70.00,162.12,1
334.00,162.01,1
390.00,165.89,1
128.00,173.64,1
238.00,181.10,1
251.00,187.85,1
345.00,195.72,1
120.00,204.01,1
236.00,210.34,1
82.00,213.76,1
93.00,213.40,1
171.00,209.67,1
288.00,205.88,1
235.00,204.30,1
187.00,204.16,1
69.00,202.91,1
42.00,198.30,1
147.00,190.74,1
78.00,182.10,1
76.00,172.65,1
186.00,163.21,1
145.00,155.53,1
46.00,148.88,1
137.00,141.99,1
102.00,135.56,1
228.00,130.88,1
637.00,132.87,1
238.00,144.39,1
112.00,158.47,1
170.00,169.15,1
46.00,175.81,1
280.00,179.55,1
204.00,183.16,1
180.00,187.02,1
284.00,190.79,1
388.00,196.73,1
285.00,205.89,1
268.00,216.18,1
48.00,224.05,1
69.00,226.23,1
136.00,223.09,1
316.00,218.74,1
283.00,216.93,1
295.00,218.14,1
152.00,220.31,1
88.00,220.36,1
85.00,216.55,1
148.00,209.85,1
47.00,201.35,1
36.00,190.50,1
246.00,178.96,1
51.00,169.05,1
78.00,159.47,1
49.00,148.98,1
97.00,138.34,1
146.00,128.90,1
258.00,122.82,1
83.00,120.30,1
144.00,119.10,1
377.00,120.44,1
176.00,126.35,1
130.00,133.75,1
246.00,140.59,1
560.00,150.88,1
239.00,166.97,1
94.00,183.01,1
60.00,193.21,1
112.00,197.24,1
210.00,197.83,1
62.00,196.65,1
120.00,193.02,1
402.00,189.70,1
190.00,190.11,1
68.00,191.17,1
316.00,190.93,1
159.00,191.54,1
62.00,191.42,1
82.00,188.04,1
63.00,181.61,1
81.00,173.11,1
54.00,163.23,1
64.00,152.38,1
45.00,140.98,1
172.00,130.36,1
66.00,121.74,1
338.00,116.47,1
79.00,115.40,1
51.00,115.30,1
278.00,115.20,1
283.00,118.68,1
146.00,125.57,1
250.00,133.47,1
74.00,141.02,1
204.00,147.06,1
139.00,151.93,1
142.00,155.75,1
323.00,159.67,1
248.00,165.98,1
153.00,173.33,1
231.00,179.67,1
57.00,184.11,1
281.00,186.56,1
102.00,188.21,1
72.00,187.83,1
64.00,183.85,1
78.00,177.02,1
362.00,170.79,1
55.00,167.50,1
135.00,164.48,1
138.00,160.57,1
108.00,156.57,1
121.00,152.28,1
106.00,147.75,1
95.00,142.96,1
236.00,138.99,1
107.00,136.96,1
134.00,135.71,1
273.00,135.64,1
296.00,139.14,1
208.00,146.07,1
97.00,153.19,1
158.00,158.14,1
234.00,162.03,1
347.00,167.65,1
187.00,175.63,1
52.00,182.27,1
172.00,185.14,1
64.00,185.00,1
181.00,182.74,1
177.00,179.96,1
119.00,177.31,1
38.00,173.17,1
93.00,166.69,1
60.00,158.63,1
85.00,149.73,1
109.00,140.82,1
64.00,132.42,1
103.00,124.48,1
63.00,117.08,1
56.00,109.93,1
102.00,103.16,1
141.00,97.92,1
134.00,94.98,1
230.00,94.89,1
52.00,97.03,1
225.00,100.08,1
60.00,103.74,1
106.00,106.82,1
147.00,109.09,1
176.00,111.99,1
200.00,116.27,1
160.00,121.77,1
142.00,127.39,1
108.00,132.01,1
240.00,136.11,1
252.00,141.69,1
239.00,149.39,1
89.00,157.07,1
141.00,162.30,1
178.00,165.46,1
155.00,167.76,1
70.00,168.59,1
81.00,166.74,1
112.00,162.66,1
122.00,157.71,1
60.00,152.16,1
64.00,145.43,1
82.00,137.75,1
184.00,130.76,1
38.00,125.15,1
92.00,119.67,1
68.00,113.93,1
114.00,108.63,1
164.00,104.81,1
39.00,102.43,1
92.00,99.99,1
169.00,98.07,1
330.00,99.68,1
179.00,106.05,1
263.00,115.22,1
239.00,126.16,1
298.00,138.88,1
158.00,152.15,1
43.00,162.64,1
151.00,168.51,1
246.00,172.27,1
128.00,175.82,1
74.00,177.46,1
139.00,176.24,1
221.00,174.23,1
195.00,173.35,1
164.00,173.36,1
63.00,172.47,1
166.00,169.86,1
242.00,167.52,1
133.00,166.70,1
78.00,165.41,1
42.00,161.69,1
95.00,155.62,1
146.00,148.99,1
164.00,143.57,1
69.00,139.19,1
142.00,134.94,1
96.00,130.96,1
127.00,127.41,1
188.00,124.94,1
168.00,124.49,1
229.00,126.27,1
298.00,131.06,1
190.00,138.79,1
165.00,147.06,1
175.00,154.22,1
234.00,160.76,1
152.00,166.98,1
152.00,171.90,1
204.00,175.41,1
201.00,178.57,1
73.00,180.67,1
178.00,180.65,1
170.00,179.60,1
109.00,178.04,1
125.00,175.23,1
150.00,171.51,1
112.00,167.45,1
44.00,162.27,1
177.00,156.09,1
49.00,149.91,1
76.00,143.17,1
55.00,135.44,1
85.00,127.32,1
184.00,120.32,1
131.00,115.84,1
206.00,114.00,1
297.00,115.78,1
385.00,123.05,1
195.00,134.92,1
212.00,147.63,1
138.00,158.67,1
204.00,167.53,1
426.00,176.76,1
38.00,186.99,1
211.00,194.48,1
252.00,199.63,1
250.00,204.92,1
53.00,208.82,1
181.00,209.29,1
222.00,207.99,1
138.00,206.42,1
156.00,203.80,1
276.00,201.06,1
124.00,199.23,1
232.00,197.49,1
148.00,195.73,1
120.00,193.25,1
74.00,188.78,1
43.00,181.64,1
37.00,171.86,1
72.00,160.32,1
69.00,148.30,1
159.00,137.30,1
43.00,127.96,1
40.00,118.99,1
115.00,110.20,1
178.00,103.57,1
257.00,101.13,1
59.00,102.18,1
48.00,103.09,1
341.00,104.46,1
192.00,109.67,1
338.00,118.81,1
298.00,131.43,1
232.00,146.35,1
290.00,161.53,1
170.00,175.87,1
258.00,188.28,1
184.00,198.68,1
375.00,208.29,1
145.00,217.62,1
43.00,223.38,1
197.00,223.94,1
130.00,221.61,1
188.00,217.87,1
169.00,213.39,1
270.00,209.50,1
41.00,205.83,1
310.00,201.70,1
83.00,198.04,1
140.00,193.81,1
164.00,188.54,1
55.00,182.62,1
177.00,175.80,1
73.00,168.79,1
112.00,161.49,1
408.00,156.43,1
278.00,157.37,1
112.00,161.74,1
89.00,164.61,1
400.00,167.05,1
249.00,172.79,1
59.00,179.33,1
160.00,182.72,1
222.00,184.21,1
152.00,185.50,1
300.00,187.18,1
37.00,188.79,1
388.00,190.07,1
191.00,193.05,1
102.00,196.15,1
244.00,197.28,1
100.00,197.30,1
51.00,194.89,1
108.00,189.19,1
36.00,181.08,1
54.00,170.87,1
163.00,159.96,1
178.00,150.99,1
78.00,144.12,1
96.00,137.68,1
97.00,131.26,1
168.00,125.83,1
183.00,122.63,1
154.00,121.84,1
226.00,123.12,1
246.00,127.06,1
261.00,133.97,1
293.00,143.58,1
228.00,155.00,1
174.00,166.18,1
304.00,176.46,1
62.00,185.41,1
270.00,191.85,1
108.00,196.26,1
250.00,199.20,1
59.00,200.36,1
249.00,199.68,1
291.00,199.57,1
70.00,200.35,1
45.00,198.27,1
146.00,192.66,1
174.00,186.27,1
41.00,179.67,1
48.00,171.23,1
169.00,161.69,1
124.00,153.30,1
84.00,146.01,1
340.00,140.87,1
127.00,139.71,1
258.00,141.26,1
266.00,145.33,1
157.00,151.47,1
130.00,157.00,1
247.00,161.49,1
280.00,167.06,1
162.00,173.78,1
68.00,178.68,1
190.00,180.52,1
272.00,181.90,1
111.00,183.93,1
156.00,184.77,1
258.00,184.91,1
109.00,185.36,1
35.00,183.77,1
194.00,179.49,1
318.00,176.44,1
211.00,176.93,1
166.00,178.98,1
149.00,180.33,1
194.00,180.84,1
223.00,181.52,1
110.00,182.25,1
57.00,180.90,1
127.00,176.74,1
92.00,171.05,1
84.00,164.33,1
348.00,158.82,1
188.00,157.40,1
169.00,158.49,1
294.00,160.87,1
379.00,166.75,1
195.00,176.00,1
286.00,185.93,1
267.00,195.89,1
155.00,205.04,1
146.00,211.20,1
288.00,214.97,1
188.00,218.24,1
278.00,221.30,1
146.00,223.66,1
67.00,223.29,1
132.00,219.02,1
331.00,214.00,1
174.00,211.14,1
36.00,207.88,1
103.00,201.35,1
73.00,192.34,1
48.00,181.57,1
94.00,169.55,1
49.00,157.14,1
49.00,144.53,1
88.00,132.10,1
117.00,121.11,1
98.00,112.23,1
88.00,105.09,1
376.00,101.62,1
119.00,103.52,1
307.00,109.19,1
116.00,116.93,1
266.00,125.62,1
301.00,135.91,1
190.00,147.97,1
296.00,160.32,1
186.00,172.41,1
47.00,181.81,1
244.00,187.25,1
129.00,190.67,1
74.00,191.71,1
87.00,189.13,1
167.00,184.33,1
238.00,180.03,1
91.00,176.89,1
118.00,173.09,1
38.00,167.52,1
102.00,160.21,1
55.00,151.79,1
103.00,142.98,1
105.00,134.58,1
87.00,127.05,1
265.00,121.63,1
74.00,119.19,1
83.00,117.49,1
140.00,115.46,1
264.00,115.29,1
165.00,118.23,1
60.00,121.98,1
237.00,125.11,1
364.00,130.78,1
648.00,144.23,1
422.00,166.92,1
276.00,193.30,1
232.00,216.92,1
268.00,236.02,1
244.00,251.09,1
259.00,262.64,1
311.00,271.60,1
140.00,277.88,1
40.00,278.62,1
69.00,272.34,1
52.00,260.41,1
49.00,244.61,1
49.00,226.19,1
40.00,206.23,1
226.00,187.17,1
198.00,172.18,1
66.00,160.83,1
43.00,149.96,1
93.00,138.78,1
51.00,128.00,1
81.00,117.85,1
176.00,109.46,1
156.00,104.38,1
228.00,102.98,1
306.00,106.07,1
266.00,114.06,1
209.00,125.01,1
241.00,136.83,1
115.00,147.95,1
202.00,157.07,1
240.00,165.08,1
221.00,173.16,1
213.00,180.97,1
255.00,188.38,1
275.00,196.03,1
128.00,203.08,1
162.00,207.46,1
171.00,209.06,1
78.00,208.17,1
46.00,203.72,1
117.00,195.93,1
70.00,186.44,1
59.00,175.69,1
51.00,163.68,1
110.00,151.39,1
67.00,139.84,1
45.00,128.83,1
65.00,118.02,1
136.00,108.49,1
89.00,101.18,1
151.00,96.13,1
191.00,93.93,1
159.00,94.86,1
226.00,98.51,1
136.00,104.22,1
193.00,110.83,1
138.00,117.65,1
262.00,124.97,1
223.00,133.76,1
327.00,144.54,1
240.00,157.19,1
265.00,170.52,1
306.00,183.89,1
263.00,197.41,1
271.00,210.28,1
152.00,221.01,1
150.00,227.87,1
176.00,230.69,1
202.00,231.04,1
178.00,229.92,1
112.00,226.98,1
70.00,221.14,1
121.00,212.48,1
48.00,201.84,1
119.00,189.87,1
38.00,177.18,1
53.00,163.72,1
140.00,150.40,1
72.00,138.66,1
110.00,128.40,1
92.00,119.54,1
174.00,112.74,1
248.00,109.54,1
192.00,110.65,1
262.00,115.29,1
350.00,123.83,1
336.00,137.00,1
96.00,151.73,1
458.00,166.05,1
273.00,182.08,1
266.00,198.77,1
140.00,212.69,1
313.00,223.33,1
232.00,232.28,1
136.00,238.94,1
166.00,241.60,1
148.00,240.68,1
195.00,237.47,1
127.00,232.67,1
96.00,225.86,1
101.00,216.69,1
105.00,205.89,1
50.00,193.84,1
38.00,180.27,1
75.00,165.65,1
114.00,151.57,1
127.00,139.41,1
144.00,129.79,1
160.00,122.97,1
169.00,118.97,1
200.00,117.77,1
229.00,119.56,1
216.00,124.21,1
279.00,131.40,1
256.00,141.02,1
296.00,152.67,1
190.00,165.06,1
218.00,176.41,1
148.00,185.60,1
298.00,193.14,1
304.00,201.15,1
263.00,210.23,1
143.00,218.22,1
158.00,222.93,1
104.00,223.81,1
91.00,220.86,1
132.00,214.79,1
127.00,207.03,1
186.00,199.03,1
36.00,190.79,1
76.00,180.94,1
78.00,169.67,1
45.00,157.80,1
43.00,145.30,1
79.00,132.73,1
48.00,120.84,1
49.00,109.65,1
152.00,100.00,1
150.00,93.51,1
236.00,91.19,1
270.00,93.80,1
236.00,101.10,1
258.00,111.58,1
177.00,123.59,1
334.00,136.44,1
222.00,150.55,1
227.00,164.62,1
228.00,177.33,1
266.00,188.98,1
114.00,198.81,1
182.00,205.30,1
64.00,207.91,1
131.00,206.64,1
88.00,202.26,1
70.00,195.35,1
192.00,187.13,1
77.00,179.09,1
103.00,170.75,1
51.00,161.54,1
115.00,151.86,1
195.00,143.42,1
109.00,137.32,1
207.00,133.28,1
315.00,132.75,1
123.00,135.87,1
53.00,138.83,1
188.00,139.94,1
226.00,141.59,1
137.00,144.57,1
163.00,147.54,1
253.00,150.84,1
202.00,155.55,1
189.00,160.96,1
230.00,166.45,1
317.00,173.10,1
208.00,181.31,1
232.00,189.52,1
190.00,196.62,1
283.00,202.91,1
273.00,209.49,1
262.00,216.57,1
115.00,222.33,1
98.00,224.21,1
297.00,223.23,1
145.00,222.03,1
62.00,219.13,1
79.00,212.54,1
42.00,202.69,1
44.00,190.20,1
82.00,176.17,1
37.00,161.71,1
42.00,147.03,1
134.00,133.11,1
46.00,121.07,1
152.00,111.04,1
262.00,104.82,1
176.00,103.66,1
130.00,105.49,1
142.00,108.16,1
91.00,110.79,1
285.00,114.16,1
231.00,120.31,1
212.00,128.97,1
201.00,138.37,1
222.00,147.86,1
291.00,157.93,1
407.00,170.35,1
224.00,185.13,1
204.00,198.99,1
114.00,209.11,1
235.00,215.40,1
173.00,219.33,1
187.00,221.42,1
127.00,221.24,1
37.00,217.77,1
152.00,210.84,1
158.00,202.73,1
39.00,194.05,1
68.00,183.57,1
101.00,171.80,1
46.00,159.78,1
106.00,147.84,1
96.00,136.80,1
118.00,127.33,1
143.00,119.85,1
175.00,115.00,1
213.00,113.42,1
127.00,114.49,1
38.00,115.68,1
266.00,116.64,1
256.00,120.32,1
277.00,127.84,1
198.00,137.65,1
277.00,148.43,1
226.00,159.79,1
342.00,171.99,1
130.00,184.16,1
164.00,193.64,1
258.00,200.37,1
182.00,205.99,1
176.00,210.04,1
192.00,212.17,1
92.00,212.18,1
101.00,209.10,1
88.00,202.96,1
55.00,194.32,1
110.00,183.84,1
226.00,173.94,1
118.00,166.28,1
52.00,159.21,1
49.00,150.82,1
56.00,141.15,1
114.00,131.41,1
55.00,122.47,1
102.00,114.32,1
179.00,107.96,1
180.00,104.85,1
109.00,104.36,1
286.00,106.18,1
325.00,112.40,1
295.00,123.57,1
127.00,136.63,1
114.00,147.53,1
43.00,154.23,1
286.00,158.24,1
136.00,162.27,1
290.00,166.98,1
164.00,172.32,1
178.00,177.26,1
120.00,180.45,1
59.00,180.83,1
118.00,178.10,1
128.00,173.64,1
38.00,167.91,1
105.00,160.54,1
105.00,152.54,1
59.00,144.50,1
74.00,136.07,1
45.00,127.22,1
162.00,118.99,1
50.00,112.26,1
188.00,107.17,1
131.00,104.35,1
100.00,103.30,1
241.00,103.81,1
197.00,107.19,1
214.00,113.21,1
100.00,120.04,1
227.00,126.57,1
270.00,134.15,1
45.00,142.17,1
202.00,148.21,1
183.00,153.13,1
236.00,158.46,1
60.00,163.18,1
246.00,166.33,1
271.00,170.04,1
130.00,174.83,1
134.00,178.17,1
81.00,178.77,1
83.00,176.43,1
45.00,171.20,1
41.00,163.32,1
73.00,153.58,1
403.00,146.00,1
45.00,143.08,1
43.00,140.55,1
182.00,136.55,1
132.00,133.45,1
50.00,130.78,1
336.00,129.12,1
134.00,130.66,1
113.00,133.43,1
161.00,135.43,1
132.00,137.16,1
99.00,138.27,1
86.00,137.99,1
113.00,136.39,1
140.00,134.40,1
262.00,133.86,1
295.00,136.93,1
195.00,143.37,1
254.00,151.31,1
294.00,160.59,1
147.00,170.49,1
179.00,178.72,1
44.00,183.55,1
65.00,183.91,1
283.00,181.89,1
105.00,180.42,1
75.00,178.04,1
40.00,172.78,1
41.00,164.69,1
177.00,155.54,1
65.00,147.25,1
102.00,139.46,1
79.00,131.79,1
100.00,124.59,1
68.00,117.87,1
254.00,112.91,1
160.00,111.49,1
203.00,113.13,1
82.00,115.98,1
108.00,118.24,1
161.00,119.84,1
428.00,124.16,1
207.00,133.47,1
136.00,144.25,1
203.00,153.31,1
129.00,160.67,1
226.00,166.62,1
282.00,172.77,1
78.00,178.90,1
311.00,183.82,1
166.00,188.64,1
152.00,192.64,1
107.00,194.08,1
71.00,192.35,1
137.00,187.86,1
77.00,181.71,1
78.00,174.06,1
90.00,165.16,1
176.00,156.53,1
56.00,148.92,1
78.00,141.24,1
96.00,133.28,1
94.00,125.84,1
92.00,119.13,1
47.00,112.78,1
117.00,106.73,1
185.00,102.44,1
104.00,100.69,1
166.00,100.63,1
64.00,101.39,1
99.00,101.86,1
114.00,101.96,1
338.00,104.17,1
133.00,110.00,1
194.00,117.39,1
128.00,124.48,1
189.00,131.04,1
225.00,137.73,1
236.00,145.52,1
200.00,154.05,1
304.00,163.19,1
141.00,172.58,1
184.00,180.38,1
200.00,186.20,1
60.00,189.81,1
115.00,189.85,1
48.00,186.42,1
134.00,180.49,1
55.00,173.08,1
82.00,164.41,1
118.00,155.16,1
75.00,146.25,1
132.00,137.94,1
37.00,130.17,1
67.00,122.22,1
51.00,113.96,1
296.00,107.77,1
123.00,105.81,1
122.00,106.30,1
216.00,107.97,1
138.00,111.40,1
193.00,115.99,1
84.00,120.68,1
215.00,125.02,1
110.00,129.33,1
138.00,133.07,1
178.00,136.18,1
209.00,139.84,1
54.00,143.37,1
140.00,145.09,1
214.00,146.13,1
112.00,147.72,1
128.00,148.71,1
256.00,149.70,1
63.00,151.32,1
99.00,151.50,1
77.00,149.43,1
60.00,145.51,1
61.00,139.86,1
41.00,132.78,1
119.00,125.16,1
45.00,117.92,1
62.00,110.74,1
122.00,104.03,1
187.00,99.55,1
118.00,97.96,1
127.00,98.04,1
162.00,99.27,1
83.00,101.33,1
141.00,103.42,1
352.00,107.51,1
275.00,116.27,1
331.00,129.25,1
255.00,144.73,1
169.00,160.04,1
122.00,172.31,1
203.00,181.00,1
253.00,188.09,1
148.00,194.33,1
137.00,198.33,1
184.00,199.79,1
39.00,198.80,1
206.00,195.35,1
83.00,190.69,1
124.00,184.94,1
101.00,178.01,1
215.00,171.33,1
49.00,165.38,1
43.00,158.32,1
77.00,149.48,1
39.00,139.73,1
92.00,129.73,1
82.00,120.36,1
139.00,112.53,1
166.00,107.21,1
180.00,105.00,1
215.00,105.97,1
121.00,109.26,1
286.00,114.30,1
369.00,123.14,1
244.00,136.36,1
291.00,151.38,1
56.00,165.08,1
132.00,174.44,1
389.00,181.64,1
226.00,190.48,1
250.00,199.93,1
292.00,208.92,1
196.00,217.36,1
233.00,224.17,1
86.00,228.09,1
171.00,228.29,1
179.00,225.89,1
70.00,221.51,1
68.00,214.07,1
318.00,205.67,1
122.00,199.32,1
61.00,193.05,1
44.00,184.28,1
294.00,175.19,1
37.00,168.02,1
188.00,161.61,1
48.00,155.21,1
133.00,148.67,1
108.00,142.26,1
157.00,136.87,1
253.00,133.84,1
157.00,133.88,1
88.00,134.90,1
230.00,135.87,1
124.00,137.69,1
277.00,140.77,1
339.00,146.88,1
176.00,156.08,1
247.00,165.65,1
74.00,173.60,1
206.00,178.84,1
84.00,181.61,1
132.00,181.90,1
95.00,179.74,1
40.00,175.15,1
118.00,168.31,1
97.00,160.64,1
185.00,153.60,1
83.00,147.72,1
124.00,142.29,1
40.00,136.50,1
66.00,129.83,1
201.00,123.55,1
82.00,119.26,1
74.00,115.69,1
67.00,111.60,1
73.00,107.11,1
115.00,102.87,1
69.00,99.32,1
214.00,97.21,1
98.00,97.30,1
154.00,98.82,1
289.00,102.44,1
181.00,109.38,1
170.00,117.84,1
403.00,127.99,1
175.00,141.06,1
145.00,153.76,1
239.00,164.16,1
106.00,172.65,1
166.00,178.48,1
76.00,181.26,1
191.00,181.60,1
299.00,182.11,1
125.00,184.03,1
49.00,184.34,1
75.00,180.90,1
375.00,177.05,1
114.00,176.02,1
56.00,174.87,1
159.00,171.41,1
52.00,166.63,1
56.00,160.12,1
193.00,152.84,1
39.00,146.22,1
78.00,139.25,1
188.00,132.51,1
179.00,128.23,1
126.00,126.29,1
60.00,124.70,1
94.00,122.18,1
82.00,118.95,1
205.00,116.39,1
188.00,116.23,1
196.00,118.70,1
296.00,123.90,1
258.00,132.36,1
50.00,141.56,1
176.00,148.29,1
135.00,152.94,1
66.00,155.63,1
96.00,155.53,1
37.00,152.71,1
130.00,148.01,1
60.00,142.50,1
120.00,136.66,1
121.00,131.19,1
45.00,126.07,1
59.00,120.23,1
51.00,113.58,1
128.00,107.17,1
45.00,101.67,1
108.00,96.81,1
126.00,93.12,1
36.00,90.52,1
336.00,89.96,1
220.00,94.24,1
204.00,102.53,1
198.00,112.27,1
139.00,122.08,1
215.00,131.20,1
318.00,141.16,1
221.00,152.92,1
256.00,165.19,1
258.00,177.28,1
148.00,188.20,1
170.00,196.27,1
132.00,200.99,1
54.00,201.94,1
111.00,198.89,1
92.00,192.98,1
58.00,185.05,1
95.00,175.42,1
104.00,165.18,1
54.00,154.90,1
175.00,145.16,1
85.00,137.00,1
109.00,130.03,1
63.00,123.45,1
120.00,117.31,1
54.00,111.71,1
114.00,106.59,1
236.00,103.45,1
104.00,103.33,1
49.00,103.89,1
230.00,104.46,1
243.00,107.65,1
313.00,115.09,1
222.00,126.02,1
173.00,137.83,1
213.00,148.70,1
296.00,159.47,1
219.00,170.86,1
71.00,180.52,1
416.00,188.30,1
46.00,195.83,1
187.00,200.82,1
60.00,201.88,1
109.00,199.45,1
192.00,194.89,1
51.00,189.48,1
108.00,182.42,1
293.00,175.65,1
76.00,171.07,1
40.00,165.93,1
51.00,158.25,1
127.00,149.40,1
64.00,140.78,1
52.00,132.12,1
60.00,123.04,1
131.00,114.58,1
164.00,108.37,1
66.00,104.41,1
160.00,101.72,1
278.00,101.84,1
254.00,106.55,1
147.00,114.34,1
639.00,126.28,1
200.00,144.67,1
141.00,163.62,1
260.00,178.75,1
212.00,191.55,1
231.00,202.52,1
318.00,212.35,1
197.00,221.59,1
194.00,228.76,1
165.00,232.86,1
91.00,233.35,1
210.00,230.56,1
43.00,225.40,1
96.00,217.27,1
171.00,207.25,1
247.00,198.44,1
54.00,191.13,1
98.00,183.00,1
100.00,173.64,1
45.00,163.62,1
112.00,153.10,1
42.00,142.60,1
56.00,131.99,1
77.00,121.47,1
191.00,112.78,1
182.00,107.74,1
295.00,107.34,1
221.00,111.68,1
85.00,118.12,1
193.00,123.93,1
65.00,128.69,1
188.00,132.27,1
402.00,137.59,1
204.00,146.92,1
277.00,158.12,1
252.00,169.78,1
127.00,180.53,1
175.00,188.36,1
233.00,193.95,1
192.00,198.67,1
150.00,202.03,1
123.00,203.00,1
151.00,201.56,1
127.00,198.38,1
87.00,193.49,1
49.00,186.29,1
83.00,176.90,1
42.00,166.00,1
67.00,154.16,1
51.00,141.95,1
40.00,129.69,1
72.00,117.77,1
53.00,106.78,1
71.00,96.95,1
137.00,89.02,1
144.00,84.11,1
59.00,81.60,1
145.00,80.36,1
248.00,81.70,1
153.00,86.58,1
324.00,94.72,1
267.00,106.60,1
276.00,121.48,1
309.00,138.08,1
255.00,155.62,1
275.00,172.83,1
346.00,189.70,1
323.00,206.91,1
249.00,223.42,1
134.00,236.47,1
142.00,244.03,1
146.00,246.31,1
111.00,244.44,1
91.00,238.73,1
64.00,229.35,1
54.00,216.89,1
126.00,202.68,1
137.00,188.83,1
44.00,175.73,1
39.00,162.13,1
148.00,148.65,1
83.00,136.93,1
49.00,126.51,1
48.00,116.29,1
248.00,107.92,1
132.00,103.62,1
179.00,102.66,1
182.00,104.12,1
200.00,107.94,1
278.00,114.39,1
189.00,123.36,1
440.00,135.16,1
458.00,152.29,1
209.00,173.31,1
374.00,193.89,1
204.00,212.72,1
130.00,227.51,1
235.00,237.00,1
112.00,242.25,1
104.00,242.90,1
224.00,239.86,1
55.00,234.66,1
130.00,226.80,1
105.00,216.81,1
67.00,205.42,1
106.00,192.82,1
38.00,179.45,1
96.00,165.65,1
44.00,151.95,1
137.00,139.16,1
268.00,129.71,1
190.00,125.36,1
101.00,124.10,1
46.00,122.66,1
127.00,120.15,1
297.00,119.20,1
318.00,123.14,1
186.00,131.29,1
221.00,140.66,1
134.00,149.43,1
47.00,155.56,1
233.00,158.90,1
297.00,162.88,1
162.00,168.70,1
218.00,174.48,1
239.00,180.03,1
352.00,186.96,1
171.00,195.26,1
73.00,201.45,1
160.00,203.44,1
50.00,201.89,1
226.00,198.06,1
59.00,193.23,1
92.00,186.77,1
43.00,178.02,1
38.00,167.27,1
41.00,154.89,1
96.00,142.09,1
55.00,130.05,1
104.00,119.17,1
168.00,110.51,1
172.00,105.33,1
238.00,104.09,1
143.00,106.23,1
190.00,110.23,1
242.00,115.96,1
74.00,122.67,1
158.00,128.24,1
304.00,133.98,1
239.00,142.24,1
114.00,151.22,1
258.00,159.03,1
106.00,165.80,1
282.00,171.67,1
137.00,177.14,1
38.00,180.35,1
98.00,179.39,1
236.00,176.60,1
156.00,174.65,1
197.00,173.55,1
210.00,173.26,1
113.00,173.35,1
57.00,171.76,1
46.00,167.12,1
96.00,160.11,1
52.00,151.89,1
64.00,142.80,1
128.00,133.72,1
123.00,126.07,1
87.00,119.90,1
236.00,115.65,1
175.00,114.73,1
232.00,116.98,1
60.00,120.59,1
162.00,123.59,1
218.00,126.76,1
255.00,132.02,1
156.00,138.97,1
399.00,147.64,1
318.00,159.83,1
295.00,174.77,1
207.00,189.56,1
174.00,201.84,1
193.00,210.67,1
211.00,216.78,1
174.00,220.77,1
100.00,221.97,1
242.00,220.65,1
87.00,217.90,1
222.00,213.89,1
96.00,208.97,1
114.00,202.69,1
97.00,194.72,1
129.00,185.83,1
101.00,176.69,1
46.00,167.03,1
56.00,156.23,1
142.00,145.35,1
72.00,135.68,1
69.00,126.78,1
84.00,118.24,1
90.00,110.54,1
130.00,104.29,1
166.00,100.35,1
127.00,98.92,1
267.00,100.28,1
240.00,105.54,1
211.00,113.97,1
278.00,124.37,1
175.00,135.93,1
186.00,146.95,1
146.00,156.19,1
187.00,163.56,1
154.00,169.30,1
223.00,174.00,1
171.00,178.20,1
38.00,180.47,1
129.00,179.34,1
150.00,176.25,1
52.00,172.06,1
197.00,166.91,1
131.00,162.25,1
100.00,157.97,1
78.00,152.86,1
146.00,147.25,1
59.00,141.67,1
68.00,135.50,1
46.00,128.33,1
118.00,120.94,1
90.00,114.40,1
123.00,109.13,1
148.00,105.51,1
244.00,104.76,1
219.00,107.80,1
229.00,114.08,1
93.00,121.48,1
191.00,128.10,1
180.00,134.31,1
304.00,141.66,1
90.00,149.83,1
116.00,156.04,1
83.00,158.91,1
256.00,160.27,1
137.00,162.06,1
168.00,163.84,1
125.00,164.71,1
93.00,164.13,1
156.00,162.10,1
130.00,159.61,1
42.00,156.21,1
95.00,150.97,1
57.00,144.36,1
71.00,136.85,1
113.00,129.18,1
149.00,122.77,1
38.00,117.56,1
41.00,111.90,1
161.00,106.22,1
218.00,103.24,1
210.00,104.27,1
207.00,108.62,1
161.00,114.87,1
158.00,121.50,1
273.00,128.73,1
276.00,138.12,1
177.00,148.99,1
130.00,158.61,1
514.00,168.54,1
140.00,181.25,1
104.00,192.34,1
58.00,197.73,1
55.00,197.57,1
58.00,192.76,1
53.00,184.60,1
153.00,174.89,1
42.00,165.04,1
83.00,154.76,1
231.00,145.46,1
124.00,139.11,1
49.00,134.04,1
56.00,128.06,1
113.00,121.54,1
188.00,116.44,1
204.00,114.46,1
206.00,115.77,1
88.00,118.76,1
128.00,121.33,1
38.00,122.42,1
163.00,122.25,1
228.00,122.98,1
263.00,126.73,1
243.00,133.67,1
213.00,142.51,1
240.00,152.05,1
324.00,162.67,1
283.00,175.12,1
253.00,188.26,1
224.00,200.40,1
242.00,210.79,1
78.00,218.21,1
142.00,221.09,1
161.00,220.24,1
131.00,217.23,1
118.00,212.22,1
50.00,204.82,1
76.00,194.85,1
50.00,182.90,1
55.00,169.65,1
165.00,156.66,1
61.00,145.30,1
59.00,134.72,1
135.00,124.82,1
208.00,117.62,1
195.00,114.45,1
92.00,113.99,1
265.00,115.19,1
208.00,119.13,1
240.00,125.83,1
218.00,134.22,1
344.00,144.58,1
173.00,156.56,1
348.00,169.10,1
236.00,182.16,1
216.00,194.62,1
128.00,204.24,1
300.00,211.18,1
265.00,217.68,1
296.00,224.74,1
166.00,231.13,1
261.00,235.69,1
125.00,238.07,1
66.00,236.75,1
79.00,230.69,1
149.00,221.50,1
73.00,210.93,1
60.00,198.87,1
77.00,185.35,1
145.00,171.91,1
53.00,159.48,1
100.00,147.65,1
75.00,136.50,1
229.00,127.47,1
121.00,121.79,1
331.00,120.05,1
325.00,123.89,1
202.00,132.59,1
132.00,141.92,1
195.00,149.78,1
256.00,157.24,1
254.00,165.66,1
245.00,174.92,1
67.00,182.88,1
323.00,188.69,1
231.00,194.67,1
223.00,201.12,1
97.00,205.78,1
234.00,207.89,1
200.00,208.94,1
207.00,209.79,1
208.00,210.29,1
250.00,210.94,1
142.00,211.48,1
65.00,209.84,1
119.00,204.83,1
78.00,197.42,1
59.00,188.05,1
60.00,176.82,1
96.00,164.72,1
100.00,152.98,1
98.00,142.25,1
39.00,132.15,1
122.00,122.57,1
118.00,114.55,1
93.00,108.40,1
116.00,103.63,1
153.00,100.53,1
85.00,99.07,1
190.00,98.91,1
197.00,101.04,1
233.00,106.08,1
246.00,113.92,1
214.00,123.91,1
94.00,133.75,1
184.00,141.66,1
143.00,147.99,1
198.00,153.42,1
114.00,157.88,1
211.00,161.31,1
52.00,163.43,1
50.00,162.65,1
117.00,158.91,1
53.00,153.58,1
49.00,146.71,1
44.00,138.24,1
72.00,128.96,1
62.00,119.69,1
71.00,110.89,1
114.00,103.17,1
112.00,97.29,1
198.00,94.03,1
136.00,93.78,1
228.00,96.28,1
199.00,101.53,1
208.00,109.06,1
113.00,117.19,1
115.00,124.02,1
275.00,130.22,1
283.00,138.48,1
294.00,149.56,1
243.00,162.25,1
152.00,174.22,1
287.00,184.46,1
210.00,193.87,1
199.00,202.11,1
103.00,207.57,1
146.00,209.37,1
327.00,209.78,1
128.00,210.82,1
130.00,210.51,1
150.00,207.78,1
90.00,203.14,1
156.00,196.91,1
127.00,190.02,1
78.00,182.55,1
68.00,173.73,1
187.00,164.57,1
54.00,156.27,1
72.00,147.82,1
220.00,139.96,1
174.00,135.03,1
180.00,133.00,1
246.00,133.54,1
237.00,137.04,1
175.00,142.58,1
75.00,147.54,1
129.00,150.20,1
250.00,152.06,1
490.00,157.69,1
255.00,169.06,1
190.00,181.98,1
108.00,191.92,1
248.00,198.52,1
123.00,202.98,1
273.00,206.00,1
136.00,208.13,1
260.00,209.53,1
68.00,209.64,1
99.00,206.87,1
46.00,200.44,1
43.00,190.86,1
79.00,179.04,1
36.00,166.09,1
127.00,153.07,1
162.00,141.85,1
52.00,132.79,1
44.00,124.08,1
95.00,115.29,1
70.00,107.31,1
173.00,101.07,1
192.00,98.00,1
270.00,99.29,1
162.00,104.39,1
197.00,111.39,1
90.00,118.38,1
105.00,123.76,1
181.00,127.73,1
220.00,132.20,1
298.00,138.83,1
292.00,148.44,1
167.00,159.51,1
290.00,170.21,1
206.00,180.60,1
226.00,190.19,1
110.00,197.54,1
89.00,201.04,1
68.00,200.00,1
98.00,195.23,1
83.00,188.04,1
76.00,179.16,1
93.00,169.17,1
44.00,158.51,1
49.00,147.09,1
159.00,136.04,1
50.00,126.59,1
56.00,117.83,1
38.00,108.92,1
150.00,100.88,1
255.00,96.35,1
175.00,96.62,1
306.00,101.23,1
242.00,109.92,1
178.00,120.86,1
319.00,132.78,1
411.00,147.59,1
277.00,165.67,1
214.00,183.67,1
107.00,197.97,1
306.00,208.36,1
63.00,215.82,1
234.00,219.84,1
140.00,221.16,1
142.00,220.29,1
127.00,216.86,1
66.00,210.91,1
300.00,204.04,1
205.00,199.28,1
118.00,195.93,1
183.00,192.06,1
77.00,187.40,1
105.00,181.29,1
156.00,174.29,1
86.00,167.37,1
222.00,161.11,1
147.00,156.64,1
69.00,152.89,1
188.00,148.89,1
163.00,145.95,1
267.00,145.34,1
196.00,147.46,1
83.00,150.32,1
222.00,152.35,1
178.00,154.68,1
221.00,157.96,1
216.00,162.14,1
188.00,166.91,1
223.00,171.77,1
339.00,177.82,1
263.00,186.14,1
163.00,194.83,1
149.00,201.09,1
56.00,203.48,1
157.00,202.05,1
127.00,198.39,1
156.00,193.75,1
112.00,188.37,1
52.00,181.65,1
109.00,173.22,1
142.00,164.48,1
232.00,157.57,1
186.00,153.65,1
44.00,150.94,1
103.00,147.02,1
66.00,141.77,1
127.00,136.07,1
143.00,131.06,1
190.00,127.91,1
182.00,127.14,1
301.00,129.40,1
230.00,135.22,1
286.00,143.87,1
67.00,152.86,1
254.00,160.21,1
174.00,166.69,1
215.00,172.85,1
176.00,178.27,1
240.00,183.16,1
316.00,188.87,1
242.00,196.21,1
224.00,203.77,1
131.00,209.56,1
163.00,212.42,1
232.00,213.26,1
185.00,213.55,1
94.00,212.47,1
96.00,208.52,1
42.00,201.34,1
88.00,191.42,1
133.00,180.44,1
47.00,169.45,1
137.00,158.51,1
88.00,148.35,1
106.00,139.18,1
136.00,131.21,1
147.00,125.17,1
214.00,121.77,1
254.00,121.99,1
178.00,125.58,1
225.00,131.09,1
185.00,137.65,1
285.00,145.37,1
144.00,153.86,1
107.00,160.85,1
284.00,166.15,1
126.00,171.31,1
102.00,174.84,1
294.00,176.91,1
360.00,181.34,1
189.00,188.69,1
309.00,196.69,1
148.00,204.17,1
36.00,208.41,1
162.00,207.92,1
109.00,204.55,1
126.00,199.43,1
88.00,192.65,1
174.00,185.07,1
42.00,177.15,1
172.00,168.84,1
57.00,160.60,1
41.00,151.74,1
119.00,142.14,1
123.00,133.47,1
46.00,125.86,1
115.00,118.65,1
141.00,112.69,1
90.00,108.47,1
177.00,105.78,1
190.00,105.50,1
231.00,108.29,1
243.00,114.29,1
196.00,122.62,1
220.00,131.96,1
189.00,141.55,1
272.00,151.35,1
259.00,162.00,1
300.00,173.77,1
179.00,185.56,1
329.00,196.53,1
187.00,206.84,1
132.00,214.72,1
226.00,219.21,1
46.00,220.57,1
124.00,217.91,1
35.00,211.42,1
146.00,202.30,1
42.00,191.70,1
58.00,179.70,1
59.00,166.45,1
58.00,152.82,1
121.00,139.84,1
116.00,128.79,1
141.00,120.23,1
258.00,115.20,1
205.00,114.68,1
216.00,117.76,1
358.00,124.48,1
367.00,136.16,1
170.00,151.01,1
276.00,165.41,1
157.00,178.15,1
206.00,188.53,1
350.00,197.77,1
343.00,208.65,1
289.00,220.95,1
223.00,232.44,1
221.00,241.39,1
169.00,247.09,1
239.00,249.86,1
243.00,251.05,1
132.00,250.75,1
54.00,246.89,1
185.00,239.30,1
94.00,229.92,1
60.00,218.74,1
40.00,205.08,1
126.00,190.11,1
85.00,175.57,1
43.00,161.50,1
43.00,147.25,1
51.00,133.05,1
38.00,119.37,1
102.00,106.92,1
180.00,97.40,1
144.00,91.97,1
197.00,90.32,1
182.00,92.02,1
129.00,95.98,1
257.00,101.58,1
177.00,109.24,1
273.00,118.74,1
156.00,129.35,1
295.00,140.39,1
219.00,152.12,1
259.00,164.21,1
198.00,175.69,1
226.00,185.89,1
219.00,194.68,1
293.00,202.84,1
181.00,210.48,1
155.00,216.02,1
63.00,217.70,1
42.00,214.44,1
66.00,206.60,1
76.00,195.91,1
104.00,183.98,1
87.00,171.89,1
58.00,159.80,1
53.00,147.43,1
60.00,135.00,1
57.00,122.98,1
96.00,112.02,1
66.00,102.59,1
156.00,95.20,1
221.00,91.37,1
236.00,92.33,1
234.00,97.70,1
320.00,106.97,1
219.00,119.52,1
132.00,132.44,1
125.00,142.91,1
233.00,151.23,1
198.00,159.07,1
210.00,166.70,1
37.00,172.41,1
324.00,176.07,1
206.00,180.39,1
212.00,185.56,1
44.00,188.92,1
137.00,188.86,1
214.00,186.94,1
160.00,185.30,1
84.00,183.03,1
64.00,178.46,1
113.00,171.77,1
45.00,163.78,1
60.00,154.43,1
70.00,144.18,1
76.00,133.89,1
148.00,124.70,1
46.00,117.06,1
50.00,109.78,1
101.00,102.65,1
286.00,98.32,1
118.00,98.33,1
167.00,100.77,1
154.00,104.31,1
200.00,109.15,1
254.00,115.90,1
110.00,124.00,1
270.00,132.22,1
208.00,141.18,1
220.00,150.83,1
257.00,160.65,1
167.00,170.25,1
150.00,178.03,1
62.00,182.40,1
140.00,183.09,1
158.00,181.69,1
139.00,179.52,1
45.00,175.91,1
48.00,169.66,1
45.00,160.83,1
40.00,150.26,1
37.00,138.62,1
92.00,126.91,1
110.00,116.55,1
143.00,108.58,1
182.00,103.71,1
82.00,101.43,1
40.00,99.54,1
127.00,97.20,1
175.00,96.09,1
204.00,97.72,1
153.00,101.81,1
207.00,107.46,1
127.00,113.92,1
224.00,120.73,1
188.00,128.21,1
166.00,135.98,1
139.00,142.84,1
299.00,149.48,1
178.00,157.13,1
210.00,164.90,1
212.00,172.06,1
314.00,179.64,1
59.00,186.88,1
193.00,191.39,1
39.00,192.48,1
104.00,190.04,1
99.00,184.78,1
66.00,177.73,1
94.00,169.19,1
55.00,159.68,1
82.00,149.55,1
47.00,139.11,1
75.00,128.66,1
36.00,118.38,1
69.00,108.44,1
116.00,99.70,1
42.00,92.59,1
120.00,86.77,1
116.00,82.78,1
265.00,82.14,1
130.00,85.32,1
146.00,90.44,1
256.00,96.95,1
219.00,105.91,1
152.00,116.21,1
180.00,126.01,1
146.00,134.73,1
145.00,142.00,1
132.00,147.53,1
127.00,151.29,1
291.00,154.74,1
317.00,160.71,1
279.00,169.85,1
58.00,178.90,1
177.00,184.60,1
37.00,186.56,1
188.00,185.53,1
128.00,183.09,1
86.00,179.58,1
106.00,174.31,1
180.00,168.48,1
47.00,162.72,1
153.00,156.48,1
52.00,149.91,1
80.00,142.76,1
100.00,135.18,1
127.00,128.33,1
63.00,122.32,1
123.00,116.82,1
66.00,111.88,1
190.00,108.10,1
328.00,108.08,1
179.00,112.96,1
212.00,120.33,1
135.00,128.08,1
131.00,134.80,1
152.00,139.99,1
236.00,144.85,1
243.00,150.92,1
286.00,158.86,1
200.00,168.02,1
223.00,176.94,1
134.00,184.31,1
148.00,189.08,1
140.00,191.18,1
116.00,190.96,1
56.00,188.03,1
167.00,182.85,1
127.00,177.15,1
89.00,171.18,1
65.00,164.05,1
38.00,155.35,1
127.00,145.78,1
67.00,136.66,1
36.00,127.66,1
78.00,118.39,1
46.00,109.39,1
109.00,101.24,1
65.00,94.42,1
157.00,89.39,1
224.00,87.59,1
165.00,89.66,1
130.00,93.92,1
140.00,98.73,1
244.00,104.54,1
171.00,112.10,1
346.00,121.88,1
267.00,134.66,1
220.00,148.99,1
170.00,162.22,1
469.00,175.39,1
41.00,189.09,1
168.00,199.20,1
168.00,204.78,1
148.00,207.66,1
89.00,207.57,1
40.00,203.62,1
91.00,196.06,1
46.00,186.03,1
298.00,176.23,1
52.00,168.71,1
38.00,161.05,1
52.00,151.36,1
82.00,140.85,1
45.00,130.35,1
52.00,119.91,1
49.00,109.66,1
190.00,101.06,1
45.00,95.10,1
200.00,91.38,1
108.00,90.10,1
177.00,91.06,1
42.00,92.94,1
199.00,95.10,1
130.00,98.31,1
142.00,102.46,1
235.00,107.61,1
324.00,115.70,1
233.00,127.20,1
280.00,140.56,1
78.00,153.26,1
214.00,163.21,1
82.00,170.25,1
188.00,174.66,1
201.00,177.68,1
96.00,179.76,1
106.00,179.52,1
41.00,176.31,1
81.00,170.27,1
45.00,162.12,1
69.00,152.57,1
56.00,142.25,1
87.00,131.93,1
53.00,122.06,1
65.00,112.67,1
133.00,104.42,1
154.00,98.70,1
115.00,95.67,1
51.00,93.80,1
134.00,92.17,1
124.00,91.55,1
163.00,92.56,1
246.00,96.00,1
165.00,102.21,1
130.00,109.40,1
88.00,115.49,1
272.00,121.08,1
100.00,127.39,1
221.00,133.70,1
168.00,139.94,1
206.00,146.38,1
120.00,152.22,1
241.00,157.30,1
175.00,162.38,1
146.00,166.96,1
219.00,170.60,1
173.00,173.98,1
159.00,176.77,1
76.00,177.75,1
116.00,176.13,1
43.00,171.99,1
179.00,166.31,1
46.00,160.19,1
138.00,153.64,1
58.00,146.73,1
59.00,139.21,1
52.00,130.77,1
73.00,121.97,1
169.00,114.28,1
215.00,109.85,1
242.00,109.84,1
74.00,112.66,1
240.00,116.30,1
196.00,121.45,1
221.00,128.39,1
226.00,136.56,1
199.00,145.49,1
194.00,154.23,1
216.00,162.41,1
232.00,170.36,1
142.00,177.56,1
207.00,183.13,1
150.00,187.15,1
194.00,189.82,1
128.00,191.07,1
98.00,190.23,1
76.00,186.61,1
87.00,180.47,1
121.00,172.90,1
51.00,164.60,1
49.00,155.11,1
40.00,144.33,1
76.00,133.07,1
40.00,122.01,1
66.00,111.39,1
88.00,101.78,1
81.00,93.79,1
81.00,87.34,1
95.00,82.35,1
202.00,79.73,1
186.00,80.80,1
196.00,85.32,1
133.00,91.78,1
284.00,99.82,1
363.00,111.43,1
305.00,127.41,1
374.00,146.52,1
87.00,165.60,1
188.00,180.70,1
188.00,191.58,1
286.00,200.53,1
230.00,208.90,1
165.00,215.87,1
150.00,219.91,1
213.00,221.32,1
152.00,221.08,1
66.00,218.41,1
146.00,212.73,1
146.00,205.49,1
144.00,198.02,1
158.00,190.69,1
109.00,183.52,1
39.00,175.44,1
60.00,165.56,1
43.00,154.22,1
49.00,142.11,1
124.00,130.40,1
61.00,120.15,1
45.00,110.79,1
125.00,102.30,1
55.00,95.36,1
345.00,91.71,1
256.00,94.20,1
73.00,100.68,1
423.00,109.10,1
278.00,121.78,1
57.00,135.99,1
204.00,147.22,1
201.00,156.38,1
188.00,164.73,1
80.00,171.07,1
330.00,175.83,1
164.00,181.12,1
208.00,186.31,1
185.00,190.42,1
220.00,193.85,1
127.00,196.25,1
93.00,196.27,1
124.00,193.42,1
110.00,188.56,1
114.00,182.44,1
70.00,175.12,1
46.00,166.24,1
80.00,155.95,1
117.00,145.65,1
92.00,136.36,1
52.00,127.70,1
93.00,119.28,1
189.00,112.48,1
185.00,109.00,1
150.00,108.64,1
160.00,110.09,1
411.00,114.88,1
251.00,124.93,1
234.00,137.93,1
202.00,150.86,1
328.00,163.68,1
233.00,177.01,1
321.00,190.49,1
212.00,203.42,1
224.00,214.53,1
126.00,222.38,1
149.00,226.15,1
171.00,226.41,1
164.00,224.55,1
38.00,220.12,1
267.00,213.66,1
114.00,207.36,1
102.00,200.65,1
93.00,192.31,1
51.00,182.40,1
48.00,170.87,1
45.00,158.06,1
82.00,144.90,1
74.00,132.46,1
72.00,121.12,1
84.00,111.00,1
74.00,102.24,1
102.00,94.95,1
184.00,90.09,1
134.00,88.42,1
207.00,89.67,1
136.00,93.31,1
194.00,98.55,1
199.00,105.28,1
200.00,113.45,1
254.00,122.98,1
250.00,134.08,1
86.00,145.02,1
309.00,154.58,1
208.00,164.26,1
258.00,174.32,1
214.00,183.96,1
157.00,192.17,1
98.00,197.23,1
65.00,198.02,1
42.00,194.34,1
53.00,186.82,1
113.00,177.02,1
45.00,166.41,1
61.00,155.02,1
52.00,143.00,1
40.00,130.83,1
41.00,118.69,1
59.00,107.02,1
56.00,96.38,1
75.00,87.15,1
181.00,80.47,1
328.00,79.02,1
168.00,83.57,1
86.00,90.49,1
178.00,97.05,1
244.00,104.48,1
129.00,113.23,1
234.00,122.24,1
173.00,131.40,1
188.00,140.37,1
172.00,148.49,1
157.00,155.45,1
196.00,161.24,1
204.00,166.53,1
127.00,171.08,1
146.00,173.88,1
88.00,174.47,1
50.00,172.24,1
224.00,168.23,1
36.00,164.04,1
91.00,158.64,1
40.00,151.41,1
37.00,142.61,1
38.00,132.48,1
47.00,121.71,1
48.00,110.99,1
97.00,101.15,1
152.00,93.60,1
62.00,88.57,1
83.00,84.79,1
226.00,82.88,1
39.00,83.41,1
101.00,84.41,1
154.00,85.64,1
185.00,88.66,1
237.00,94.32,1
251.00,103.08,1
210.00,114.17,1
236.00,126.30,1
335.00,139.75,1
390.00,156.03,1
142.00,173.63,1
232.00,188.76,1
55.00,199.44,1
179.00,205.30,1
114.00,207.31,1
370.00,208.40,1
187.00,210.93,1
170.00,213.43,1
103.00,213.50,1
140.00,210.74,1
103.00,205.69,1
35.00,198.18,1
43.00,187.68,1
96.00,175.29,1
68.00,162.59,1
108.00,150.38,1
69.00,139.03,1
55.00,128.30,1
164.00,118.74,1
166.00,112.12,1
152.00,108.73,1
159.00,107.76,1
240.00,109.35,1
201.00,113.91,1
200.00,120.59,1
198.00,128.32,1
237.00,136.86,1
250.00,146.44,1
282.00,157.32,1
155.00,168.41,1
233.00,178.08,1
71.00,185.28,1
204.00,189.38,1
160.00,191.52,1
187.00,192.70,1
168.00,193.01,1
98.00,192.00,1
141.00,189.08,1
61.00,184.27,1
103.00,177.52,1
89.00,169.46,1
69.00,160.62,1
48.00,150.83,1
97.00,140.59,1
79.00,130.80,1
138.00,122.29,1
183.00,116.22,1
98.00,112.73,1
146.00,110.68,1
207.00,110.40,1
201.00,112.85,1
230.00,117.94,1
170.00,124.82,1
238.00,132.60,1
221.00,141.29,1
200.00,150.50,1
209.00,159.38,1
254.00,168.05,1
111.00,175.94,1
427.00,183.59,1
146.00,192.51,1
276.00,201.16,1
83.00,207.52,1
117.00,210.10,1
192.00,209.30,1
137.00,207.05,1
175.00,203.80,1
40.00,198.93,1
140.00,191.93,1
37.00,183.19,1
126.00,173.32,1
80.00,163.15,1
73.00,152.99,1
49.00,142.50,1
113.00,132.15,1
63.00,122.71,1
202.00,115.14,1
171.00,110.85,1
229.00,110.33,1
131.00,112.62,1
139.00,115.83,1
252.00,119.90,1
211.00,126.12,1
183.00,133.78,1
246.00,141.97,1
208.00,150.81,1
222.00,159.85,1
234.00,168.76,1
253.00,177.76,1
189.00,186.42,1
248.00,194.09,1
176.00,200.63,1
264.00,206.10,1
102.00,210.09,1
140.00,211.16,1
137.00,209.24,1
53.00,204.71,1
94.00,197.23,1
45.00,187.33,1
69.00,175.67,1
47.00,162.84,1
41.00,149.37,1
192.00,136.83,1
161.00,127.63,1
129.00,121.75,1
192.00,118.36,1
247.00,118.19,1
408.00,123.25,1
188.00,133.48,1
205.00,145.04,1
211.00,155.73,1
276.00,166.19,1
212.00,176.71,1
243.00,186.66,1
162.00,195.14,1
200.00,201.47,1
124.00,205.31,1
182.00,206.59,1
151.00,206.03,1
150.00,204.01,1
107.00,200.33,1
191.00,195.49,1
102.00,190.24,1
100.00,184.05,1
132.00,176.82,1
67.00,169.05,1
48.00,160.11,1
88.00,150.09,1
131.00,140.44,1
96.00,132.15,1
132.00,125.24,1
186.00,120.37,1
220.00,118.66,1
178.00,120.10,1
240.00,123.95,1
216.00,130.01,1
156.00,137.18,1
253.00,144.55,1
229.00,152.75,1
162.00,161.17,1
257.00,168.94,1
244.00,176.86,1
290.00,185.59,1
169.00,194.30,1
159.00,200.99,1
185.00,204.99,1
198.00,207.25,1
98.00,207.71,1
152.00,205.70,1
129.00,201.77,1
40.00,195.81,1
79.00,187.20,1
64.00,176.63,1
36.00,164.71,1
143.00,152.49,1
91.00,141.58,1
125.00,132.33,1
180.00,125.24,1
164.00,121.07,1
184.00,119.64,1
216.00,120.77,1
177.00,124.17,1
141.00,128.56,1
230.00,133.33,1
184.00,139.03,1
286.00,146.07,1
189.00,154.41,1
258.00,163.25,1
281.00,172.73,1
301.00,183.50,1
262.00,195.06,1
245.00,206.24,1
60.00,214.63,1
166.00,218.23,1
256.00,219.11,1
180.00,219.62,1
174.00,219.28,1
60.00,216.63,1
57.00,210.33,1
42.00,200.38,1
122.00,188.35,1
87.00,176.06,1
51.00,163.76,1
52.00,150.99,1
127.00,138.62,1
36.00,127.47,1
127.00,117.47,1
113.00,109.32,1
85.00,103.12,1
306.00,99.88,1
182.00,101.36,1
245.00,106.70,1
287.00,115.19,1
189.00,126.21,1
208.00,137.61,1
292.00,149.13,1
313.00,162.12,1
231.00,176.11,1
338.00,190.10,1
128.00,203.00,1
187.00,212.53,1
157.00,218.20,1
140.00,220.59,1
171.00,220.15,1
111.00,217.40,1
87.00,212.08,1
54.00,203.83,1
152.00,193.67,1
114.00,183.45,1
56.00,173.24,1
90.00,162.36,1
41.00,151.02,1
84.00,139.54,1
59.00,128.40,1
44.00,117.70,1
101.00,107.74,1
87.00,99.35,1
127.00,93.02,1
314.00,90.52,1
125.00,92.87,1
255.00,98.34,1
271.00,106.77,1
168.00,117.63,1
195.00,128.61,1
301.00,139.80,1
199.00,151.94,1
249.00,163.97,1
168.00,174.84,1
87.00,182.86,1
134.00,186.85,1
117.00,187.59,1
127.00,186.01,1
244.00,183.75,1
518.00,185.34,1
187.00,192.53,1
135.00,200.12,1
78.00,203.68,1
51.00,202.47,1
170.00,197.69,1
95.00,191.52,1
77.00,184.10,1
40.00,174.68,1
91.00,163.79,1
243.00,153.94,1
38.00,146.46,1
102.00,139.41,1
140.00,132.61,1
142.00,127.40,1
321.00,125.40,1
264.00,128.37,1
147.00,134.67,1
68.00,140.18,1
197.00,143.70,1
71.00,146.03,1
37.00,146.07,1
369.00,145.52,1
217.00,148.46,1
199.00,154.14,1
230.00,160.34,1
70.00,165.78,1
224.00,169.32,1
196.00,172.31,1
157.00,175.28,1
171.00,177.35,1
145.00,178.39,1
115.00,178.05,1
296.00,177.44,1
89.00,177.71,1
210.00,177.69,1
102.00,176.84,1
696.00,179.54,1
86.00,188.69,1
182.00,198.08,1
57.00,202.86,1
241.00,204.24,1
40.00,203.32,1
93.00,199.33,1
261.00,193.74,1
197.00,189.81,1
212.00,187.71,1
54.00,185.49,1
195.00,181.92,1
212.00,178.61,1
182.00,176.82,1
376.00,177.47,1
386.00,182.97,1
208.00,192.28,1
286.00,201.98,1
154.00,210.39,1
225.00,216.61,1
125.00,220.18,1
146.00,220.74,1
213.00,219.06,1
250.00,217.33,1
38.00,215.05,1
61.00,209.41,1
160.00,200.82,1
307.00,193.34,1
73.00,188.28,1
51.00,182.40,1
54.00,173.80,1
42.00,163.21,1
72.00,151.47,1
124.00,140.11,1
211.00,131.23,1
199.00,126.33,1
151.00,124.72,1
225.00,125.36,1
156.00,127.97,1
213.00,131.94,1
256.00,137.54,1
173.00,144.69,1
367.00,153.39,1
284.00,164.78,1
360.00,178.71,1
265.00,193.88,1
137.00,207.49,1
148.00,216.65,1
218.00,221.85,1
181.00,224.79,1
150.00,225.62,1
271.00,225.01,1
139.00,223.98,1
54.00,220.77,1
75.00,213.67,1
48.00,203.26,1
54.00,190.48,1
87.00,176.48,1
255.00,164.01,1
61.00,154.56,1
100.00,146.22,1
144.00,138.39,1
108.00,131.96,1
54.00,126.14,1
85.00,120.04,1
208.00,115.01,1
165.00,112.92,1
285.00,114.43,1
184.00,119.42,1
316.00,127.31,1
254.00,137.91,1
206.00,149.91,1
226.00,161.45,1
250.00,172.40,1
177.00,182.48,1
288.00,191.48,1
109.00,199.11,1
113.00,203.44,1
111.00,203.67,1
157.00,201.13,1
36.00,196.36,1
55.00,188.59,1
132.00,178.75,1
49.00,168.41,1
65.00,157.41,1
76.00,145.96,1
48.00,134.61,1
96.00,123.75,1
64.00,113.92,1
200.00,106.20,1
60.00,101.16,1
100.00,97.45,1
119.00,94.55,1
143.00,93.21,1
138.00,93.58,1
216.00,96.02,1
200.00,101.05,1
192.00,108.24,1
160.00,116.28,1
145.00,123.99,1
166.00,130.84,1
208.00,137.38,1
225.00,144.49,1
59.00,151.05,1
239.00,155.85,1
80.00,159.45,1
156.00,161.49,1
90.00,161.68,1
116.00,160.22,1
112.00,157.41,1
39.00,153.19,1
47.00,146.90,1
88.00,139.06,1
38.00,130.65,1
54.00,121.75,1
120.00,113.17,1
86.00,106.05,1
79.00,100.20,1
65.00,95.00,1
50.00,90.04,1
193.00,86.26,1
88.00,84.87,1
120.00,85.07,1
306.00,87.64,1
203.00,94.41,1
156.00,103.63,1
224.00,113.34,1
216.00,123.75,1
52.00,133.42,1
243.00,141.01,1
93.00,147.33,1
265.00,153.00,1
200.00,159.05,1
193.00,165.49,1
66.00,170.31,1
197.00,172.65,1
260.00,174.68,1
223.00,178.20,1
129.00,181.88,1
77.00,183.23,1
105.00,181.42,1
37.00,176.74,1
50.00,169.21,1
44.00,159.34,1
64.00,148.26,1
127.00,137.41,1
41.00,127.58,1
148.00,118.85,1
111.00,111.99,1
124.00,107.17,1
164.00,104.28,1
214.00,104.13,1
282.00,107.84,1
169.00,114.96,1
323.00,124.35,1
204.00,135.80,1
207.00,147.80,1
173.00,158.56,1
171.00,167.49,1
175.00,174.42,1
194.00,179.83,1
135.00,183.76,1
253.00,186.60,1
199.00,189.52,1
175.00,192.31,1
111.00,193.52,1
130.00,192.39,1
69.00,188.80,1
66.00,182.61,1
157.00,174.81,1
113.00,167.18,1
118.00,159.99,1
76.00,152.77,1
40.00,144.76,1
41.00,135.53,1
38.00,125.37,1
54.00,114.89,1
151.00,105.58,1
158.00,99.28,1
83.00,95.78,1
72.00,93.23,1
101.00,90.92,1
40.00,88.76,1
195.00,87.29,1
270.00,89.09,1
186.00,95.22,1
238.00,103.99,1
284.00,115.07,1
242.00,128.34,1
228.00,142.44,1
211.00,155.96,1
197.00,168.08,1
163.00,178.07,1
170.00,185.49,1
97.00,189.95,1
118.00,191.03,1
207.00,190.00,1
125.00,188.36,1
82.00,185.33,1
112.00,180.23,1
58.00,173.41,1
36.00,164.68,1
92.00,154.44,1
127.00,144.40,1
46.00,135.25,1
79.00,126.28,1
40.00,117.31,1
135.00,109.04,1
150.00,102.96,1
47.00,98.93,1
219.00,96.42,1
193.00,96.91,1
196.00,100.69,1
166.00,106.43,1
218.00,113.44,1
243.00,121.99,1
384.00,133.49,1
180.00,147.62,1
265.00,161.81,1
229.00,175.00,1
169.00,186.60,1
164.00,195.29,1
313.00,202.14,1
127.00,208.24,1
55.00,211.12,1
117.00,209.26,1
163.00,204.66,1
102.00,198.89,1
119.00,191.94,1
129.00,184.18,1
48.00,175.72,1
54.00,165.79,1
82.00,154.75,1
102.00,143.89,1
96.00,134.04,1
94.00,125.33,1
73.00,117.51,1
180.00,111.16,1
205.00,107.97,1
172.00,108.28,1
184.00,110.97,1
285.00,116.21,1
185.00,124.11,1
102.00,132.25,1
139.00,138.43,1
257.00,143.81,1
136.00,149.67,1
351.00,156.44,1
186.00,164.91,1
217.00,173.68,1
138.00,180.86,1
124.00,185.41,1
107.00,186.80,1
99.00,185.23,1
66.00,180.98,1
54.00,174.13,1
118.00,165.59,1
58.00,156.51,1
57.00,146.86,1
42.00,136.45,1
149.00,126.43,1
108.00,118.33,1
136.00,112.41,1
37.00,107.63,1
161.00,103.51,1
59.00,100.41,1
102.00,97.89,1
119.00,95.89,1
153.00,95.29,1
161.00,96.53,1
194.00,99.79,1
102.00,104.34,1
194.00,109.23,1
107.00,114.27,1
307.00,120.23,1
244.00,128.81,1
307.00,140.15,1
130.00,152.28,1
209.00,162.87,1
195.00,171.68,1
200.00,179.31,1
55.00,184.56,1
207.00,186.70,1
138.00,187.16,1
156.00,186.59,1
42.00,184.07,1
59.00,178.54,1
132.00,170.87,1
170.00,163.47,1
58.00,156.82,1
130.00,150.02,1
96.00,143.32,1
143.00,137.34,1
61.00,131.91,1
104.00,126.47,1
182.00,121.88,1
132.00,119.33,1
108.00,118.04,1
109.00,116.93,1
82.00,115.59,1
351.00,115.93,1
75.00,119.46,1
217.00,124.13,1
70.00,128.36,1
147.00,131.50,1
155.00,133.83,1
169.00,136.34,1
202.00,139.50,1
212.00,143.79,1
312.00,150.04,1
191.00,158.30,1
330.00,167.86,1
272.00,178.84,1
109.00,189.39,1
154.00,196.46,1
50.00,199.21,1
131.00,197.90,1
87.00,193.68,1
122.00,187.57,1
54.00,179.89,1
187.00,171.56,1
239.00,165.08,1
78.00,160.85,1
56.00,156.04,1
120.00,149.76,1
88.00,143.21,1
102.00,136.79,1
161.00,131.13,1
90.00,126.75,1
188.00,123.61,1
148.00,122.20,1
93.00,121.87,1
132.00,121.45,1
89.00,120.80,1
213.00,120.64,1
121.00,121.79,1
292.00,124.80,1
292.00,131.28,1
273.00,141.33,1
253.00,153.30,1
124.00,164.80,1
211.00,173.98,1
144.00,180.90,1
102.00,185.14,1
134.00,186.19,1
149.00,185.14,1
40.00,182.10,1
90.00,176.37,1
42.00,168.36,1
39.00,158.47,1
106.00,147.60,1
68.00,137.09,1
70.00,127.14,1
90.00,117.84,1
173.00,110.39,1
37.00,104.99,1
177.00,100.92,1
127.00,98.78,1
167.00,98.85,1
236.00,101.40,1
264.00,107.49,1
349.00,117.77,1
198.00,131.28,1
176.00,144.81,1
166.00,156.23,1
252.00,166.02,1
301.00,176.01,1
275.00,187.14,1
222.00,198.28,1
171.00,207.56,1
124.00,213.44,1
233.00,216.23,1
161.00,217.41,1
170.00,217.13,1
133.00,214.95,1
108.00,210.70,1
66.00,203.95,1
136.00,195.16,1
120.00,185.81,1
152.00,176.92,1
222.00,169.66,1
66.00,164.01,1
87.00,157.95,1
157.00,151.40,1
109.00,145.63,1
177.00,140.99,1
139.00,137.78,1
112.00,135.48,1
175.00,133.69,1
249.00,133.80,1
238.00,136.99,1
173.00,142.35,1
418.00,150.02,1
299.00,161.72,1
384.00,176.91,1
163.00,192.79,1
157.00,205.62,1
183.00,214.03,1
233.00,219.58,1
122.00,222.89,1
89.00,222.69,1
114.00,218.59,1
98.00,211.70,1
47.00,202.37,1
43.00,190.54,1
47.00,176.70,1
58.00,161.92,1
87.00,147.39,1
43.00,133.76,1
94.00,121.17,1
101.00,110.34,1
74.00,101.52,1
130.00,94.59,1
162.00,90.32,1
108.00,88.71,1
290.00,90.08,1
364.00,96.92,1
180.00,108.82,1
47.00,120.64,1
218.00,129.69,1
237.00,138.24,1
406.00,149.21,1
264.00,163.47,1
260.00,178.81,1
268.00,193.24,1
282.00,206.72,1
73.00,217.61,1
175.00,223.65,1
188.00,225.92,1
171.00,226.16,1
74.00,223.84,1
135.00,218.42,1
210.00,211.66,1
114.00,205.04,1
193.00,198.46,1
127.00,192.07,1
50.00,184.98,1
166.00,176.70,1
43.00,168.08,1
68.00,158.64,1
59.00,148.15,1
124.00,137.84,1
117.00,128.96,1
179.00,122.37,1
237.00,119.23,1
255.00,120.42,1
175.00,124.98,1
168.00,130.70,1
224.00,136.82,1
96.00,142.82,1
301.00,148.58,1
231.00,155.73,1
366.00,165.33,1
255.00,177.24,1
219.00,189.51,1
206.00,200.00,1
255.00,208.68,1
123.00,215.30,1
95.00,218.13,1
224.00,217.52,1
166.00,215.69,1
72.00,212.37,1
46.00,205.78,1
118.00,196.23,1
68.00,185.38,1
61.00,173.59,1
77.00,161.10,1
67.00,148.61,1
171.00,137.35,1
222.00,129.49,1
106.00,125.24,1
179.00,122.92,1
52.00,121.36,1
191.00,120.08,1
190.00,120.30,1
597.00,126.16,1
131.00,138.95,1
309.00,153.80,1
252.00,168.27,1
232.00,182.34,1
124.00,193.94,1
203.00,202.01,1
180.00,207.34,1
315.00,211.79,1
52.00,215.29,1
256.00,216.40,1
47.00,215.15,1
378.00,213.09,1
225.00,212.97,1
72.00,213.27,1
154.00,210.75,1
85.00,205.73,1
49.00,198.20,1
44.00,187.77,1
46.00,175.12,1
43.00,161.19,1
71.00,146.94,1
86.00,133.49,1
159.00,122.18,1
49.00,113.29,1
141.00,106.07,1
140.00,100.98,1
41.00,97.58,1
221.00,95.45,1
290.00,97.10,1
229.00,103.65,1
135.00,112.49,1
217.00,121.39,1
295.00,131.31,1
288.00,143.57,1
260.00,157.47,1
185.00,171.05,1
262.00,183.09,1
160.00,193.37,1
102.00,200.43,1
160.00,203.50,1
104.00,203.46,1
136.00,200.89,1
127.00,196.44,1
70.00,190.39,1
132.00,182.79,1
40.00,174.08,1
108.00,164.35,1
224.00,155.50,1
115.00,149.16,1
85.00,143.87,1
228.00,139.33,1
52.00,136.18,1
55.00,132.48,1
83.00,127.30,1
129.00,122.04,1
168.00,118.23,1
162.00,116.62,1
93.00,116.37,1
212.00,116.96,1
152.00,119.07,1
80.00,121.65,1
84.00,122.87,1
83.00,122.46,1
329.00,122.90,1
198.00,126.98,1
245.00,133.94,1
270.00,142.77,1
163.00,152.62,1
146.00,161.19,1
127.00,167.18,1
49.00,169.88,1
82.00,168.79,1
113.00,165.09,1
66.00,159.92,1
212.00,154.48,1
219.00,151.10,1
142.00,150.07,1
80.00,149.15,1
65.00,146.56,1
103.00,142.30,1
108.00,137.51,1
134.00,133.06,1
93.00,129.16,1
195.00,126.18,1
51.00,124.16,1
103.00,121.82,1
106.00,119.00,1
247.00,117.56,1
226.00,119.42,1
277.00,125.03,1
199.00,133.26,1
250.00,142.75,1
276.00,153.29,1
184.00,164.38,1
347.00,175.56,1
140.00,186.65,1
208.00,195.81,1
212.00,202.64,1
158.00,207.67,1
92.00,209.73,1
45.00,207.50,1
38.00,200.74,1
151.00,191.25,1
53.00,180.92,1
48.00,169.62,1
66.00,157.20,1
38.00,144.34,1
68.00,131.51,1
94.00,119.63,1
183.00,110.29,1
90.00,104.10,1
80.00,99.60,1
152.00,96.22,1
124.00,94.68,1
199.00,95.33,1
175.00,98.44,1
135.00,103.21,1
242.00,109.10,1
231.00,117.00,1
170.00,126.35,1
199.00,135.64,1
243.00,144.91,1
281.00,155.13,1
186.00,165.99,1
179.00,175.63,1
362.00,184.64,1
65.00,193.37,1
116.00,198.62,1
65.00,199.05,1
113.00,195.74,1
150.00,190.35,1
50.00,183.77,1
94.00,175.55,1
66.00,165.97,1
146.00,156.27,1
99.00,147.52,1
94.00,139.60,1
36.00,131.63,1
90.00,123.34,1
150.00,115.98,1
122.00,110.78,1
72.00,107.03,1
101.00,103.68,1
192.00,101.55,1
182.00,102.08,1
153.00,104.95,1
153.00,108.99,1
188.00,113.81,1
87.00,118.80,1
155.00,122.93,1
195.00,126.91,1
164.00,131.60,1
178.00,136.61,1
104.00,141.06,1
200.00,144.61,1
119.00,147.69,1
222.00,150.59,1
104.00,153.34,1
55.00,154.37,1
135.00,152.95,1
139.00,150.64,1
100.00,148.14,1
75.00,144.78,1
98.00,140.33,1
432.00,138.11,1
75.00,140.44,1
77.00,143.01,1
135.00,143.25,1
92.00,142.34,1
67.00,140.12,1
171.00,137.10,1
73.00,134.25,1
140.00,131.42,1
220.00,129.66,1
123.00,129.86,1
134.00,130.68,1
190.00,131.78,1
472.00,136.41,1
63.00,145.35,1
162.00,153.62,1
169.00,159.43,1
222.00,164.54,1
83.00,168.73,1
226.00,171.42,1
204.00,173.91,1
160.00,176.62,1
139.00,178.31,1
119.00,178.27,1
72.00,176.02,1
133.00,171.77,1
106.00,166.49,1
52.00,160.26,1
145.00,153.16,1
54.00,145.98,1
219.00,139.60,1
71.00,134.79,1
70.00,130.23,1
127.00,125.25,1
119.00,120.99,1
89.00,117.50,1
94.00,114.20,1
60.00,110.70,1
151.00,107.40,1
148.00,105.55,1
230.00,106.28,1
81.00,109.02,1
264.00,112.93,1
190.00,118.80,1
218.00,126.44,1
170.00,134.63,1
246.00,143.05,1
58.00,150.67,1
192.00,156.06,1
145.00,159.85,1
139.00,162.56,1
180.00,164.24,1
166.00,165.59,1
111.00,166.28,1
112.00,165.44,1
165.00,163.48,1
74.00,160.84,1
38.00,156.38,1
54.00,149.50,1
118.00,141.48,1
63.00,133.63,1
147.00,126.47,1
138.00,120.94,1
41.00,116.58,1
159.00,112.54,1
79.00,109.37,1
136.00,107.09,1
274.00,107.00,1
189.00,110.61,1
182.00,116.57,1
131.00,122.93,1
148.00,128.58,1
216.00,133.94,1
291.00,140.80,1
259.00,150.09,1
273.00,161.11,1
174.00,172.25,1
273.00,182.41,1
182.00,191.57,1
193.00,199.05,1
50.00,203.21,1
38.00,202.35,1
64.00,196.62,1
183.00,188.58,1
165.00,181.15,1
46.00,174.14,1
148.00,166.38,1
48.00,158.21,1
48.00,149.17,1
57.00,138.98,1
168.00,129.37,1
61.00,121.54,1
56.00,114.43,1
70.00,107.25,1
64.00,100.39,1
156.00,94.79,1
111.00,91.43,1
124.00,90.00,1
200.00,90.58,1
82.00,93.05,1
255.00,96.97,1
101.00,102.51,1
246.00,109.14,1
117.00,116.42,1
256.00,124.19,1
106.00,132.08,1
195.00,139.19,1
70.00,144.66,1
118.00,147.76,1
316.00,150.37,1
155.00,154.85,1
178.00,159.77,1
55.00,162.91,1
56.00,162.74,1
40.00,158.95,1
94.00,152.71,1
133.00,145.91,1
51.00,139.31,1
41.00,131.98,1
45.00,123.49,1
70.00,114.64,1
73.00,106.25,1
184.00,99.68,1
140.00,96.19,1
64.00,94.72,1
111.00,93.61,1
184.00,93.57,1
288.00,96.75,1
148.00,103.53,1
114.00,111.05,1
171.00,117.62,1
264.00,124.67,1
196.00,133.34,1
281.00,143.24,1
103.00,153.14,1
141.00,160.80,1
137.00,165.61,1
127.00,168.26,1
153.00,169.22,1
148.00,169.17,1
84.00,167.92,1
87.00,164.76,1
183.00,160.56,1
64.00,156.32,1
103.00,151.34,1
65.00,145.32,1
48.00,138.22,1
52.00,130.03,1
48.00,121.15,1
132.00,112.70,1
270.00,107.36,1
91.00,106.10,1
106.00,106.27,1
187.00,106.93,1
167.00,109.24,1
208.00,113.44,1
140.00,118.86,1
157.00,124.39,1
194.00,129.84,1
230.00,136.10,1
310.00,144.33,1
62.00,153.38,1
182.00,160.26,1
158.00,165.01,1
167.00,168.66,1
178.00,171.39,1
250.00,174.19,1
162.00,177.50,1
110.00,179.80,1
56.00,179.23,1
53.00,175.12,1
104.00,168.36,1
143.00,160.98,1
199.00,154.91,1
56.00,150.12,1
44.00,144.45,1
38.00,136.86,1
58.00,128.06,1
163.00,119.75,1
60.00,113.15,1
49.00,107.14,1
181.00,101.83,1
76.00,98.45,1
126.00,96.43,1
142.00,95.62,1
224.00,97.08,1
144.00,101.06,1
186.00,106.54,1
227.00,113.34,1
51.00,120.48,1
217.00,126.43,1
161.00,132.12,1
129.00,137.60,1
301.00,143.17,1
119.00,149.71,1
82.00,154.86,1
180.00,157.44,1
82.00,158.54,1
100.00,157.79,1
115.00,155.26,1
51.00,151.36,1
67.00,145.75,1
46.00,138.55,1
42.00,130.15,1
110.00,121.45,1
86.00,113.69,1
143.00,107.55,1
95.00,103.18,1
110.00,100.11,1
176.00,98.52,1
230.00,99.76,1
255.00,104.80,1
170.00,112.70,1
172.00,121.33,1
233.00,130.07,1
183.00,139.18,1
255.00,148.58,1
190.00,158.10,1
248.00,167.40,1
258.00,176.75,1
216.00,186.12,1
159.00,194.10,1
136.00,199.30,1
94.00,200.98,1
108.00,199.18,1
50.00,194.23,1
43.00,186.12,1
66.00,175.50,1
119.00,164.07,1
67.00,153.02,1
37.00,141.97,1
55.00,130.49,1
57.00,119.16,1
187.00,109.54,1
76.00,102.80,1
63.00,97.60,1
127.00,93.14,1
62.00,89.80,1
197.00,87.99,1
121.00,88.46,1
186.00,91.08,1
202.00,95.82,1
231.00,103.06,1
202.00,112.28,1
249.00,122.87,1
216.00,134.43,1
232.00,146.32,1
326.00,158.83,1
284.00,172.71,1
353.00,187.91,1
264.00,203.60,1
187.00,217.62,1
153.00,227.59,1
208.00,233.42,1
159.00,236.16,1
145.00,235.95,1
125.00,232.74,1
51.00,226.27,1
71.00,216.27,1
101.00,203.95,1
42.00,190.45,1
219.00,177.20,1
47.00,165.63,1
72.00,154.55,1
78.00,143.25,1
117.00,132.77,1
154.00,124.27,1
221.00,119.03,1
186.00,117.62,1
164.00,118.90,1
184.00,121.70,1
189.00,125.76,1
300.00,131.82,1
216.00,140.36,1
140.00,149.42,1
195.00,157.07,1
228.00,163.96,1
226.00,171.02,1
184.00,177.86,1
226.00,183.96,1
424.00,191.27,1
270.00,201.64,1
179.00,212.33,1
179.00,220.09,1
126.00,224.21,1
152.00,224.68,1
54.00,221.61,1
90.00,214.82,1
91.00,205.21,1
194.00,194.98,1
57.00,185.19,1
159.00,175.50,1
37.00,165.74,1
47.00,155.16,1
84.00,143.77,1
99.00,132.96,1
117.00,123.64,1
136.00,116.36,1
172.00,111.60,1
209.00,109.97,1
192.00,111.54,1
263.00,116.10,1
354.00,124.59,1
194.00,136.63,1
97.00,148.19,1
344.00,158.12,1
274.00,169.23,1
312.00,182.01,1
253.00,195.22,1
232.00,207.49,1
207.00,217.59,1
430.00,226.95,1
89.00,236.11,1
298.00,242.76,1
77.00,246.07,1
103.00,245.03,1
194.00,240.09,1
42.00,232.77,1
44.00,222.16,1
88.00,208.54,1
116.00,194.05,1
58.00,179.74,1
78.00,165.49,1
176.00,152.42,1
40.00,141.32,1
55.00,130.79,1
323.00,122.38,1
162.00,119.15,1
110.00,119.01,1
224.00,119.97,1
191.00,122.97,1
271.00,128.41,1
193.00,135.98,1
250.00,144.75,1
280.00,154.67,1
100.00,164.61,1
171.00,172.11,1
204.00,177.46,1
210.00,182.18,1
98.00,185.71,1
290.00,188.00,1
213.00,190.90,1
77.00,193.35,1
87.00,192.53,1
108.00,188.48,1
56.00,182.12,1
64.00,173.57,1
169.00,164.24,1
79.00,155.70,1
88.00,147.49,1
36.00,138.76,1
69.00,129.43,1
104.00,120.36,1
41.00,112.11,1
119.00,104.66,1
79.00,98.49,1
155.00,94.14,1
141.00,92.13,1
81.00,91.83,1
116.00,92.04,1
41.00,92.09,1
236.00,92.66,1
250.00,96.39,1
240.00,104.12,1
158.00,113.90,1
158.00,123.46,1
207.00,132.27,1
142.00,140.50,1
156.00,147.45,1
171.00,153.02,1
82.00,156.99,1
53.00,158.00,1
108.00,155.97,1
127.00,152.55,1
72.00,148.49,1
75.00,143.33,1
115.00,137.46,1
91.00,131.72,1
108.00,126.36,1
109.00,121.54,1
73.00,117.16,1
91.00,112.81,1
86.00,108.59,1
130.00,105.04,1
178.00,103.21,1
168.00,103.86,1
205.00,106.85,1
210.00,112.10,1
165.00,118.90,1
217.00,126.39,1
268.00,135.05,1
303.00,145.92,1
271.00,158.89,1
237.00,172.44,1
298.00,185.67,1
195.00,198.10,1
249.00,208.74,1
190.00,217.22,1
75.00,222.26,1
133.00,222.65,1
100.00,219.21,1
272.00,214.34,1
41.00,209.21,1
117.00,202.27,1
40.00,192.94,1
110.00,182.01,1
107.00,170.70,1
77.00,159.79,1
50.00,148.78,1
41.00,137.27,1
132.00,126.17,1
135.00,117.19,1
75.00,110.44,1
155.00,105.28,1
114.00,102.01,1
155.00,100.60,1
206.00,101.42,1
248.00,105.42,1
76.00,111.41,1
256.00,117.70,1
264.00,125.61,1
276.00,136.21,1
167.00,147.88,1
236.00,158.84,1
196.00,168.83,1
247.00,178.06,1
93.00,185.66,1
151.00,190.14,1
57.00,190.99,1
70.00,188.10,1
95.00,182.07,1
148.00,174.84,1
92.00,167.56,1
36.00,159.50,1
102.00,150.31,1
44.00,140.71,1
127.00,131.37,1
56.00,122.85,1
132.00,115.38,1
90.00,109.29,1
41.00,103.96,1
39.00,98.22,1
151.00,92.84,1
104.00,89.39,1
89.00,87.51,1
257.00,87.65,1
92.00,90.62,1
126.00,94.57,1
181.00,98.77,1
220.00,104.54,1
188.00,112.16,1
202.00,120.84,1
217.00,130.13,1
105.00,139.00,1
240.00,146.66,1
182.00,153.97,1
213.00,161.19,1
239.00,168.36,1
206.00,175.65,1
51.00,181.18,1
126.00,182.94,1
93.00,181.50,1
78.00,177.66,1
67.00,171.46,1
42.00,163.15,1
162.00,154.02,1
49.00,145.42,1
53.00,136.65,1
54.00,127.19,1
83.00,117.80,1
69.00,109.17,1
108.00,101.71,1
95.00,95.82,1
127.00,91.70,1
102.00,89.26,1
220.00,89.01,1
103.00,91.19,1
169.00,94.75,1
150.00,99.20,1
179.00,104.65,1
161.00,110.86,1
229.00,117.94,1
127.00,125.58,1
226.00,133.10,1
143.00,140.39,1
296.00,147.96,1
118.00,155.87,1
135.00,162.24,1
80.00,165.58,1
166.00,166.46,1
117.00,165.99,1
146.00,164.67,1
158.00,162.90,1
137.00,161.12,1
159.00,159.32,1
108.00,157.34,1
217.00,155.53,1
44.00,153.85,1
86.00,150.74,1
82.00,145.82,1
142.00,140.50,1
73.00,135.45,1
113.00,130.44,1
152.00,126.05,1
84.00,122.68,1
175.00,120.16,1
168.00,119.25,1
365.00,121.82,1
187.00,128.76,1
205.00,137.61,1
218.00,146.54,1
168.00,155.16,1
208.00,162.88,1
184.00,169.71,1
263.00,176.22,1
139.00,182.36,1
144.00,186.66,1
134.00,188.37,1
230.00,188.75,1
164.00,189.05,1
151.00,188.89,1
64.00,186.90,1
71.00,182.08,1
160.00,175.38,1
72.00,168.32,1
96.00,160.71,1
71.00,152.38,1
43.00,143.34,1
37.00,133.34,1
68.00,122.86,1
56.00,112.73,1
85.00,103.49,1
111.00,95.84,1
126.00,90.43,1
150.00,87.57,1
288.00,88.38,1
232.00,93.96,1
151.00,102.54,1
202.00,111.78,1
193.00,121.28,1
225.00,131.20,1
293.00,142.17,1
324.00,155.17,1
309.00,170.22,1
107.00,184.68,1
339.00,196.70,1
242.00,207.81,1
249.00,218.23,1
121.00,226.07,1
171.00,229.98,1
50.00,229.62,1
203.00,225.69,1
200.00,220.64,1
59.00,214.99,1
40.00,206.52,1
36.00,194.74,1
151.00,181.53,1
64.00,168.82,1
69.00,156.45,1
58.00,144.00,1
46.00,131.69,1
118.00,120.20,1
87.00,110.54,1
55.00,102.42,1
140.00,95.65,1
124.00,91.13,1
142.00,89.09,1
46.00,88.35,1
251.00,88.88,1
220.00,92.72,1
220.00,100.11,1
221.00,109.68,1
206.00,120.52,1
204.00,131.70,1
293.00,143.34,1
188.00,155.51,1
243.00,167.17,1
77.00,176.72,1
244.00,183.41,1
54.00,187.53,1
92.00,188.12,1
130.00,185.42,1
39.00,180.45,1
140.00,173.60,1
50.00,165.71,1
44.00,156.56,1
42.00,145.91,1
55.00,134.49,1
92.00,123.39,1
38.00,113.16,1
64.00,103.57,1
80.00,94.89,1
40.00,87.34,1
52.00,80.46,1
156.00,75.05,1
192.00,73.08,1
155.00,74.91,1
205.00,79.66,1
172.00,86.76,1
210.00,95.53,1
87.00,104.66,1
179.00,112.79,1
235.00,120.85,1
282.00,130.71,1
167.00,141.87,1
248.00,152.82,1
150.00,162.81,1
278.00,171.85,1
217.00,180.67,1
278.00,189.58,1
143.00,197.65,1
101.00,202.74,1
128.00,203.78,1
52.00,201.17,1
68.00,195.05,1
46.00,185.88,1
95.00,174.84,1
76.00,163.24,1
86.00,151.77,1
66.00,140.61,1
40.00,129.62,1
117.00,119.15,1
196.00,111.16,1
168.00,106.98,1
110.00,105.59,1
198.00,105.88,1
197.00,108.43,1
260.00,113.86,1
227.00,122.00,1
208.00,131.78,1
304.00,142.69,1
56.00,153.47,1
191.00,161.61,1
262.00,168.24,1
329.00,176.35,1
187.00,185.82,1
290.00,195.09,1
167.00,203.40,1
134.00,209.27,1
126.00,211.42,1
178.00,210.72,1
160.00,208.54,1
134.00,205.20,1
171.00,200.82,1
123.00,195.82,1
60.00,189.46,1
72.00,180.97,1
52.00,170.66,1
90.00,159.35,1
124.00,148.45,1
40.00,138.37,1
62.00,128.34,1
126.00,118.87,1
186.00,111.88,1
257.00,109.14,1
225.00,111.11,1
204.00,116.46,1
196.00,123.56,1
252.00,131.88,1
278.00,141.92,1
298.00,154.02,1
162.00,166.67,1
162.00,177.25,1
257.00,185.58,1
178.00,192.83,1
168.00,198.42,1
159.00,201.66,1
179.00,202.93,1
77.00,202.10,1
90.00,198.27,1
113.00,191.88,1
116.00,184.24,1
147.00,176.42,1
144.00,169.23,1
75.00,162.37,1
59.00,154.69,1
60.00,145.81,1
47.00,136.09,1
99.00,126.30,1
185.00,118.23,1
139.00,113.25,1
116.00,110.51,1
124.00,108.87,1
111.00,107.96,1
171.00,107.99,1
127.00,109.23,1
208.00,111.79,1
304.00,117.06,1
103.00,124.80,1
148.00,131.99,1
199.00,138.04,1
284.00,144.93,1
341.00,154.51,1
220.00,166.47,1
192.00,178.10,1
219.00,187.85,1
153.00,195.53,1
91.00,199.99,1
246.00,201.58,1
204.00,202.64,1
279.00,204.45,1
103.00,206.22,1
149.00,205.96,1
184.00,203.79,1
50.00,200.09,1
153.00,194.27,1
101.00,187.21,1
81.00,179.26,1
112.00,170.37,1
82.00,161.19,1
174.00,152.61,1
46.00,144.98,1
239.00,138.56,1
48.00,133.82,1
202.00,130.24,1
242.00,128.95,1
306.00,131.89,1
495.00,140.94,1
266.00,156.14,1
250.00,173.06,1
163.00,187.87,1
240.00,199.67,1
258.00,209.47,1
244.00,218.27,1
182.00,225.40,1
236.00,230.33,1
160.00,233.19,1
194.00,233.86,1
54.00,231.60,1
36.00,225.01,1
150.00,214.81,1
56.00,203.17,1
128.00,190.82,1
106.00,178.59,1
143.00,167.38,1
220.00,158.41,1
68.00,151.73,1
203.00,146.26,1
106.00,142.06,1
71.00,138.20,1
329.00,135.46,1
244.00,137.02,1
49.00,140.83,1
200.00,143.55,1
248.00,146.64,1
66.00,150.43,1
491.00,155.53,1
190.00,164.47,1
290.00,175.48,1
168.00,185.79,1
468.00,196.54,1
237.00,209.28,1
240.00,221.80,1
326.00,232.61,1
256.00,242.61,1
92.00,249.86,1
201.00,252.40,1
130.00,251.13,1
291.00,248.04,1
102.00,244.22,1
103.00,238.16,1
66.00,228.73,1
96.00,216.76,1
166.00,203.99,1
86.00,191.80,1
70.00,179.57,1
195.00,167.81,1
90.00,157.87,1
109.00,149.10,1
42.00,140.40,1
109.00,131.63,1
118.00,123.74,1
170.00,117.93,1
156.00,114.67,1
158.00,113.68,1
302.00,115.62,1
55.00,120.02,1
162.00,124.14,1
134.00,127.40,1
336.00,131.99,1
218.00,139.58,1
314.00,149.74,1
320.00,162.14,1
475.00,177.97,1
103.00,195.44,1
227.00,209.77,1
195.00,219.95,1
191.00,227.09,1
131.00,230.86,1
76.00,230.47,1
158.00,226.15,1
87.00,219.37,1
68.00,210.23,1
56.00,198.63,1
56.00,185.21,1
43.00,170.60,1
54.00,155.44,1
71.00,140.63,1
69.00,126.91,1
147.00,115.24,1
59.00,106.04,1
212.00,99.48,1
146.00,96.39,1
138.00,96.18,1
42.00,96.67,1
118.00,96.65,1
175.00,97.19,1
260.00,100.41,1
102.00,106.11,1
219.00,112.57,1
238.00,120.21,1
244.00,129.81,1
379.00,141.93,1
299.00,157.26,1
38.00,172.12,1
183.00,182.33,1
177.00,188.81,1
262.00,194.10,1
110.00,198.40,1
165.00,200.43,1
97.00,199.77,1
290.00,198.03,1
65.00,196.28,1
190.00,193.52,1
151.00,189.95,1
132.00,186.10,1
83.00,181.14,1
64.00,174.36,1
47.00,165.56,1
91.00,155.44,1
246.00,146.54,1
427.00,143.30,1
282.00,147.60,1
278.00,156.55,1
163.00,166.45,1
214.00,175.24,1
107.00,181.90,1
202.00,186.14,1
284.00,189.78,1
330.00,195.35,1
62.00,201.44,1
242.00,205.15,1
273.00,207.96,1
203.00,211.40,1
255.00,214.75,1
157.00,217.38,1
149.00,218.13,1
118.00,216.24,1
78.00,211.50,1
49.00,203.58,1
137.00,193.44,1
89.00,182.73,1
68.00,171.72,1
39.00,159.86,1
127.00,147.83,1
72.00,136.82,1
121.00,127.17,1
97.00,119.03,1
194.00,113.11,1
55.00,109.34,1
164.00,106.73,1
165.00,105.75,1
256.00,107.72,1
339.00,114.05,1
232.00,124.70,1
229.00,137.17,1
154.00,149.10,1
221.00,159.49,1
279.00,169.36,1
141.00,178.86,1
456.00,188.60,1
197.00,200.09,1
310.00,211.79,1
36.00,220.72,1
325.00,226.03,1
150.00,229.51,1
219.00,231.51,1
186.00,231.77,1
162.00,230.53,1
159.00,227.47,1
69.00,222.16,1
40.00,213.60,1
120.00,202.26,1
84.00,189.96,1
40.00,177.03,1
41.00,163.04,1
61.00,148.54,1
153.00,135.22,1
189.00,125.22,1
128.00,118.96,1
287.00,116.35,1
179.00,117.82,1
168.00,121.80,1
164.00,126.42,1
127.00,130.89,1
317.00,136.03,1
272.00,144.01,1
255.00,154.54,1
85.00,164.60,1
217.00,172.10,1
218.00,178.21,1
445.00,186.02,1
322.00,197.59,1
263.00,211.09,1
290.00,223.79,1
152.00,234.26,1
246.00,241.39,1
48.00,244.53,1
84.00,242.39,1
169.00,235.90,1
114.00,227.59,1
48.00,217.43,1
110.00,205.15,1
83.00,191.92,1
128.00,178.87,1
123.00,166.86,1
91.00,156.05,1
263.00,147.36,1
220.00,142.82,1
254.00,142.60,1
142.00,144.89,1
142.00,147.47,1
261.00,150.23,1
222.00,154.67,1
258.00,160.88,1
325.00,169.04,1
276.00,179.45,1
343.00,191.51,1
442.00,205.95,1
291.00,222.64,1
255.00,238.56,1
265.00,251.57,1
290.00,262.03,1
232.00,270.20,1
218.00,275.49,1
167.00,277.31,1
148.00,275.26,1
101.00,269.26,1
222.00,260.55,1
131.00,250.86,1
42.00,239.57,1
108.00,225.71,1
37.00,210.11,1
61.00,193.31,1
117.00,176.44,1
235.00,162.17,1
71.00,151.40,1
167.00,142.70,1
227.00,136.62,1
253.00,134.72,1
266.00,137.08,1
207.00,142.54,1
214.00,149.35,1
283.00,157.17,1
312.00,166.95,1
318.00,179.01,1
222.00,191.94,1
282.00,204.06,1
225.00,214.89,1
272.00,224.30,1
76.00,231.02,1
171.00,233.40,1
157.00,232.24,1
198.00,229.32,1
181.00,225.60,1
54.00,220.39,1
115.00,212.43,1
102.00,202.55,1
127.00,192.05,1
47.00,181.05,1
109.00,169.42,1
64.00,157.72,1
91.00,146.31,1
67.00,135.38,1
123.00,125.47,1
50.00,116.80,1
57.00,108.65,1
170.00,101.63,1
149.00,97.45,1
165.00,96.28,1
286.00,98.51,1
158.00,104.31,1
253.00,112.34,1
307.00,122.75,1
329.00,136.51,1
147.00,151.64,1
257.00,165.39,1
198.00,177.48,1
320.00,188.83,1
347.00,200.99,1
308.00,214.55,1
100.00,226.55,1
247.00,234.42,1
156.00,238.81,1
194.00,240.48,1
215.00,240.06,1
159.00,238.28,1
105.00,234.31,1
60.00,227.09,1
123.00,217.00,1
35.00,204.98,1
38.00,190.98,1
119.00,175.95,1
56.00,161.47,1
61.00,147.54,1
87.00,134.26,1
214.00,123.45,1
153.00,116.65,1
142.00,113.11,1
108.00,111.19,1
252.00,111.10,1
216.00,114.23,1
205.00,120.16,1
215.00,127.64,1
286.00,136.72,1
399.00,148.90,1
204.00,163.84,1
298.00,178.89,1
310.00,193.58,1
434.00,209.51,1
171.00,225.87,1
185.00,238.78,1
170.00,246.59,1
147.00,249.89,1
77.00,248.60,1
139.00,242.94,1
76.00,234.18,1
94.00,222.98,1
168.00,210.68,1
51.00,198.33,1
49.00,185.01,1
51.00,170.40,1
43.00,155.24,1
66.00,140.26,1
137.00,126.82,1
73.00,115.84,1
86.00,106.71,1
50.00,98.69,1
209.00,92.61,1
270.00,91.04,1
267.00,95.22,1
228.00,103.86,1
328.00,115.72,1
198.00,129.82,1
257.00,144.35,1
185.00,158.04,1
323.00,171.07,1
248.00,184.23,1
408.00,198.30,1
236.00,213.18,1
214.00,226.49,1
204.00,236.29,1
296.00,243.52,1
219.00,249.36,1
178.00,253.09,1
190.00,253.86,1
138.00,251.79,1
153.00,247.04,1
84.00,239.62,1
81.00,229.39,1
39.00,216.37,1
54.00,201.12,1
40.00,184.36,1
58.00,167.12,1
53.00,150.23,1
36.00,134.09,1
183.00,119.94,1
112.00,109.47,1
192.00,102.83,1
193.00,100.07,1
252.00,101.53,1
230.00,106.92,1
282.00,115.69,1
292.00,127.52,1
207.00,141.15,1
282.00,155.03,1
282.00,169.15,1
402.00,184.60,1
252.00,201.28,1
421.00,218.26,1
161.00,234.32,1
359.00,247.89,1
214.00,259.04,1
113.00,266.39,1
59.00,267.22,1
152.00,262.15,1
262.00,254.83,1
149.00,247.66,1
91.00,239.40,1
126.00,228.98,1
139.00,217.46,1
135.00,205.98,1
83.00,194.51,1
110.00,182.75,1
47.00,170.64,1
164.00,158.83,1
85.00,148.40,1
157.00,139.63,1
141.00,132.81,1
39.00,127.19,1
176.00,121.97,1
238.00,119.17,1
225.00,120.33,1
254.00,125.03,1
319.00,133.14,1
147.00,143.48,1
335.00,154.43,1
329.00,167.10,1
372.00,182.57,1
205.00,198.84,1
278.00,213.41,1
280.00,226.02,1
352.00,237.98,1
262.00,249.51,1
159.00,258.56,1
207.00,263.37,1
101.00,263.84,1
145.00,260.01,1
82.00,252.38,1
70.00,241.37,1
134.00,227.92,1
71.00,213.52,1
58.00,198.28,1
42.00,181.99,1
160.00,166.08,1
156.00,152.79,1
211.00,143.30,1
215.00,137.92,1
199.00,136.26,1
291.00,138.04,1
168.00,142.65,1
282.00,148.97,1
201.00,156.59,1
325.00,165.54,1
161.00,175.25,1
321.00,184.84,1
253.00,194.74,1
387.00,205.88,1
165.00,217.40,1
216.00,226.67,1
137.00,232.30,1
218.00,234.74,1
169.00,234.95,1
97.00,232.75,1
138.00,227.54,1
73.00,219.74,1
82.00,209.58,1
92.00,197.65,1
40.00,184.59,1
119.00,170.94,1
79.00,157.87,1
98.00,145.81,1
51.00,134.52,1
134.00,124.26,1
157.00,116.27,1
187.00,111.62,1
195.00,110.43,1
222.00,112.46,1
231.00,117.48,1
281.00,125.41,1
204.00,135.57,1
259.00,146.63,1
300.00,158.63,1
242.00,171.59,1
258.00,184.39,1
241.00,196.28,1
268.00,207.17,1
114.00,215.96,1
188.00,221.14,1
127.00,222.87,1
224.00,222.34,1
58.00,219.79,1
107.00,214.29,1
220.00,207.09,1
37.00,199.60,1
55.00,190.16,1
57.00,178.34,1
56.00,165.29,1
97.00,152.11,1
60.00,139.61,1
106.00,128.16,1
77.00,118.11,1
74.00,109.33,1
77.00,101.54,1
122.00,95.15,1
139.00,90.96,1
113.00,89.03,1
274.00,89.92,1
236.00,95.03,1
318.00,104.63,1
102.00,116.49,1
299.00,128.43,1
280.00,141.34,1
127.00,154.63,1
208.00,165.75,1
186.00,174.75,1
165.00,181.96,1
119.00,186.67,1
150.00,188.66,1
143.00,188.58,1
153.00,187.17,1
111.00,184.53,1
178.00,181.00,1
103.00,177.03,1
155.00,172.61,1
45.00,167.33,1
119.00,160.77,1
92.00,153.57,1
60.00,146.02,1
112.00,138.13,1
52.00,130.34,1
48.00,122.29,1
112.00,114.28,1
114.00,107.62,1
150.00,103.04,1
207.00,101.28,1
292.00,103.70,1
253.00,110.77,1
202.00,120.74,1
124.00,130.77,1
252.00,139.87,1
254.00,149.47,1
284.00,160.44,1
226.00,172.16,1
149.00,182.69,1
158.00,190.29,1
249.00,195.68,1
124.00,199.74,1
154.00,201.62,1
154.00,201.20,1
137.00,199.16,1
150.00,195.81,1
59.00,190.86,1
91.00,183.75,1
54.00,174.72,1
96.00,164.52,1
72.00,153.97,1
44.00,143.21,1
46.00,131.98,1
62.00,120.74,1
98.00,110.41,1
123.00,102.06,1
261.00,97.33,1
187.00,97.49,1
224.00,101.50,1
217.00,108.25,1
259.00,117.45,1
272.00,128.92,1
181.00,141.53,1
266.00,153.91,1
174.00,165.55,1
359.00,176.97,1
180.00,188.68,1
259.00,199.42,1
126.00,207.81,1
183.00,213.05,1
124.00,215.07,1
137.00,214.18,1
125.00,210.74,1
170.00,205.73,1
79.00,199.60,1
74.00,191.68,1
74.00,181.76,1
39.00,170.37,1
117.00,158.31,1
94.00,146.95,1
46.00,136.36,1
51.00,125.77,1
79.00,115.45,1
100.00,106.34,1
96.00,99.00,1
145.00,93.77,1
203.00,91.55,1
209.00,93.15,1
265.00,98.59,1
93.00,106.34,1
232.00,114.35,1
222.00,123.09,1
386.00,134.41,1
261.00,148.91,1
254.00,164.60,1
290.00,179.83,1
274.00,194.60,1
189.00,207.88,1
208.00,218.19,1
170.00,225.20,1
211.00,229.36,1
207.00,231.55,1
155.00,231.99,1
39.00,229.24,1
126.00,222.54,1
178.00,213.98,1
79.00,205.04,1
105.00,195.13,1
78.00,184.20,1
142.00,173.13,1
55.00,162.45,1
98.00,151.85,1
117.00,141.81,1
100.00,133.06,1
104.00,125.49,1
99.00,118.95,1
184.00,114.07,1
148.00,111.68,1
211.00,111.89,1
209.00,114.80,1
248.00,120.47,1
197.00,128.25,1
234.00,137.16,1
284.00,147.23,1
166.00,158.04,1
272.00,168.37,1
169.00,177.93,1
220.00,186.17,1
156.00,192.61,1
260.00,197.67,1
127.00,201.62,1
340.00,205.02,1
104.00,208.35,1
158.00,209.81,1
76.00,208.10,1
101.00,203.29,1
188.00,196.77,1
49.00,189.66,1
206.00,182.06,1
51.00,174.48,1
62.00,166.03,1
83.00,156.24,1
84.00,146.22,1
60.00,136.34,1
222.00,127.84,1
175.00,122.75,1
160.00,120.90,1
166.00,120.95,1
148.00,122.29,1
234.00,125.01,1
243.00,130.07,1
178.00,137.04,1
242.00,144.75,1
204.00,152.97,1
339.00,162.33,1
237.00,173.30,1
322.00,185.31,1
232.00,197.52,1
328.00,209.48,1
172.00,220.41,1
174.00,228.42,1
194.00,232.85,1
214.00,234.94,1
38.00,234.23,1
134.00,229.42,1
148.00,221.91,1
67.00,212.97,1
79.00,202.07,1
68.00,189.55,1
120.00,176.53,1
83.00,164.03,1
47.00,151.86,1
54.00,139.48,1
96.00,127.55,1
76.00,116.92,1
90.00,107.78,1
111.00,100.29,1
322.00,96.51,1
225.00,98.63,1
169.00,104.78,1
235.00,112.58,1
256.00,122.23,1
238.00,133.68,1
228.00,145.89,1
209.00,157.81,1
284.00,169.34,1
263.00,181.09,1
296.00,193.16,1
151.00,204.27,1
241.00,212.90,1
138.00,218.79,1
155.00,221.59,1
87.00,220.84,1
247.00,217.74,1
67.00,213.55,1
54.00,206.86,1
141.00,197.53,1
116.00,187.63,1
89.00,177.69,1
50.00,167.11,1
68.00,155.69,1
77.00,144.00,1
87.00,132.92,1
82.00,122.86,1
110.00,114.13,1
198.00,107.88,1
161.00,105.06,1
229.00,105.63,1
128.00,108.75,1
234.00,113.46,1
227.00,120.07,1
161.00,128.13,1
223.00,136.39,1
289.00,145.59,1
207.00,156.11,1
177.00,166.23,1
211.00,174.81,1
278.00,182.80,1
301.00,191.65,1
164.00,200.68,1
289.00,208.50,1
164.00,215.03,1
183.00,219.50,1
179.00,221.50,1
138.00,221.33,1
61.00,218.12,1
128.00,211.61,1
129.00,203.38,1
55.00,194.03,1
94.00,183.26,1
68.00,171.61,1
63.00,159.48,1
152.00,147.86,1
131.00,138.26,1
105.00,130.68,1
64.00,123.94,1
154.00,117.93,1
110.00,113.44,1
269.00,111.61,1
170.00,113.32,1
239.00,117.89,1
251.00,124.87,1
254.00,134.25,1
137.00,144.35,1
205.00,153.31,1
302.00,162.05,1
201.00,171.68,1
259.00,181.28,1
198.00,190.16,1
285.00,198.39,1
150.00,205.68,1
223.00,211.09,1
89.00,213.89,1
156.00,213.57,1
175.00,210.98,1
79.00,206.88,1
156.00,200.97,1
40.00,193.38,1
170.00,184.58,1
191.00,176.51,1
136.00,170.24,1
116.00,164.62,1
70.00,158.52,1
94.00,151.54,1
71.00,143.94,1
117.00,136.33,1
104.00,129.42,1
221.00,124.40,1
183.00,122.50,1
197.00,123.46,1
216.00,126.65,1
235.00,132.08,1
266.00,139.72,1
204.00,148.97,1
260.00,158.82,1
245.00,169.08,1
230.00,179.40,1
251.00,189.23,1
309.00,199.07,1
183.00,208.66,1
265.00,216.82,1
215.00,223.52,1
143.00,228.14,1
206.00,229.93,1
143.00,229.45,1
121.00,226.55,1
91.00,220.78,1
80.00,212.27,1
94.00,201.66,1
51.00,189.58,1
43.00,176.07,1
43.00,161.50,1
147.00,147.36,1
116.00,135.50,1
150.00,126.37,1
131.00,119.77,1
83.00,114.89,1
183.00,111.36,1
290.00,111.10,1
244.00,115.56,1
264.00,123.74,1
360.00,135.22,1
192.00,149.19,1
277.00,163.31,1
124.00,175.83,1
299.00,186.34,1
243.00,196.15,1
256.00,205.72,1
211.00,214.18,1
186.00,220.67,1
114.00,224.05,1
202.00,224.31,1
105.00,222.23,1
168.00,218.09,1
184.00,212.88,1
104.00,207.17,1
165.00,200.59,1
113.00,193.47,1
149.00,186.13,1
60.00,178.29,1
65.00,169.19,1
109.00,159.13,1
74.00,149.17,1
59.00,139.27,1
95.00,129.52,1
128.00,120.94,1
161.00,114.66,1
171.00,111.22,1
266.00,111.30,1
231.00,115.39,1
244.00,122.73,1
156.00,131.50,1
262.00,140.56,1
234.00,150.34,1
250.00,160.94,1
257.00,171.87,1
234.00,182.73,1
226.00,192.80,1
241.00,201.75,1
136.00,208.84,1
301.00,214.06,1
124.00,218.07,1
130.00,219.51,1
127.00,217.57,1
151.00,213.31,1
102.00,207.41,1
86.00,199.71,1
51.00,189.91,1
76.00,178.36,1
44.00,165.75,1
62.00,152.57,1
40.00,139.20,1
61.00,126.13,1
167.00,114.74,1
168.00,106.94,1
156.00,102.92,1
198.00,102.08,1
170.00,104.02,1
184.00,108.07,1
269.00,114.22,1
154.00,122.37,1
287.00,131.68,1
184.00,141.97,1
200.00,152.15,1
255.00,161.81,1
360.00,172.64,1
214.00,184.99,1
324.00,197.45,1
188.00,209.08,1
234.00,218.72,1
157.00,225.54,1
131.00,228.88,1
129.00,228.41,1
127.00,224.78,1
93.00,218.55,1
136.00,210.29,1
126.00,201.11,1
54.00,191.13,1
90.00,179.91,1
42.00,167.72,1
47.00,154.74,1
61.00,141.41,1
71.00,128.58,1
67.00,116.82,1
88.00,106.44,1
161.00,98.37,1
72.00,93.00,1
201.00,90.01,1
246.00,90.72,1
263.00,96.16,1
288.00,105.87,1
232.00,118.60,1
252.00,132.67,1
220.00,146.88,1
371.00,161.59,1
251.00,177.45,1
402.00,194.20,1
224.00,211.07,1
286.00,226.30,1
147.00,238.19,1
261.00,246.31,1
190.00,251.43,1
390.00,255.53,1
172.00,259.64,1
91.00,260.96,1
176.00,257.75,1
51.00,250.89,1
162.00,240.94,1
56.00,228.99,1
133.00,215.70,1
108.00,201.98,1
65.00,188.30,1
88.00,174.38,1
71.00,160.60,1
64.00,147.27,1
157.00,135.21,1
150.00,125.94,1
152.00,119.76,1
252.00,116.93,1
218.00,118.14,1
246.00,122.89,1
246.00,130.33,1
208.00,139.48,1
327.00,149.98,1
235.00,162.06,1
271.00,174.70,1
259.00,187.09,1
313.00,199.42,1
196.00,211.16,1
265.00,221.12,1
193.00,228.96,1
320.00,235.37,1
183.00,240.86,1
162.00,244.08,1
174.00,244.10,1
113.00,241.21,1
159.00,235.64,1
60.00,227.65,1
125.00,217.40,1
150.00,206.20,1
112.00,195.31,1
51.00,184.09,1
82.00,171.91,1
78.00,159.40,1
86.00,147.31,1
86.00,136.02,1
78.00,125.72,1
202.00,117.40,1
138.00,112.33,1
215.00,110.48,1
183.00,111.63,1
204.00,115.31,1
228.00,121.10,1
255.00,129.04,1
256.00,139.04,1
212.00,150.20,1
260.00,161.48,1
272.00,173.02,1
383.00,185.87,1
121.00,199.06,1
254.00,209.77,1
105.00,217.05,1
152.00,220.48,1
164.00,220.56,1
146.00,218.51,1
173.00,214.92,1
92.00,209.89,1
37.00,202.39,1
103.00,192.20,1
155.00,181.36,1
58.00,171.02,1
47.00,160.15,1
98.00,148.64,1
138.00,138.14,1
121.00,129.68,1
174.00,123.53,1
112.00,119.60,1
199.00,117.61,1
268.00,118.63,1
239.00,123.59,1
284.00,131.83,1
262.00,142.62,1
229.00,154.74,1
352.00,167.73,1
200.00,181.42,1
281.00,194.39,1
181.00,205.61,1
262.00,214.80,1
220.00,222.33,1
239.00,228.47,1
198.00,232.97,1
235.00,235.88,1
175.00,237.24,1
92.00,235.98,1
124.00,231.18,1
47.00,223.04,1
62.00,211.71,1
106.00,198.33,1
92.00,184.59,1
80.00,171.09,1
127.00,158.31,1
83.00,146.81,1
180.00,137.12,1
182.00,130.40,1
214.00,127.23,1
200.00,127.37,1
231.00,130.29,1
135.00,134.79,1
356.00,140.90,1
220.00,149.74,1
345.00,161.05,1
219.00,173.68,1
278.00,186.32,1
244.00,198.22,1
207.00,208.75,1
48.00,215.65,1
210.00,217.96,1
70.00,216.95,1
42.00,212.20,1
134.00,203.86,1
42.00,193.66,1
128.00,182.35,1
52.00,170.61,1
102.00,158.79,1
102.00,147.51,1
61.00,137.09,1
133.00,127.59,1
154.00,120.12,1
223.00,115.96,1
187.00,115.49,1
240.00,118.21,1
395.00,125.21,1
231.00,136.87,1
242.00,150.30,1
222.00,163.28,1
330.00,176.15,1
254.00,189.51,1
386.00,203.51,1
232.00,217.82,1
249.00,230.57,1
289.00,241.06,1
278.00,250.20,1
294.00,258.28,1
252.00,265.13,1
188.00,269.72,1
237.00,271.39,1
81.00,269.78,1
91.00,263.59,1
92.00,253.03,1
83.00,239.59,1
66.00,224.00,1
70.00,207.09,1
92.00,189.83,1
126.00,173.56,1
68.00,158.86,1
55.00,145.05,1
327.00,133.95,1
235.00,128.91,1
232.00,129.39,1
257.00,133.43,1
350.00,141.19,1
305.00,152.90,1
258.00,166.88,1
242.00,180.77,1
320.00,194.12,1
232.00,207.08,1
311.00,219.13,1
86.00,228.81,1
350.00,235.44,1
176.00,240.65,1
248.00,244.50,1
131.00,245.93,1
51.00,243.52,1
198.00,237.13,1
124.00,229.11,1
90.00,219.86,1
58.00,208.46,1
86.00,195.30,1
90.00,181.46,1
80.00,167.78,1
210.00,155.64,1
71.00,145.99,1
252.00,138.84,1
200.00,135.26,1
196.00,135.09,1
261.00,137.59,1
249.00,142.94,1
383.00,151.69,1
268.00,163.97,1
132.00,176.55,1
255.00,186.78,1
325.00,196.38,1
131.00,205.74,1
278.00,213.19,1
179.00,218.96,1
275.00,223.63,1
164.00,227.15,1
178.00,228.76,1
109.00,227.60,1
67.00,222.99,1
117.00,215.05,1
280.00,206.69,1
204.00,200.80,1
74.00,195.98,1
55.00,189.15,1
114.00,180.13,1
144.00,170.84,1
69.00,162.02,1
148.00,153.51,1
53.00,145.42,1
169.00,137.96,1
203.00,132.64,1
216.00,130.73,1
219.00,132.02,1
291.00,136.42,1
153.00,143.12,1
223.00,150.25,1
291.00,158.10,1
274.00,167.80,1
293.00,179.01,1
291.00,191.17,1
111.00,202.25,1
177.00,209.64,1
195.00,213.76,1
182.00,215.99,1
249.00,217.21,1
85.00,217.27,1
104.00,214.43,1
95.00,208.29,1
151.00,200.41,1
160.00,192.38,1
148.00,185.04,1
136.00,178.22,1
58.00,171.10,1
188.00,163.66,1
89.00,156.91,1
176.00,151.07,1
583.00,150.14,1
246.00,157.64,1
255.00,169.07,1
332.00,181.18,1
388.00,195.23,1
311.00,211.24,1
366.00,227.86,1
267.00,243.80,1
244.00,257.31,1
307.00,267.82,1
373.00,277.13,1
300.00,286.25,1
241.00,293.75,1
210.00,297.92,1
68.00,297.15,1
51.00,289.98,1
80.00,276.93,1
236.00,261.45,1
266.00,247.81,1
119.00,236.58,1
211.00,226.13,1
260.00,217.34,1
187.00,211.07,1
43.00,204.92,1
198.00,197.33,1
105.00,189.53,1
237.00,182.67,1
280.00,178.51,1
340.00,178.82,1
497.00,185.20,1
424.00,198.45,1
349.00,216.00,1
252.00,233.53,1
369.00,249.24,1
200.00,262.78,1
342.00,273.55,1
253.00,282.08,1
249.00,288.31,1
258.00,291.85,1
211.00,292.92,1
237.00,291.64,1
276.00,288.98,1
161.00,285.23,1
90.00,278.65,1
234.00,269.16,1
44.00,258.03,1
152.00,244.96,1
102.00,230.66,1
50.00,215.55,1
79.00,199.21,1
42.00,182.27,1
157.00,166.00,1
71.00,151.69,1
251.00,140.36,1
242.00,133.88,1
173.00,132.13,1
294.00,133.76,1
236.00,138.86,1
383.00,147.76,1
320.00,160.61,1
426.00,177.11,1
162.00,194.86,1
329.00,210.83,1
298.00,225.25,1
286.00,238.77,1
195.00,249.95,1
210.00,257.49,1
362.00,262.76,1
52.00,266.22,1
168.00,265.30,1
75.00,259.62,1
152.00,250.60,1
51.00,239.02,1
222.00,226.22,1
70.00,213.69,1
46.00,200.49,1
147.00,186.34,1
139.00,173.37,1
126.00,162.34,1
172.00,153.26,1
77.00,145.82,1
529.00,142.45,1
187.00,146.22,1
312.00,154.35,1
283.00,164.50,1
302.00,176.57,1
322.00,189.93,1
301.00,204.14,1
288.00,218.23,1
357.00,231.95,1
261.00,245.14,1
303.00,256.84,1
139.00,265.54,1
199.00,269.80,1
175.00,269.94,1
194.00,267.29,1
173.00,262.52,1
305.00,257.19,1
129.00,252.17,1
46.00,245.07,1
115.00,234.25,1
89.00,221.33,1
48.00,206.97,1
89.00,191.42,1
96.00,175.94,1
68.00,161.25,1
90.00,147.41,1
170.00,135.48,1
207.00,127.19,1
224.00,123.40,1
520.00,126.22,1
260.00,136.86,1
319.00,151.61,1
329.00,168.00,1
291.00,185.36,1
253.00,202.05,1
310.00,217.21,1
333.00,231.52,1
222.00,244.64,1
86.00,253.66,1
282.00,257.68,1
248.00,259.64,1
258.00,261.10,1
220.00,261.72,1
176.00,260.74,1
191.00,257.65,1
123.00,252.37,1
134.00,244.70,1
39.00,234.30,1
165.00,221.72,1
131.00,208.93,1
59.00,196.30,1
105.00,183.09,1
72.00,169.82,1
122.00,157.18,1
176.00,146.45,1
237.00,139.34,1
256.00,136.86,1
222.00,138.54,1
366.00,144.07,1
252.00,153.52,1
287.00,165.23,1
279.00,177.78,1
344.00,191.27,1
333.00,205.99,1
367.00,221.76,1
323.00,237.88,1
349.00,253.54,1
225.00,267.36,1
200.00,277.25,1
94.00,281.46,1
39.00,278.80,1
65.00,269.49,1
56.00,255.21,1
78.00,237.97,1
62.00,219.26,1
54.00,199.84,1
52.00,180.28,1
93.00,161.51,1
48.00,144.26,1
108.00,128.82,1
144.00,116.23,1
150.00,107.35,1
272.00,102.99,1
309.00,104.66,1
218.00,111.69,1
192.00,121.10,1
97.00,130.04,1
205.00,137.42,1
236.00,144.62,1
346.00,153.75,1
316.00,165.87,1
468.00,181.60,1
214.00,199.63,1
393.00,217.39,1
167.00,233.35,1
171.00,245.19,1
173.00,251.72,1
137.00,253.71,1
185.00,252.05,1
78.00,247.29,1
52.00,238.68,1
66.00,226.32,1
46.00,211.35,1
54.00,194.67,1
51.00,177.24,1
87.00,160.14,1
120.00,144.70,1
195.00,132.51,1
219.00,124.92,1
218.00,122.12,1
274.00,123.67,1
237.00,129.10,1
274.00,137.49,1
234.00,147.76,1
325.00,159.52,1
218.00,172.34,1
313.00,185.28,1
293.00,198.42,1
343.00,212.13,1
238.00,225.61,1
189.00,236.72,1
100.00,243.22,1
196.00,244.91,1
125.00,243.16,1
63.00,237.98,1
177.00,229.72,1
140.00,220.43,1
173.00,211.28,1
43.00,201.71,1
69.00,190.48,1
56.00,177.62,1
36.00,163.73,1
181.00,150.31,1
126.00,139.48,1
163.00,131.58,1
214.00,126.78,1
248.00,125.93,1
241.00,129.00,1
218.00,134.98,1
284.00,143.01,1
266.00,153.12,1
270.00,164.77,1
263.00,177.03,1
333.00,189.85,1
245.00,203.06,1
282.00,215.52,1
220.00,226.38,1
153.00,234.37,1
80.00,237.67,1
187.00,236.43,1
218.00,233.19,1
89.00,228.90,1
135.00,222.46,1
48.00,213.54,1
77.00,202.22,1
69.00,189.16,1
98.00,175.51,1
52.00,161.95,1
102.00,148.78,1
222.00,137.81,1
215.00,131.23,1
259.00,129.50,1
238.00,131.96,1
280.00,137.90,1
349.00,147.42,1
222.00,159.72,1
234.00,172.29,1
264.00,184.05,1
299.00,195.69,1
266.00,207.40,1
292.00,218.75,1
251.00,229.24,1
212.00,237.96,1
145.00,243.45,1
153.00,244.96,1
99.00,242.54,1
105.00,236.41,1
151.00,227.72,1
49.00,217.35,1
140.00,205.45,1
69.00,192.89,1
44.00,179.62,1
68.00,165.43,1
38.00,150.97,1
64.00,136.70,1
206.00,124.41,1
171.00,116.32,1
193.00,112.46,1
188.00,112.00,1
232.00,114.60,1
348.00,121.08,1
318.00,132.36,1
274.00,146.99,1
344.00,163.27,1
400.00,181.59,1
295.00,201.46,1
274.00,220.35,1
319.00,237.03,1
181.00,250.90,1
217.00,260.55,1
61.00,264.82,1
213.00,263.88,1
286.00,260.82,1
95.00,257.14,1
157.00,251.06,1
56.00,241.96,1
55.00,229.73,1
98.00,215.01,1
50.00,199.20,1
165.00,183.59,1
115.00,169.75,1
207.00,158.61,1
76.00,149.92,1
214.00,143.10,1
218.00,139.18,1
256.00,139.18,1
308.00,143.19,1
321.00,151.41,1
238.00,162.55,1
282.00,174.57,1
328.00,187.30,1
264.00,200.77,1
283.00,213.80,1
87.00,224.20,1
310.00,231.01,1
136.00,235.50,1
163.00,237.26,1
351.00,237.47,1
253.00,239.02,1
208.00,241.10,1
69.00,240.79,1
202.00,237.13,1
40.00,230.76,1
69.00,221.23,1
112.00,208.98,1
68.00,195.70,1
128.00,182.21,1
144.00,169.79,1
133.00,159.28,1
117.00,150.38,1
202.00,143.36,1
214.00,139.38,1
297.00,139.48,1
335.00,144.44,1
286.00,153.83,1
333.00,166.17,1
281.00,180.24,1
252.00,194.44,1
247.00,207.34,1
321.00,219.12,1
271.00,230.41,1
413.00,241.94,1
349.00,254.65,1
286.00,267.43,1
213.00,277.68,1
206.00,283.88,1
160.00,285.68,1
54.00,282.42,1
152.00,274.00,1
120.00,262.52,1
99.00,249.20,1
148.00,234.70,1
35.00,219.45,1
78.00,203.04,1
144.00,186.62,1
43.00,171.34,1
200.00,157.62,1
76.00,146.27,1
106.00,136.59,1
126.00,128.14,1
229.00,122.33,1
124.00,119.73,1
265.00,119.98,1
316.00,124.22,1
281.00,133.06,1
267.00,144.89,1
377.00,158.92,1
282.00,175.07,1
206.00,191.07,1
320.00,205.30,1
383.00,219.46,1
267.00,234.18,1
217.00,246.99,1
152.00,255.63,1
265.00,260.23,1
60.00,261.23,1
58.00,257.05,1
40.00,247.15,1
106.00,233.44,1
94.00,218.16,1
40.00,202.08,1
120.00,185.63,1
79.00,169.95,1
40.00,155.04,1
104.00,140.76,1
55.00,127.76,1
83.00,116.11,1
78.00,105.89,1
239.00,98.57,1
122.00,95.37,1
233.00,95.68,1
214.00,99.40,1
258.00,106.50,1
277.00,116.74,1
256.00,129.47,1
320.00,144.00,1
268.00,159.89,1
334.00,176.53,1
182.00,192.57,1
324.00,206.84,1
231.00,219.61,1
368.00,231.60,1
173.00,242.47,1
301.00,251.11,1
206.00,257.48,1
100.00,260.52,1
185.00,259.10,1
116.00,254.26,1
147.00,246.85,1
118.00,237.44,1
158.00,226.89,1
47.00,215.33,1
44.00,201.87,1
87.00,186.78,1
160.00,172.25,1
97.00,159.69,1
50.00,148.19,1
202.00,137.85,1
206.00,130.90,1
215.00,128.12,1
146.00,128.22,1
257.00,130.39,1
202.00,134.83,1
215.00,140.99,1
179.00,147.75,1
256.00,154.86,1
306.00,163.38,1
266.00,173.90,1
160.00,184.40,1
215.00,192.90,1
330.00,200.60,1
169.00,208.44,1
150.00,214.27,1
167.00,216.84,1
65.00,216.16,1
186.00,212.50,1
114.00,207.20,1
178.00,201.23,1
68.00,194.48,1
125.00,186.54,1
70.00,177.56,1
86.00,167.78,1
40.00,157.14,1
58.00,145.73,1
87.00,134.25,1
138.00,124.15,1
56.00,115.83,1
121.00,108.75,1
40.00,102.56,1
148.00,97.35,1
118.00,93.92,1
169.00,92.78,1
123.00,93.63,1
206.00,96.29,1
72.00,100.16,1
274.00,104.96,1
215.00,112.03,1
223.00,121.37,1
197.00,131.57,1
177.00,141.53,1
261.00,151.12,1
326.00,161.89,1
121.00,173.29,1
165.00,182.29,1
59.00,187.30,1
154.00,188.50,1
177.00,187.68,1
150.00,186.30,1
130.00,184.10,1
101.00,180.56,1
59.00,175.16,1
95.00,167.85,1
59.00,159.26,1
52.00,149.66,1
64.00,139.31,1
64.00,128.83,1
179.00,119.68,1
48.00,112.66,1
82.00,106.55,1
205.00,101.83,1
151.00,100.17,1
125.00,100.81,1
145.00,102.49,1
99.00,104.62,1
196.00,107.25,1
232.00,111.65,1
307.00,119.35,1
215.00,130.03,1
200.00,141.61,1
180.00,152.30,1
255.00,162.12,1
183.00,171.44,1
224.00,179.84,1
216.00,187.28,1
195.00,193.77,1
238.00,199.28,1
138.00,203.56,1
200.00,205.97,1
74.00,206.07,1
84.00,202.88,1
99.00,196.54,1
40.00,187.86,1
187.00,178.07,1
49.00,168.56,1
52.00,158.55,1
94.00,147.71,1
70.00,137.15,1
48.00,126.91,1
85.00,117.00,1
177.00,108.87,1
255.00,104.80,1
292.00,106.35,1
197.00,112.66,1
272.00,121.65,1
212.00,132.35,1
263.00,144.07,1
175.00,155.75,1
349.00,167.43,1
188.00,179.55,1
211.00,190.56,1
134.00,198.77,1
238.00,204.38,1
177.00,208.38,1
104.00,210.28,1
118.00,208.91,1
180.00,205.27,1
152.00,200.91,1
138.00,196.10,1
168.00,190.88,1
185.00,186.06,1
125.00,181.72,1
58.00,176.49,1
41.00,168.98,1
67.00,159.39,1
58.00,148.75,1
126.00,138.30,1
71.00,128.93,1
77.00,120.41,1
180.00,113.30,1
197.00,109.38,1
249.00,109.57,1
86.00,112.53,1
185.00,116.06,1
264.00,120.88,1
157.00,127.74,1
133.00,134.61,1
309.00,141.44,1
251.00,150.24,1
365.00,161.64,1
138.00,174.21,1
178.00,184.77,1
82.00,191.45,1
240.00,195.02,1
174.00,197.36,1
183.00,199.00,1
205.00,199.82,1
249.00,200.80,1
61.00,201.21,1
52.00,198.35,1
196.00,192.60,1
66.00,186.08,1
46.00,178.08,1
50.00,167.80,1
98.00,156.47,1
102.00,145.57,1
82.00,135.64,1
58.00,126.30,1
73.00,117.26,1
188.00,109.75,1
199.00,105.78,1
114.00,105.04,1
190.00,106.13,1
152.00,108.78,1
321.00,113.96,1
224.00,122.63,1
231.00,133.46,1
188.00,144.50,1
201.00,154.80,1
177.00,163.85,1
294.00,172.32,1
268.00,181.58,1
212.00,191.24,1
130.00,199.05,1
280.00,204.62,1
211.00,209.54,1
124.00,213.18,1
131.00,213.77,1
79.00,210.95,1
49.00,204.66,1
152.00,195.80,1
140.00,186.67,1
48.00,177.52,1
103.00,167.49,1
63.00,156.96,1
37.00,145.97,1
65.00,134.44,1
76.00,123.24,1
158.00,113.75,1
152.00,107.29,1
217.00,104.44,1
233.00,105.61,1
235.00,110.63,1
144.00,117.79,1
135.00,124.78,1
218.00,131.19,1
157.00,137.74,1
188.00,144.10,1
153.00,149.84,1
298.00,155.80,1
163.00,162.70,1
132.00,168.81,1
130.00,172.48,1
186.00,174.35,1
126.00,175.19,1
100.00,174.46,1
93.00,171.56,1
64.00,166.59,1
50.00,159.53,1
37.00,150.55,1
47.00,140.18,1
78.00,129.39,1
75.00,119.21,1
125.00,110.45,1
91.00,103.58,1
119.00,98.45,1
80.00,94.68,1
122.00,92.00,1
58.00,90.07,1
82.00,88.27,1
133.00,86.92,1
102.00,86.74,1
184.00,88.04,1
178.00,91.46,1
187.00,97.04,1
120.00,103.64,1
280.00,111.07,1
238.00,120.68,1
310.00,132.84,1
167.00,146.16,1
140.00,157.93,1
129.00,166.39,1
201.00,172.28,1
202.00,177.12,1
148.00,181.17,1
155.00,183.66,1
58.00,183.75,1
145.00,181.18,1
56.00,176.56,1
179.00,170.82,1
43.00,164.58,1
64.00,157.12,1
110.00,148.59,1
54.00,139.99,1
74.00,131.22,1
96.00,122.69,1
48.00,114.74,1
107.00,107.38,1
126.00,101.43,1
83.00,97.22,1
132.00,94.31,1
157.00,93.15,1
137.00,94.00,1
142.00,96.27,1
138.00,99.45,1
152.00,103.29,1
160.00,107.77,1
236.00,113.46,1
284.00,121.64,1
134.00,131.61,1
187.00,140.94,1
175.00,149.02,1
158.00,155.98,1
154.00,161.44,1
165.00,165.46,1
68.00,167.62,1
132.00,167.29,1
86.00,164.98,1
149.00,161.51,1
62.00,157.24,1
98.00,151.83,1
55.00,145.26,1
60.00,137.70,1
37.00,129.14,1
51.00,119.87,1
51.00,110.44,1
35.00,101.18,1
90.00,92.54,1
116.00,85.65,1
123.00,81.27,1
86.00,78.94,1
166.00,78.37,1
232.00,80.71,1
201.00,86.66,1
340.00,96.33,1
85.00,108.48,1
171.00,119.74,1
188.00,129.43,1
161.00,138.36,1
98.00,145.60,1
227.00,151.12,1
151.00,156.13,1
201.00,160.80,1
103.00,164.46,1
185.00,166.70,1
97.00,167.61,1
142.00,167.06,1
159.00,165.58,1
56.00,163.24,1
52.00,158.74,1
59.00,151.83,1
108.00,143.86,1
46.00,135.69,1
68.00,127.19,1
50.00,118.42,1
36.00,109.53,1
45.00,100.50,1
58.00,91.84,1
157.00,84.86,1
190.00,81.44,1
66.00,81.11,1
127.00,81.89,1
160.00,83.76,1
173.00,87.52,1
102.00,92.51,1
148.00,97.59,1
137.00,102.65,1
216.00,108.37,1
131.00,114.93,1
259.00,122.21,1
217.00,130.87,1
191.00,140.43,1
82.00,148.68,1
202.00,154.64,1
119.00,159.06,1
52.00,161.24,1
140.00,160.53,1
90.00,158.17,1
150.00,155.03,1
60.00,151.24,1
53.00,146.02,1
40.00,138.91,1
42.00,130.33,1
59.00,121.01,1
47.00,111.65,1
52.00,102.55,1
99.00,94.30,1
102.00,87.82,1
115.00,83.45,1
116.00,81.09,1
104.00,80.34,1
122.00,80.79,1
199.00,82.98,1
165.00,87.56,1
138.00,93.67,1
116.00,99.82,1
282.00,106.58,1
140.00,114.97,1
180.00,123.67,1
155.00,131.61,1
255.00,139.44,1
66.00,146.83,1
100.00,151.61,1
36.00,152.69,1
160.00,151.20,1
131.00,149.09,1
59.00,146.54,1
161.00,143.13,1
116.00,139.92,1
67.00,136.66,1
38.00,132.01,1
80.00,125.96,1
140.00,120.00,1
83.00,115.16,1
40.00,110.53,1
112.00,105.63,1
141.00,101.75,1
50.00,99.13,1
40.00,96.18,1
160.00,93.16,1
72.00,91.36,1
180.00,90.96,1
190.00,92.78,1
108.00,96.60,1
167.00,101.05,1
114.00,105.68,1
186.00,110.50,1
153.00,115.78,1
333.00,122.79,1
157.00,132.14,1
282.00,142.53,1
192.00,153.26,1
153.00,163.12,1
121.00,170.32,1
127.00,174.49,1
49.00,175.40,1
110.00,173.06,1
104.00,168.63,1
154.00,163.60,1
56.00,158.24,1
180.00,152.62,1
72.00,147.33,1
146.00,142.33,1
86.00,137.54,1
103.00,132.82,1
95.00,128.05,1
79.00,123.27,1
41.00,117.99,1
68.00,111.97,1
160.00,106.48,1
267.00,104.18,1
139.00,105.85,1
178.00,109.60,1
340.00,115.72,1
254.00,125.70,1
129.00,137.22,1
192.00,147.26,1
112.00,155.19,1
294.00,161.95,1
208.00,169.23,1
118.00,176.02,1
46.00,179.43,1
68.00,178.41,1
66.00,173.81,1
95.00,166.98,1
132.00,159.47,1
99.00,152.27,1
109.00,145.39,1
74.00,138.57,1
51.00,131.35,1
161.00,124.30,1
143.00,119.10,1
73.00,115.50,1
44.00,111.69,1
47.00,106.82,1
43.00,101.06,1
46.00,94.82,1
57.00,88.51,1
94.00,82.90,1
214.00,79.69,1
80.00,79.58,1
38.00,80.27,1
219.00,81.24,1
123.00,84.23,1
101.00,88.39,1
278.00,93.63,1
147.00,101.16,1
225.00,110.15,1
181.00,119.77,1
139.00,129.11,1
146.00,136.94,1
239.00,143.91,1
117.00,150.57,1
162.00,155.91,1
195.00,160.05,1
175.00,163.92,1
60.00,166.44,1
171.00,166.71,1
108.00,165.61,1
58.00,162.98,1
45.00,157.81,1
119.00,150.84,1
58.00,143.39,1
54.00,135.37,1
53.00,126.58,1
53.00,117.49,1
39.00,108.32,1
72.00,99.44,1
53.00,91.35,1
93.00,84.43,1
202.00,80.01,1
127.00,79.17,1
290.00,82.10,1
126.00,88.50,1
260.00,97.10,1
138.00,106.91,1
241.00,117.24,1
225.00,128.19,1
122.00,139.00,1
144.00,147.68,1
166.00,154.16,1
142.00,159.09,1
114.00,162.25,1
159.00,163.66,1
110.00,163.81,1
166.00,163.01,1
87.00,161.39,1
127.00,158.67,1
225.00,156.03,1
109.00,154.54,1
66.00,152.49,1
62.00,148.42,1
203.00,143.67,1
38.00,139.49,1
84.00,134.71,1
144.00,129.51,1
105.00,125.22,1
61.00,121.25,1
98.00,116.90,1
56.00,112.32,1
75.00,107.49,1
166.00,103.34,1
50.00,100.55,1
102.00,98.15,1
130.00,96.26,1
208.00,96.38,1
66.00,98.37,1
148.00,100.66,1
127.00,103.11,1
138.00,106.03,1
206.00,109.76,1
120.00,114.50,1
197.00,119.63,1
235.00,125.75,1
127.00,132.80,1
142.00,138.99,1
105.00,143.35,1
91.00,145.58,1
116.00,145.79,1
52.00,144.24,1
61.00,140.62,1
52.00,135.11,1
54.00,128.26,1
58.00,120.59,1
42.00,112.52,1
65.00,104.37,1
106.00,97.03,1
66.00,91.07,1
90.00,86.25,1
121.00,82.79,1
161.00,81.50,1
148.00,82.73,1
97.00,85.52,1
118.00,88.63,1
174.00,92.25,1
167.00,97.20,1
215.00,103.73,1
101.00,111.02,1
148.00,117.57,1
220.00,123.75,1
310.00,131.78,1
171.00,141.85,1
181.00,151.71,1
174.00,160.03,1
116.00,166.40,1
150.00,170.35,1
68.00,171.71,1
36.00,169.72,1
71.00,164.36,1
57.00,156.77,1
96.00,148.15,1
97.00,139.57,1
43.00,131.19,1
74.00,122.60,1
62.00,114.11,1
69.00,106.09,1
71.00,98.73,1
67.00,92.16,1
61.00,86.32,1
43.00,80.95,1
276.00,77.69,1
211.00,79.31,1
233.00,85.64,1
147.00,94.45,1
203.00,104.06,1
87.00,113.21,1
215.00,121.32,1
234.00,129.69,1
168.00,138.78,1
330.00,148.56,1
38.00,158.24,1
59.00,164.23,1
110.00,165.55,1
107.00,164.24,1
115.00,161.45,1
116.00,157.74,1
115.00,153.50,1
80.00,148.74,1
58.00,142.94,1
70.00,135.99,1
139.00,129.01,1
72.00,122.92,1
43.00,116.92,1
38.00,110.12,1
71.00,102.88,1
104.00,96.33,1
36.00,90.77,1
242.00,86.99,1
185.00,87.05,1
96.00,90.05,1
163.00,93.80,1
86.00,97.77,1
149.00,101.54,1
62.00,104.74,1
238.00,107.94,1
178.00,112.72,1
185.00,119.04,1
66.00,125.00,1
301.00,130.50,1
122.00,136.89,1
164.00,143.08,1
76.00,147.40,1
178.00,149.90,1
180.00,151.90,1
318.00,155.50,1
149.00,161.06,1
46.00,165.44,1
134.00,166.42,1
96.00,165.06,1
97.00,162.07,1
80.00,157.49,1
162.00,152.27,1
79.00,147.25,1
78.00,141.87,1
154.00,136.31,1
104.00,131.63,1
98.00,127.52,1
68.00,123.24,1
88.00,118.55,1
40.00,113.42,1
56.00,107.63,1
94.00,101.71,1
228.00,97.75,1
52.00,96.47,1
202.00,96.73,1
274.00,99.75,1
187.00,106.51,1
340.00,116.29,1
205.00,128.77,1
226.00,142.06,1
165.00,154.25,1
193.00,164.61,1
115.00,172.55,1
153.00,177.61,1
136.00,180.20,1
127.00,180.79,1
53.00,178.92,1
70.00,174.09,1
56.00,166.75,1
156.00,158.41,1
120.00,150.87,1
114.00,144.37,1
127.00,138.58,1
49.00,133.04,1
45.00,126.67,1
222.00,120.61,1
55.00,116.53,1
137.00,113.45,1
142.00,111.24,1
82.00,110.04,1
149.00,109.26,1
127.00,109.24,1
36.00,109.25,1
117.00,108.25,1
160.00,107.47,1
172.00,108.35,1
116.00,110.55,1
98.00,112.71,1
128.00,114.27,1
195.00,116.21,1
86.00,118.86,1
160.00,121.29,1
112.00,123.41,1
70.00,124.69,1
286.00,125.98,1
215.00,129.91,1
146.00,135.75,1
153.00,141.15,1
109.00,145.22,1
120.00,147.58,1
92.00,148.13,1
116.00,147.13,1
56.00,144.63,1
53.00,140.25,1
42.00,133.96,1
119.00,126.87,1
176.00,121.07,1
202.00,118.20,1
184.00,118.44,1
106.00,120.28,1
83.00,121.66,1
66.00,121.46,1
103.00,119.94,1
251.00,119.14,1
236.00,121.54,1
141.00,126.49,1
144.00,131.53,1
254.00,136.67,1
139.00,142.60,1
331.00,149.50,1
162.00,157.77,1
195.00,165.87,1
254.00,173.21,1
306.00,181.40,1
86.00,189.50,1
60.00,193.84,1
191.00,194.04,1
158.00,192.74,1
156.00,190.86,1
149.00,188.25,1
82.00,184.48,1
50.00,178.52,1
147.00,170.81,1
51.00,162.58,1
41.00,153.36,1
186.00,143.90,1
62.00,135.87,1
65.00,128.38,1
125.00,121.06,1
