42.00,86.17,0
116.00,85.81,0
95.00,85.75,0
98.00,86.21,0
72.00,86.71,0
81.00,86.89,0
71.00,86.68,0
89.00,86.23,0
50.00,85.51,0
87.00,84.42,0
65.00,83.18,0
51.00,81.71,0
81.00,79.94,0
44.00,78.07,0
44.00,75.84,0
70.00,73.30,0
46.00,70.85,0
38.00,68.29,0
40.00,65.43,0
42.00,62.42,0
45.00,59.46,0
68.00,56.89,0
74.00,55.17,0
37.00,54.13,0
136.00,53.90,0
79.00,55.14,0
46.00,57.07,0
67.00,58.62,0
107.00,60.23,0
80.00,62.44,0
161.00,65.60,0
118.00,70.15,0
98.00,75.38,0
66.00,80.00,0
74.00,83.38,0
72.00,85.56,0
116.00,87.15,0
64.00,88.52,0
76.00,89.28,0
64.00,89.22,0
64.00,88.44,0
67.00,87.05,0
69.00,85.33,0
60.00,83.39,0
39.00,81.04,0
64.00,78.24,0
40.00,75.24,0
38.00,71.97,0
55.00,68.52,0
46.00,65.23,0
40.00,62.12,0
82.00,59.42,0
85.00,57.79,0
56.00,57.19,0
70.00,57.05,0
79.00,57.33,0
73.00,58.14,0
110.00,59.59,0
68.00,61.70,0
98.00,64.11,0
87.00,66.72,0
113.00,69.67,0
88.00,72.93,0
93.00,76.15,0
98.00,79.15,0
100.00,82.03,0
99.00,84.79,0
95.00,87.33,0
104.00,89.62,0
76.00,91.53,0
84.00,92.77,0
59.00,93.14,0
76.00,92.65,0
98.00,91.76,0
49.00,90.71,0
37.00,88.83,0
66.00,86.04,0
35.00,82.75,0
53.00,79.09,0
58.00,75.33,0
37.00,71.69,0
48.00,68.04,0
46.00,64.49,0
84.00,61.52,0
59.00,59.48,0
67.00,58.19,0
79.00,57.53,0
73.00,57.59,0
111.00,58.51,0
92.00,60.48,0
111.00,63.33,0
79.00,66.66,0
96.00,70.00,0
79.00,73.12,0
78.00,75.81,0
89.00,78.03,0
103.00,80.11,0
66.00,82.02,0
84.00,83.40,0
88.00,84.35,0
86.00,85.14,0
46.00,85.46,0
45.00,84.71,0
68.00,83.03,0
52.00,80.93,0
72.00,78.68,0
76.00,76.61,0
50.00,74.77,0
58.00,72.84,0
57.00,70.80,0
49.00,68.74,0
41.00,66.52,0
68.00,64.28,0
67.00,62.46,0
55.00,61.14,0
68.00,60.14,0
83.00,59.65,0
72.00,59.84,0
70.00,60.46,0
92.00,61.44,0
81.00,62.93,0
124.00,65.10,0
80.00,67.97,0
98.00,71.07,0
84.00,74.06,0
91.00,76.82,0
108.00,79.48,0
97.00,82.21,0
102.00,84.91,0
81.00,87.30,0
79.00,89.07,0
58.00,89.93,0
72.00,89.81,0
52.00,88.83,0
77.00,87.25,0
60.00,85.36,0
55.00,83.19,0
39.00,80.52,0
35.00,77.22,0
67.00,73.62,0
37.00,70.15,0
59.00,66.85,0
95.00,64.20,0
86.00,62.82,0
91.00,62.67,0
74.00,63.31,0
39.00,64.00,0
61.00,64.16,0
99.00,64.32,0
64.00,64.98,0
88.00,65.94,0
80.00,67.14,0
79.00,68.53,0
81.00,69.97,0
103.00,71.58,0
87.00,73.54,0
80.00,75.54,0
89.00,77.34,0
84.00,78.98,0
83.00,80.42,0
87.00,81.65,0
97.00,82.80,0
46.00,83.65,0
75.00,83.71,0
56.00,83.07,0
72.00,81.98,0
85.00,80.79,0
58.00,79.69,0
40.00,78.22,0
75.00,76.28,0
43.00,74.21,0
48.00,71.91,0
68.00,69.50,0
47.00,67.27,0
74.00,65.31,0
34.00,63.55,0
90.00,62.03,0
65.00,61.14,0
77.00,60.89,0
60.00,61.00,0
84.00,61.39,0
156.00,62.82,0
86.00,65.81,0
92.00,69.39,0
79.00,72.70,0
95.00,75.66,0
109.00,78.55,0
69.00,81.30,0
98.00,83.55,0
91.00,85.44,0
90.00,87.11,0
50.00,88.16,0
60.00,88.10,0
75.00,87.16,0
68.00,85.86,0
40.00,84.11,0
65.00,81.76,0
39.00,78.99,0
44.00,75.83,0
60.00,72.47,0
36.00,69.17,0
43.00,65.82,0
42.00,62.46,0
66.00,59.43,0
36.00,56.90,0
54.00,54.68,0
78.00,53.03,0
65.00,52.29,0
106.00,52.59,0
80.00,54.03,0
143.00,56.74,0
77.00,60.58,0
96.00,64.74,0
73.00,68.60,0
118.00,72.23,0
90.00,75.91,0
107.00,79.54,0
75.00,82.80,0
91.00,85.42,0
77.00,87.34,0
99.00,88.76,0
91.00,89.93,0
89.00,90.91,0
52.00,91.29,0
53.00,90.59,0
40.00,88.69,0
50.00,85.82,0
68.00,82.52,0
36.00,79.12,0
36.00,75.37,0
72.00,71.51,0
44.00,68.06,0
64.00,65.05,0
69.00,62.60,0
44.00,60.70,0
46.00,58.93,0
71.00,57.34,0
78.00,56.44,0
89.00,56.51,0
75.00,57.43,0
59.00,58.70,0
123.00,60.33,0
97.00,62.92,0
98.00,66.23,0
65.00,69.52,0
84.00,72.29,0
79.00,74.59,0
119.00,76.86,0
81.00,79.33,0
44.00,81.26,0
84.00,82.15,0
68.00,82.41,0
60.00,82.21,0
70.00,81.47,0
67.00,80.41,0
36.00,78.94,0
67.00,76.91,0
37.00,74.54,0
42.00,71.79,0
57.00,68.79,0
47.00,65.91,0
68.00,63.36,0
65.00,61.37,0
57.00,59.94,0
58.00,58.83,0
79.00,58.12,0
85.00,58.15,0
37.00,58.62,0
101.00,59.18,0
94.00,60.40,0
58.00,62.21,0
97.00,64.07,0
106.00,66.32,0
107.00,69.27,0
77.00,72.52,0
100.00,75.57,0
86.00,78.39,0
93.00,80.96,0
64.00,83.01,0
74.00,84.26,0
64.00,84.72,0
104.00,84.79,0
46.00,84.67,0
60.00,83.90,0
63.00,82.42,0
38.00,80.43,0
46.00,77.79,0
43.00,74.63,0
42.00,71.20,0
53.00,67.73,0
54.00,64.53,0
61.00,61.80,0
76.00,59.76,0
54.00,58.44,0
76.00,57.66,0
70.00,57.44,0
75.00,57.77,0
81.00,58.60,0
80.00,59.92,0
78.00,61.57,0
102.00,63.59,0
97.00,66.14,0
105.00,69.22,0
71.00,72.38,0
82.00,75.12,0
63.00,77.17,0
108.00,78.80,0
127.00,80.78,0
80.00,83.27,0
62.00,85.29,0
59.00,86.18,0
48.00,85.89,0
79.00,84.77,0
69.00,83.39,0
54.00,81.82,0
35.00,79.68,0
49.00,76.84,0
42.00,73.58,0
38.00,70.09,0
66.00,66.64,0
54.00,63.67,0
44.00,61.11,0
57.00,58.79,0
69.00,56.95,0
61.00,55.80,0
85.00,55.35,0
83.00,55.77,0
78.00,56.98,0
58.00,58.46,0
81.00,59.93,0
91.00,61.63,0
66.00,63.61,0
94.00,65.63,0
98.00,67.90,0
86.00,70.50,0
85.00,73.08,0
84.00,75.43,0
107.00,77.70,0
86.00,80.03,0
71.00,82.05,0
89.00,83.50,0
56.00,84.35,0
64.00,84.41,0
65.00,83.73,0
52.00,82.47,0
54.00,80.62,0
37.00,78.17,0
39.00,75.12,0
43.00,71.60,0
77.00,68.23,0
44.00,65.41,0
34.00,62.74,0
71.00,60.15,0
60.00,58.15,0
57.00,56.76,0
128.00,56.31,0
92.00,57.46,0
100.00,59.85,0
71.00,62.68,0
89.00,65.50,0
103.00,68.38,0
79.00,71.40,0
73.00,74.09,0
92.00,76.31,0
82.00,78.27,0
47.00,79.68,0
76.00,80.19,0
70.00,80.15,0
67.00,79.81,0
79.00,79.26,0
74.00,78.68,0
96.00,78.31,0
91.00,78.39,0
74.00,78.77,0
51.00,78.86,0
36.00,78.07,0
39.00,76.22,0
44.00,73.60,0
37.00,70.54,0
36.00,67.16,0
42.00,63.62,0
54.00,60.27,0
38.00,57.28,0
64.00,54.72,0
54.00,52.78,0
78.00,51.64,0
95.00,51.58,0
49.00,52.45,0
92.00,53.74,0
70.00,55.45,0
88.00,57.56,0
68.00,59.86,0
106.00,62.35,0
76.00,65.12,0
94.00,67.98,0
68.00,70.66,0
78.00,72.90,0
92.00,74.80,0
130.00,77.02,0
60.00,79.56,0
81.00,81.60,0
76.00,82.91,0
56.00,83.55,0
44.00,83.20,0
72.00,81.96,0
69.00,80.43,0
50.00,78.76,0
59.00,76.78,0
57.00,74.59,0
51.00,72.31,0
68.00,70.06,0
59.00,68.07,0
46.00,66.23,0
48.00,64.28,0
37.00,62.15,0
59.00,59.98,0
60.00,58.12,0
71.00,56.85,0
88.00,56.40,0
100.00,57.08,0
38.00,58.39,0
96.00,59.71,0
82.00,61.32,0
80.00,63.32,0
86.00,65.47,0
112.00,67.94,0
94.00,70.91,0
112.00,74.24,0
75.00,77.56,0
86.00,80.39,0
86.00,82.64,0
81.00,84.42,0
83.00,85.71,0
41.00,86.25,0
57.00,85.64,0
68.00,84.20,0
68.00,82.48,0
72.00,80.73,0
48.00,78.88,0
41.00,76.60,0
57.00,73.88,0
63.00,71.17,0
41.00,68.61,0
68.00,66.15,0
49.00,63.97,0
37.00,61.87,0
119.00,60.23,0
64.00,59.80,0
77.00,60.18,0
78.00,60.92,0
92.00,62.15,0
83.00,63.90,0
118.00,66.22,0
66.00,68.97,0
66.00,71.39,0
80.00,73.17,0
115.00,74.92,0
76.00,76.96,0
150.00,79.41,0
100.00,82.59,0
65.00,85.70,0
72.00,87.73,0
48.00,88.49,0
94.00,88.31,0
88.00,87.94,0
70.00,87.55,0
57.00,86.72,0
48.00,85.15,0
40.00,82.74,0
58.00,79.71,0
43.00,76.42,0
39.00,72.90,0
38.00,69.13,0
67.00,65.48,0
68.00,62.53,0
80.00,60.55,0
73.00,59.54,0
76.00,59.30,0
81.00,59.68,0
125.00,61.01,0
63.00,63.27,0
96.00,65.75,0
43.00,67.93,0
90.00,69.59,0
95.00,71.18,0
147.00,73.56,0
80.00,76.82,0
94.00,80.08,0
79.00,82.77,0
77.00,84.80,0
86.00,86.17,0
152.00,87.68,0
73.00,89.76,0
90.00,91.57,0
83.00,92.71,0
54.00,93.06,0
40.00,92.17,0
109.00,90.46,0
37.00,88.60,0
49.00,86.18,0
91.00,83.36,0
43.00,80.73,0
90.00,78.26,0
64.00,76.18,0
50.00,74.29,0
54.00,72.20,0
137.00,70.66,0
58.00,70.36,0
82.00,70.57,0
82.00,70.90,0
97.00,71.65,0
57.00,72.60,0
93.00,73.44,0
78.00,74.30,0
99.00,75.37,0
80.00,76.64,0
84.00,77.90,0
65.00,78.87,0
101.00,79.61,0
80.00,80.40,0
91.00,81.25,0
87.00,82.10,0
72.00,82.81,0
74.00,83.14,0
40.00,82.79,0
64.00,81.59,0
48.00,79.78,0
54.00,77.53,0
118.00,75.53,0
43.00,74.26,0
39.00,72.86,0
96.00,71.17,0
36.00,69.75,0
47.00,68.14,0
72.00,66.34,0
45.00,64.72,0
54.00,63.14,0
148.00,62.33,0
66.00,63.11,0
74.00,64.53,0
85.00,65.95,0
78.00,67.50,0
72.00,69.04,0
144.00,70.96,0
69.00,73.60,0
104.00,76.37,0
86.00,78.94,0
101.00,81.41,0
76.00,83.60,0
69.00,85.16,0
72.00,85.90,0
83.00,86.06,0
69.00,85.88,0
102.00,85.58,0
71.00,85.36,0
46.00,84.77,0
73.00,83.47,0
63.00,81.84,0
55.00,79.99,0
100.00,78.19,0
58.00,76.83,0
38.00,75.36,0
78.00,73.49,0
49.00,71.65,0
38.00,69.65,0
63.00,67.38,0
46.00,65.17,0
42.00,62.96,0
90.00,61.02,0
78.00,60.01,0
73.00,59.90,0
67.00,60.24,0
78.00,60.87,0
79.00,61.83,0
154.00,63.73,0
76.00,66.89,0
94.00,70.40,0
70.00,73.50,0
95.00,76.14,0
63.00,78.30,0
125.00,80.22,0
78.00,82.25,0
61.00,83.90,0
82.00,84.71,0
75.00,85.01,0
83.00,85.03,0
64.00,84.75,0
50.00,83.89,0
40.00,82.15,0
62.00,79.71,0
37.00,76.88,0
38.00,73.63,0
77.00,70.29,0
39.00,67.34,0
48.00,64.55,0
58.00,61.89,0
70.00,59.76,0
38.00,58.12,0
72.00,56.75,0
61.00,55.84,0
70.00,55.49,0
116.00,56.00,0
75.00,57.65,0
89.00,59.92,0
72.00,62.36,0
76.00,64.70,0
67.00,66.75,0
111.00,68.75,0
78.00,71.04,0
87.00,73.35,0
67.00,75.32,0
86.00,76.86,0
94.00,78.24,0
120.00,79.96,0
77.00,82.02,0
72.00,83.73,0
47.00,84.48,0
50.00,84.05,0
58.00,82.63,0
46.00,80.57,0
51.00,78.01,0
42.00,75.05,0
68.00,72.00,0
38.00,69.08,0
54.00,66.22,0
77.00,63.70,0
46.00,61.78,0
82.00,60.35,0
121.00,60.00,0
73.00,61.05,0
75.00,62.65,0
69.00,64.21,0
84.00,65.73,0
97.00,67.47,0
134.00,69.96,0
51.00,73.00,0
76.00,75.47,0
92.00,77.29,0
102.00,79.10,0
83.00,81.01,0
116.00,82.95,0
86.00,84.99,0
54.00,86.56,0
72.00,87.10,0
71.00,86.85,0
86.00,86.27,0
67.00,85.54,0
37.00,84.28,0
49.00,82.12,0
62.00,79.37,0
39.00,76.42,0
38.00,73.11,0
43.00,69.49,0
36.00,65.77,0
44.00,62.07,0
43.00,58.60,0
53.00,55.53,0
38.00,52.91,0
74.00,50.85,0
95.00,49.92,0
70.00,50.34,0
107.00,51.81,0
86.00,54.28,0
85.00,57.38,0
79.00,60.60,0
108.00,63.95,0
86.00,67.52,0
111.00,71.24,0
86.00,74.96,0
113.00,78.58,0
87.00,82.04,0
94.00,85.10,0
72.00,87.48,0
78.00,89.02,0
83.00,89.81,0
44.00,89.82,0
73.00,88.88,0
71.00,87.38,0
63.00,85.64,0
74.00,83.73,0
50.00,81.66,0
70.00,79.40,0
40.00,76.96,0
88.00,74.53,0
96.00,72.80,0
104.00,72.25,0
57.00,72.42,0
74.00,72.57,0
64.00,72.51,0
39.00,72.06,0
127.00,71.56,0
73.00,71.84,0
84.00,72.63,0
102.00,73.66,0
87.00,75.10,0
80.00,76.66,0
110.00,78.26,0
91.00,80.11,0
98.00,82.10,0
66.00,83.81,0
93.00,85.02,0
112.00,86.13,0
70.00,87.32,0
82.00,88.11,0
74.00,88.34,0
66.00,88.03,0
52.00,87.03,0
65.00,85.34,0
53.00,83.17,0
51.00,80.61,0
40.00,77.61,0
45.00,74.23,0
64.00,70.81,0
39.00,67.62,0
46.00,64.51,0
78.00,61.74,0
47.00,59.66,0
58.00,58.01,0
76.00,56.81,0
76.00,56.38,0
67.00,56.63,0
97.00,57.49,0
54.00,58.84,0
72.00,60.22,0
75.00,61.53,0
80.00,62.99,0
78.00,64.60,0
89.00,66.38,0
77.00,68.29,0
86.00,70.20,0
70.00,71.97,0
80.00,73.46,0
99.00,74.89,0
65.00,76.33,0
82.00,77.48,0
41.00,78.02,0
72.00,77.81,0
51.00,77.02,0
49.00,75.73,0
91.00,74.23,0
37.00,72.85,0
46.00,71.14,0
70.00,69.13,0
46.00,67.24,0
36.00,65.21,0
56.00,62.96,0
42.00,60.73,0
87.00,58.91,0
86.00,58.08,0
58.00,58.15,0
69.00,58.52,0
73.00,59.09,0
75.00,59.97,0
54.00,60.94,0
141.00,62.34,0
74.00,64.75,0
90.00,67.56,0
65.00,70.11,0
80.00,72.20,0
86.00,73.97,0
125.00,75.99,0
84.00,78.48,0
83.00,80.89,0
72.00,82.71,0
37.00,83.55,0
62.00,83.12,0
76.00,82.01,0
56.00,80.69,0
62.00,79.08,0
72.00,77.33,0
35.00,75.43,0
45.00,73.04,0
84.00,70.54,0
36.00,68.37,0
54.00,66.19,0
106.00,64.41,0
56.00,63.60,0
53.00,63.11,0
71.00,62.58,0
74.00,62.33,0
46.00,62.28,0
142.00,62.72,0
80.00,64.37,0
131.00,67.09,0
72.00,70.36,0
84.00,73.48,0
104.00,76.27,0
122.00,79.29,0
74.00,82.45,0
95.00,85.14,0
75.00,87.17,0
73.00,88.46,0
47.00,88.73,0
81.00,88.04,0
78.00,86.98,0
55.00,85.72,0
71.00,84.07,0
85.00,82.36,0
82.00,81.01,0
77.00,80.00,0
46.00,78.92,0
42.00,77.23,0
84.00,75.17,0
40.00,73.18,0
59.00,71.09,0
74.00,69.07,0
53.00,67.40,0
69.00,65.97,0
93.00,65.04,0
43.00,64.65,0
55.00,64.15,0
68.00,63.48,0
125.00,63.47,0
65.00,64.54,0
131.00,66.40,0
82.00,69.01,0
68.00,71.71,0
79.00,73.84,0
83.00,75.57,0
95.00,77.20,0
146.00,79.35,0
96.00,82.34,0
69.00,85.26,0
76.00,87.23,0
53.00,88.10,0
52.00,87.79,0
81.00,86.63,0
77.00,85.28,0
46.00,83.76,0
72.00,81.82,0
40.00,79.55,0
44.00,76.81,0
42.00,73.60,0
62.00,70.31,0
44.00,67.21,0
35.00,64.17,0
66.00,61.23,0
42.00,58.70,0
69.00,56.64,0
193.00,56.28,0
49.00,58.35,0
100.00,61.22,0
73.00,64.04,0
75.00,66.71,0
96.00,69.18,0
124.00,72.00,0
79.00,75.25,0
91.00,78.33,0
83.00,80.91,0
79.00,82.98,0
89.00,84.54,0
109.00,85.95,0
81.00,87.38,0
91.00,88.58,0
56.00,89.19,0
53.00,88.82,0
72.00,87.54,0
48.00,85.69,0
36.00,83.14,0
103.00,80.30,0
42.00,77.84,0
39.00,75.26,0
48.00,72.19,0
44.00,68.96,0
53.00,65.78,0
70.00,63.01,0
65.00,60.95,0
46.00,59.41,0
61.00,58.07,0
68.00,57.09,0
64.00,56.61,0
73.00,56.59,0
84.00,57.14,0
78.00,58.31,0
89.00,60.00,0
103.00,62.27,0
123.00,65.40,0
94.00,69.29,0
69.00,73.09,0
74.00,76.09,0
85.00,78.36,0
87.00,80.23,0
112.00,82.06,0
89.00,84.04,0
49.00,85.57,0
68.00,86.01,0
69.00,85.60,0
52.00,84.59,0
70.00,83.03,0
56.00,81.15,0
43.00,78.90,0
37.00,76.06,0
50.00,72.77,0
50.00,69.41,0
54.00,66.26,0
46.00,63.35,0
46.00,60.63,0
59.00,58.19,0
69.00,56.34,0
56.00,55.16,0
92.00,54.69,0
124.00,55.53,0
78.00,57.78,0
58.00,60.37,0
73.00,62.55,0
100.00,64.65,0
90.00,67.11,0
89.00,69.81,0
92.00,72.53,0
72.00,75.04,0
88.00,77.15,0
99.00,79.07,0
95.00,81.06,0
84.00,82.98,0
79.00,84.52,0
63.00,85.41,0
64.00,85.50,0
80.00,84.96,0
50.00,84.02,0
48.00,82.40,0
58.00,80.14,0
53.00,77.57,0
37.00,74.71,0
50.00,71.53,0
48.00,68.28,0
36.00,65.06,0
51.00,61.87,0
38.00,58.86,0
41.00,56.02,0
84.00,53.69,0
52.00,52.30,0
89.00,51.81,0
106.00,52.50,0
103.00,54.62,0
70.00,57.59,0
58.00,60.43,0
107.00,63.02,0
78.00,65.79,0
108.00,68.79,0
74.00,71.85,0
88.00,74.63,0
81.00,77.02,0
88.00,79.08,0
41.00,80.49,0
61.00,80.81,0
64.00,80.25,0
94.00,79.51,0
68.00,78.97,0
43.00,78.20,0
78.00,76.94,0
37.00,75.40,0
45.00,73.37,0
80.00,71.10,0
40.00,69.06,0
43.00,66.90,0
82.00,64.76,0
48.00,63.11,0
50.00,61.65,0
71.00,60.31,0
82.00,59.58,0
51.00,59.41,0
107.00,59.72,0
75.00,60.80,0
95.00,62.52,0
71.00,64.53,0
72.00,66.48,0
81.00,68.21,0
120.00,70.19,0
87.00,72.75,0
99.00,75.54,0
78.00,78.17,0
90.00,80.43,0
103.00,82.47,0
110.00,84.66,0
122.00,87.19,0
57.00,89.63,0
81.00,91.13,0
57.00,91.54,0
54.00,90.89,0
99.00,89.57,0
56.00,88.15,0
38.00,86.21,0
77.00,83.62,0
39.00,80.80,0
37.00,77.57,0
64.00,74.01,0
42.00,70.56,0
45.00,67.21,0
112.00,64.45,0
59.00,62.94,0
63.00,62.13,0
69.00,61.55,0
96.00,61.54,0
55.00,62.10,0
139.00,63.34,0
78.00,65.57,0
105.00,68.40,0
92.00,71.43,0
111.00,74.67,0
90.00,78.01,0
101.00,81.20,0
77.00,83.99,0
72.00,86.04,0
77.00,87.22,0
109.00,88.00,0
72.00,88.72,0
71.00,89.02,0
77.00,88.70,0
49.00,87.79,0
44.00,86.02,0
127.00,84.01,0
39.00,82.49,0
40.00,80.63,0
91.00,78.28,0
62.00,76.26,0
40.00,74.31,0
85.00,72.24,0
38.00,70.33,0
99.00,68.71,0
115.00,68.10,0
57.00,68.58,0
79.00,69.21,0
54.00,69.63,0
90.00,69.94,0
93.00,70.56,0
145.00,72.19,0
97.00,74.99,0
89.00,78.18,0
96.00,81.09,0
120.00,83.93,0
80.00,86.75,0
76.00,88.97,0
70.00,90.22,0
51.00,90.38,0
91.00,89.68,0
87.00,88.83,0
106.00,88.31,0
74.00,88.08,0
80.00,87.75,0
48.00,86.94,0
40.00,85.23,0
60.00,82.66,0
40.00,79.63,0
37.00,76.16,0
56.00,72.41,0
42.00,68.74,0
44.00,65.20,0
49.00,61.84,0
38.00,58.72,0
53.00,55.89,0
86.00,53.78,0
88.00,52.99,0
70.00,53.38,0
66.00,54.34,0
72.00,55.53,0
109.00,57.23,0
158.00,60.34,0
76.00,64.85,0
99.00,69.51,0
95.00,73.80,0
97.00,77.81,0
90.00,81.42,0
51.00,84.19,0
101.00,85.92,0
82.00,87.17,0
39.00,87.75,0
63.00,87.14,0
101.00,85.99,0
56.00,84.92,0
62.00,83.58,0
46.00,81.66,0
64.00,79.31,0
43.00,76.69,0
61.00,73.92,0
45.00,71.09,0
47.00,68.24,0
40.00,65.29,0
59.00,62.43,0
69.00,60.07,0
45.00,58.29,0
77.00,56.96,0
52.00,56.15,0
40.00,55.50,0
136.00,55.39,0
85.00,56.79,0
63.00,59.02,0
78.00,61.16,0
106.00,63.45,0
94.00,66.27,0
111.00,69.57,0
84.00,73.08,0
107.00,76.53,0
69.00,79.66,0
84.00,82.11,0
54.00,83.67,0
77.00,84.30,0
89.00,84.45,0
129.00,84.95,0
61.00,85.89,0
41.00,86.18,0
72.00,85.32,0
38.00,83.70,0
48.00,81.31,0
94.00,78.69,0
38.00,76.37,0
47.00,73.87,0
137.00,71.75,0
88.00,71.16,0
80.00,71.61,0
73.00,72.23,0
59.00,72.67,0
84.00,72.87,0
127.00,73.54,0
65.00,74.94,0
89.00,76.39,0
93.00,77.74,0
97.00,79.27,0
98.00,81.00,0
114.00,83.00,0
82.00,85.15,0
72.00,86.86,0
44.00,87.52,0
87.00,87.16,0
92.00,86.57,0
53.00,85.94,0
79.00,84.91,0
76.00,83.69,0
70.00,82.49,0
69.00,81.21,0
59.00,79.75,0
40.00,77.88,0
60.00,75.52,0
50.00,72.97,0
40.00,70.27,0
37.00,67.28,0
35.00,64.02,0
43.00,60.66,0
44.00,57.47,0
48.00,54.63,0
46.00,52.20,0
61.00,50.29,0
69.00,49.13,0
93.00,49.04,0
99.00,50.28,0
73.00,52.57,0
80.00,55.26,0
68.00,57.96,0
83.00,60.57,0
75.00,63.10,0
129.00,65.93,0
104.00,69.52,0
108.00,73.62,0
68.00,77.52,0
86.00,80.64,0
63.00,82.85,0
121.00,84.54,0
88.00,86.28,0
53.00,87.64,0
69.00,87.95,0
51.00,87.28,0
58.00,85.78,0
51.00,83.60,0
37.00,80.81,0
58.00,77.53,0
45.00,74.11,0
59.00,70.77,0
62.00,67.75,0
65.00,65.27,0
40.00,63.14,0
64.00,61.16,0
70.00,59.60,0
71.00,58.72,0
70.00,58.45,0
66.00,58.59,0
127.00,59.48,0
73.00,61.45,0
99.00,63.99,0
65.00,66.58,0
163.00,69.60,0
86.00,73.53,0
80.00,77.52,0
71.00,80.61,0
94.00,82.91,0
74.00,84.66,0
99.00,86.02,0
54.00,86.89,0
49.00,86.80,0
49.00,85.52,0
45.00,83.32,0
67.00,80.59,0
56.00,77.79,0
53.00,75.01,0
36.00,72.05,0
39.00,68.77,0
50.00,65.36,0
97.00,62.55,0
67.00,60.92,0
58.00,60.07,0
69.00,59.51,0
58.00,59.23,0
120.00,59.57,0
104.00,61.19,0
65.00,63.66,0
61.00,65.86,0
48.00,67.29,0
85.00,68.16,0
85.00,69.06,0
86.00,70.28,0
110.00,71.92,0
65.00,73.85,0
46.00,75.24,0
111.00,76.02,0
78.00,76.95,0
68.00,77.89,0
68.00,78.35,0
95.00,78.59,0
74.00,78.91,0
45.00,78.93,0
78.00,78.33,0
52.00,77.38,0
41.00,75.95,0
92.00,74.22,0
37.00,72.61,0
51.00,70.78,0
58.00,68.67,0
37.00,66.49,0
46.00,64.10,0
66.00,61.78,0
49.00,59.86,0
54.00,58.21,0
102.00,57.18,0
75.00,57.26,0
84.00,58.20,0
68.00,59.55,0
97.00,61.24,0
81.00,63.34,0
102.00,65.82,0
94.00,68.67,0
100.00,71.80,0
84.00,74.92,0
86.00,77.74,0
92.00,80.19,0
71.00,82.22,0
59.00,83.46,0
56.00,83.68,0
81.00,83.15,0
52.00,82.23,0
57.00,80.81,0
65.00,78.98,0
58.00,77.00,0
35.00,74.73,0
66.00,72.15,0
41.00,69.51,0
43.00,66.79,0
59.00,64.05,0
51.00,61.60,0
77.00,59.68,0
61.00,58.44,0
92.00,57.97,0
80.00,58.39,0
57.00,59.33,0
71.00,60.27,0
77.00,61.28,0
99.00,62.70,0
78.00,64.61,0
87.00,66.75,0
84.00,68.95,0
86.00,71.16,0
77.00,73.24,0
108.00,75.28,0
119.00,77.74,0
101.00,80.74,0
69.00,83.57,0
90.00,85.67,0
80.00,87.15,0
69.00,88.03,0
68.00,88.16,0
39.00,87.35,0
47.00,85.44,0
35.00,82.56,0
33.00,78.87,0
59.00,74.79,0
34.00,70.74,0
40.00,66.71,0
54.00,62.83,0
58.00,59.50,0
51.00,56.83,0
81.00,54.92,0
64.00,53.94,0
43.00,53.49,0
93.00,53.39,0
84.00,54.14,0
80.00,55.74,0
55.00,57.58,0
86.00,59.35,0
79.00,61.27,0
133.00,63.81,0
100.00,67.30,0
121.00,71.49,0
73.00,75.74,0
94.00,79.44,0
74.00,82.40,0
118.00,84.91,0
67.00,87.11,0
74.00,88.61,0
69.00,89.17,0
72.00,88.99,0
74.00,88.29,0
47.00,87.05,0
56.00,85.06,0
82.00,82.73,0
57.00,80.52,0
36.00,78.08,0
48.00,75.11,0
69.00,72.04,0
42.00,69.21,0
46.00,66.41,0
105.00,64.06,0
68.00,62.83,0
78.00,62.46,0
64.00,62.49,0
116.00,63.12,0
74.00,64.56,0
118.00,66.68,0
76.00,69.27,0
74.00,71.79,0
84.00,73.88,0
78.00,75.67,0
78.00,77.15,0
160.00,78.98,0
105.00,81.94,0
89.00,85.27,0
70.00,87.90,0
79.00,89.54,0
93.00,90.47,0
120.00,91.38,0
69.00,92.36,0
92.00,92.95,0
62.00,92.94,0
44.00,92.01,0
38.00,89.82,0
73.00,86.77,0
37.00,83.41,0
36.00,79.61,0
69.00,75.56,0
63.00,71.95,0
44.00,68.80,0
57.00,65.85,0
118.00,63.71,0
65.00,62.94,0
115.00,63.27,0
76.00,64.50,0
101.00,66.35,0
64.00,68.38,0
108.00,70.45,0
60.00,72.50,0
94.00,74.33,0
96.00,76.10,0
138.00,78.44,0
92.00,81.45,0
102.00,84.55,0
110.00,87.47,0
85.00,90.16,0
83.00,92.22,0
45.00,93.19,0
40.00,92.61,0
45.00,90.49,0
85.00,87.67,0
49.00,84.81,0
41.00,81.68,0
40.00,78.02,0
36.00,73.95,0
47.00,69.73,0
37.00,65.60,0
38.00,61.61,0
45.00,57.84,0
94.00,54.90,0
77.00,53.42,0
49.00,52.97,0
70.00,52.91,0
55.00,53.13,0
106.00,53.91,0
57.00,55.38,0
99.00,57.32,0
81.00,59.66,0
110.00,62.54,0
71.00,65.73,0
91.00,68.81,0
97.00,71.78,0
91.00,74.76,0
76.00,77.50,0
77.00,79.66,0
82.00,81.24,0
61.00,82.25,0
87.00,82.71,0
47.00,82.66,0
50.00,81.79,0
52.00,80.07,0
46.00,77.75,0
53.00,75.06,0
42.00,72.14,0
39.00,68.99,0
81.00,65.98,0
45.00,63.54,0
49.00,61.41,0
64.00,59.47,0
73.00,58.09,0
93.00,57.63,0
83.00,58.20,0
74.00,59.47,0
93.00,61.14,0
76.00,63.16,0
71.00,65.22,0
98.00,67.24,0
126.00,69.80,0
82.00,73.02,0
92.00,76.20,0
89.00,79.04,0
102.00,81.65,0
107.00,84.25,0
131.00,87.13,0
75.00,90.11,0
64.00,92.24,0
72.00,93.08,0
34.00,92.65,0
67.00,90.97,0
77.00,88.72,0
66.00,86.44,0
80.00,84.24,0
67.00,82.21,0
43.00,80.08,0
46.00,77.45,0
41.00,74.35,0
41.00,70.92,0
64.00,67.52,0
72.00,64.69,0
84.00,62.82,0
42.00,61.65,0
73.00,60.72,0
67.00,60.10,0
112.00,60.29,0
78.00,61.48,0
46.00,62.95,0
84.00,64.08,0
86.00,65.31,0
126.00,67.23,0
80.00,69.93,0
62.00,72.54,0
97.00,74.62,0
133.00,76.95,0
63.00,79.70,0
68.00,81.85,0
69.00,83.00,0
76.00,83.47,0
86.00,83.60,0
50.00,83.39,0
71.00,82.61,0
77.00,81.50,0
37.00,80.13,0
46.00,78.08,0
76.00,75.63,0
36.00,73.21,0
38.00,70.47,0
58.00,67.47,0
56.00,64.70,0
61.00,62.36,0
102.00,60.84,0
54.00,60.30,0
38.00,59.96,0
70.00,59.36,0
77.00,59.06,0
81.00,59.39,0
122.00,60.67,0
53.00,62.75,0
112.00,65.07,0
72.00,67.56,0
87.00,70.05,0
98.00,72.48,0
126.00,75.30,0
57.00,78.32,0
92.00,80.77,0
71.00,82.55,0
67.00,83.66,0
90.00,84.17,0
143.00,85.00,0
80.00,86.59,0
60.00,87.93,0
66.00,88.23,0
60.00,87.63,0
41.00,86.15,0
121.00,84.34,0
53.00,82.96,0
36.00,81.34,0
48.00,78.85,0
55.00,75.90,0
42.00,72.79,0
66.00,69.72,0
66.00,67.07,0
79.00,65.12,0
76.00,63.97,0
85.00,63.59,0
93.00,64.01,0
76.00,65.07,0
92.00,66.52,0
78.00,68.21,0
116.00,70.25,0
74.00,72.65,0
133.00,75.35,0
77.00,78.35,0
51.00,80.84,0
102.00,82.38,0
84.00,83.63,0
90.00,84.79,0
98.00,85.86,0
87.00,86.91,0
76.00,87.72,0
50.00,87.81,0
50.00,86.85,0
67.00,85.05,0
54.00,82.84,0
62.00,80.38,0
45.00,77.70,0
36.00,74.64,0
53.00,71.26,0
87.00,68.23,0
38.00,65.86,0
38.00,63.54,0
69.00,61.19,0
56.00,59.30,0
78.00,58.04,0
86.00,57.63,0
48.00,57.87,0
87.00,58.36,0
87.00,59.37,0
88.00,61.05,0
91.00,63.25,0
88.00,65.79,0
89.00,68.49,0
141.00,71.65,0
116.00,75.73,0
91.00,80.16,0
71.00,83.93,0
77.00,86.58,0
70.00,88.16,0
87.00,88.97,0
53.00,89.09,0
94.00,88.61,0
82.00,87.99,0
55.00,87.20,0
50.00,85.71,0
85.00,83.73,0
39.00,81.60,0
37.00,78.94,0
83.00,75.92,0
38.00,73.11,0
54.00,70.32,0
74.00,67.69,0
78.00,65.78,0
70.00,64.63,0
158.00,64.72,0
72.00,66.45,0
85.00,68.76,0
81.00,70.92,0
94.00,73.03,0
116.00,75.41,0
122.00,78.41,0
80.00,81.74,0
92.00,84.65,0
76.00,86.88,0
82.00,88.40,0
78.00,89.26,0
102.00,89.77,0
73.00,90.13,0
57.00,89.94,0
80.00,89.03,0
58.00,87.66,0
62.00,85.86,0
55.00,83.62,0
47.00,80.96,0
40.00,77.83,0
37.00,74.24,0
47.00,70.39,0
33.00,66.49,0
44.00,62.62,0
43.00,58.97,0
79.00,55.97,0
45.00,53.88,0
47.00,52.29,0
119.00,51.48,0
78.00,52.17,0
100.00,54.05,0
68.00,56.56,0
67.00,59.10,0
77.00,61.38,0
83.00,63.59,0
74.00,65.80,0
75.00,67.83,0
53.00,69.42,0
77.00,70.46,0
74.00,71.25,0
85.00,72.06,0
71.00,72.89,0
70.00,73.57,0
87.00,74.11,0
68.00,74.66,0
66.00,74.99,0
45.00,74.78,0
74.00,74.05,0
37.00,72.95,0
34.00,71.21,0
61.00,68.90,0
38.00,66.48,0
59.00,64.06,0
71.00,61.98,0
54.00,60.46,0
41.00,59.12,0
72.00,57.87,0
58.00,57.01,0
73.00,56.63,0
85.00,56.86,0
78.00,57.81,0
68.00,59.18,0
72.00,60.62,0
144.00,62.67,0
64.00,65.65,0
108.00,68.88,0
44.00,71.74,0
91.00,73.90,0
74.00,75.59,0
72.00,76.94,0
81.00,77.89,0
74.00,78.59,0
95.00,79.20,0
68.00,79.79,0
68.00,80.07,0
90.00,80.07,0
50.00,79.88,0
43.00,79.03,0
52.00,77.32,0
35.00,74.97,0
35.00,71.99,0
59.00,68.71,0
50.00,65.62,0
63.00,62.94,0
97.00,61.07,0
65.00,60.31,0
51.00,60.04,0
72.00,59.82,0
45.00,59.66,0
66.00,59.45,0
111.00,59.70,0
51.00,60.72,0
72.00,61.85,0
86.00,62.98,0
87.00,64.49,0
86.00,66.37,0
93.00,68.52,0
80.00,70.79,0
95.00,73.05,0
83.00,75.27,0
61.00,77.13,0
88.00,78.42,0
94.00,79.54,0
86.00,80.76,0
39.00,81.54,0
60.00,81.28,0
37.00,80.01,0
33.00,77.78,0
55.00,74.82,0
38.00,71.60,0
36.00,68.16,0
56.00,64.67,0
60.00,61.60,0
40.00,59.01,0
57.00,56.72,0
60.00,54.88,0
70.00,53.70,0
90.00,53.43,0
67.00,54.07,0
59.00,55.11,0
73.00,56.21,0
74.00,57.49,0
88.00,59.11,0
176.00,61.91,0
81.00,66.32,0
94.00,71.04,0
72.00,75.10,0
111.00,78.59,0
105.00,81.94,0
146.00,85.64,0
84.00,89.59,0
41.00,92.56,0
73.00,93.74,0
54.00,93.53,0
66.00,92.30,0
91.00,90.61,0
57.00,88.85,0
36.00,86.57,0
71.00,83.62,0
62.00,80.60,0
36.00,77.54,0
58.00,74.24,0
36.00,70.83,0
45.00,67.34,0
96.00,64.30,0
69.00,62.40,0
59.00,61.31,0
73.00,60.61,0
84.00,60.46,0
62.00,60.85,0
152.00,62.12,0
78.00,64.72,0
82.00,67.77,0
48.00,70.25,0
80.00,71.94,0
78.00,73.21,0
78.00,74.35,0
40.00,75.02,0
88.00,75.09,0
71.00,75.03,0
62.00,74.92,0
44.00,74.33,0
102.00,73.52,0
90.00,73.26,0
51.00,73.39,0
71.00,73.24,0
46.00,72.68,0
44.00,71.56,0
83.00,70.14,0
44.00,68.84,0
55.00,67.44,0
80.00,66.09,0
41.00,64.99,0
58.00,63.82,0
60.00,62.62,0
73.00,61.70,0
50.00,61.09,0
132.00,61.12,0
92.00,62.48,0
110.00,64.96,0
68.00,67.83,0
85.00,70.51,0
72.00,72.78,0
92.00,74.75,0
102.00,76.73,0
90.00,78.89,0
66.00,80.80,0
125.00,82.44,0
62.00,84.10,0
82.00,85.31,0
91.00,86.03,0
55.00,86.37,0
40.00,85.76,0
48.00,83.97,0
54.00,81.39,0
98.00,78.84,0
49.00,76.77,0
36.00,74.57,0
73.00,72.04,0
46.00,69.61,0
38.00,67.15,0
59.00,64.55,0
37.00,62.04,0
39.00,59.50,0
61.00,57.06,0
136.00,55.78,0
56.00,56.17,0
72.00,57.26,0
83.00,58.52,0
74.00,60.13,0
164.00,62.64,0
87.00,66.51,0
98.00,70.87,0
67.00,74.73,0
58.00,77.59,0
79.00,79.36,0
155.00,81.15,0
80.00,83.70,0
73.00,86.08,0
75.00,87.53,0
51.00,88.00,0
63.00,87.43,0
85.00,86.27,0
66.00,85.01,0
38.00,83.35,0
128.00,81.57,0
37.00,80.25,0
36.00,78.56,0
73.00,76.20,0
37.00,73.68,0
36.00,70.85,0
59.00,67.74,0
65.00,64.95,0
52.00,62.67,0
58.00,60.74,0
65.00,59.19,0
67.00,58.17,0
123.00,58.13,0
89.00,59.50,0
95.00,61.86,0
86.00,64.62,0
87.00,67.51,0
76.00,70.25,0
115.00,72.94,0
78.00,75.74,0
93.00,78.37,0
66.00,80.51,0
64.00,81.86,0
104.00,82.65,0
54.00,83.20,0
50.00,83.04,0
56.00,81.91,0
47.00,80.07,0
48.00,77.66,0
34.00,74.72,0
55.00,71.44,0
36.00,68.07,0
49.00,64.72,0
42.00,61.48,0
51.00,58.50,0
45.00,55.87,0
84.00,53.88,0
55.00,52.81,0
81.00,52.51,0
105.00,53.21,0
87.00,55.10,0
65.00,57.56,0
74.00,59.94,0
114.00,62.46,0
69.00,65.38,0
83.00,68.20,0
91.00,70.79,0
82.00,73.28,0
108.00,75.76,0
83.00,78.29,0
90.00,80.63,0
84.00,82.61,0
77.00,84.15,0
68.00,85.07,0
82.00,85.40,0
59.00,85.24,0
77.00,84.58,0
67.00,83.61,0
50.00,82.26,0
34.00,80.18,0
56.00,77.37,0
36.00,74.19,0
38.00,70.69,0
77.00,67.27,0
39.00,64.35,0
58.00,61.76,0
126.00,60.08,0
76.00,60.01,0
48.00,60.66,0
70.00,61.15,0
71.00,61.65,0
51.00,62.16,0
116.00,62.88,0
78.00,64.33,0
111.00,66.48,0
75.00,69.01,0
64.00,71.34,0
76.00,73.05,0
92.00,74.48,0
100.00,76.09,0
89.00,77.94,0
88.00,79.80,0
56.00,81.23,0
43.00,81.64,0
66.00,80.95,0
109.00,80.09,0
56.00,79.61,0
50.00,78.85,0
39.00,77.26,0
36.00,74.86,0
41.00,71.82,0
50.00,68.51,0
48.00,65.30,0
52.00,62.34,0
69.00,59.85,0
53.00,57.99,0
74.00,56.72,0
66.00,56.08,0
65.00,55.98,0
88.00,56.40,0
83.00,57.53,0
87.00,59.30,0
72.00,61.42,0
79.00,63.56,0
68.00,65.55,0
91.00,67.43,0
102.00,69.53,0
128.00,72.33,0
94.00,75.79,0
81.00,79.20,0
72.00,81.88,0
68.00,83.63,0
96.00,84.71,0
95.00,85.66,0
57.00,86.39,0
39.00,86.12,0
81.00,84.86,0
42.00,83.11,0
41.00,80.72,0
69.00,77.84,0
46.00,74.93,0
36.00,71.86,0
62.00,68.65,0
58.00,65.73,0
48.00,63.21,0
70.00,61.06,0
101.00,59.79,0
54.00,59.54,0
71.00,59.71,0
66.00,60.03,0
169.00,61.35,0
70.00,64.24,0
84.00,67.56,0
67.00,70.38,0
82.00,72.67,0
80.00,74.58,0
162.00,76.90,0
94.00,80.23,0
58.00,83.49,0
72.00,85.53,0
74.00,86.53,0
60.00,86.74,0
91.00,86.39,0
59.00,85.76,0
35.00,84.46,0
50.00,82.17,0
49.00,79.23,0
34.00,75.87,0
38.00,72.11,0
39.00,68.10,0
60.00,64.25,0
50.00,60.93,0
41.00,58.05,0
43.00,55.39,0
83.00,53.27,0
82.00,52.30,0
82.00,52.55,0
52.00,53.48,0
84.00,54.65,0
91.00,56.30,0
65.00,58.44,0
81.00,60.63,0
82.00,62.84,0
79.00,65.12,0
57.00,67.15,0
119.00,69.06,0
104.00,71.51,0
62.00,74.23,0
62.00,76.24,0
70.00,77.36,0
86.00,78.04,0
37.00,78.27,0
46.00,77.57,0
61.00,76.05,0
42.00,74.13,0
36.00,71.70,0
52.00,68.86,0
49.00,65.99,0
43.00,63.22,0
54.00,60.58,0
36.00,58.12,0
63.00,55.90,0
61.00,54.20,0
51.00,53.07,0
47.00,52.19,0
88.00,51.73,0
87.00,52.22,0
69.00,53.60,0
134.00,55.85,0
66.00,59.05,0
99.00,62.54,0
72.00,65.91,0
95.00,69.08,0
107.00,72.25,0
67.00,75.39,0
96.00,78.06,0
69.00,80.22,0
80.00,81.81,0
46.00,82.59,0
72.00,82.45,0
76.00,81.83,0
75.00,81.12,0
40.00,80.10,0
67.00,78.52,0
37.00,76.46,0
56.00,74.00,0
108.00,71.81,0
39.00,70.35,0
38.00,68.76,0
92.00,67.00,0
38.00,65.59,0
34.00,64.03,0
72.00,62.19,0
59.00,60.70,0
57.00,59.61,0
202.00,59.90,0
79.00,62.62,0
110.00,66.52,0
84.00,70.46,0
93.00,74.18,0
103.00,77.65,0
106.00,81.06,0
78.00,84.23,0
43.00,86.37,0
39.00,86.82,0
79.00,85.95,0
51.00,84.50,0
48.00,82.48,0
79.00,80.10,0
41.00,77.67,0
57.00,75.07,0
49.00,72.29,0
57.00,69.54,0
44.00,66.86,0
34.00,64.09,0
78.00,61.43,0
40.00,59.29,0
66.00,57.55,0
72.00,56.34,0
54.00,55.74,0
72.00,55.53,0
74.00,55.78,0
81.00,56.61,0
65.00,57.86,0
119.00,59.62,0
84.00,62.19,0
98.00,65.25,0
89.00,68.48,0
63.00,71.46,0
98.00,73.96,0
79.00,76.20,0
67.00,78.06,0
98.00,79.46,0
87.00,80.79,0
88.00,82.11,0
68.00,83.13,0
52.00,83.43,0
78.00,82.97,0
61.00,82.10,0
66.00,80.93,0
75.00,79.58,0
73.00,78.31,0
56.00,77.04,0
88.00,75.79,0
36.00,74.55,0
36.00,72.77,0
42.00,70.24,0
35.00,67.27,0
47.00,64.10,0
76.00,61.28,0
69.00,59.32,0
55.00,58.09,0
54.00,57.16,0
94.00,56.69,0
83.00,57.15,0
62.00,58.28,0
93.00,59.68,0
69.00,61.39,0
92.00,63.33,0
126.00,65.83,0
104.00,69.27,0
96.00,73.16,0
84.00,76.83,0
87.00,79.99,0
61.00,82.38,0
57.00,83.67,0
39.00,83.65,0
53.00,82.43,0
66.00,80.52,0
53.00,78.38,0
58.00,76.06,0
60.00,73.67,0
37.00,71.20,0
51.00,68.50,0
36.00,65.62,0
38.00,62.60,0
59.00,59.65,0
49.00,57.13,0
47.00,55.02,0
61.00,53.28,0
59.00,52.08,0
60.00,51.42,0
65.00,51.24,0
74.00,51.59,0
124.00,52.94,0
53.00,55.31,0
89.00,57.91,0
83.00,60.57,0
98.00,63.50,0
99.00,66.76,0
78.00,70.11,0
87.00,73.17,0
78.00,75.80,0
62.00,77.82,0
75.00,79.07,0
61.00,79.65,0
66.00,79.63,0
70.00,79.16,0
60.00,78.38,0
59.00,77.26,0
39.00,75.64,0
38.00,73.35,0
64.00,70.66,0
39.00,67.98,0
36.00,65.17,0
79.00,62.45,0
40.00,60.25,0
54.00,58.34,0
64.00,56.72,0
68.00,55.68,0
59.00,55.19,0
77.00,55.16,0
70.00,55.66,0
98.00,56.80,0
90.00,58.72,0
84.00,61.22,0
99.00,64.05,0
87.00,67.13,0
68.00,70.06,0
116.00,72.78,0
86.00,75.63,0
149.00,78.90,0
74.00,82.56,0
70.00,85.65,0
69.00,87.50,0
39.00,88.05,0
64.00,87.31,0
94.00,86.00,0
45.00,84.62,0
37.00,82.60,0
80.00,79.99,0
45.00,77.36,0
42.00,74.55,0
84.00,71.71,0
52.00,69.35,0
38.00,67.14,0
82.00,64.97,0
72.00,63.44,0
47.00,62.44,0
71.00,61.58,0
78.00,61.09,0
82.00,61.27,0
98.00,62.18,0
117.00,64.09,0
89.00,66.91,0
84.00,69.98,0
65.00,72.66,0
74.00,74.67,0
77.00,76.12,0
70.00,77.17,0
130.00,78.29,0
51.00,79.70,0
96.00,80.85,0
83.00,81.75,0
53.00,82.32,0
66.00,82.15,0
46.00,81.20,0
44.00,79.46,0
56.00,77.09,0
59.00,74.52,0
35.00,71.82,0
58.00,68.95,0
47.00,66.12,0
40.00,63.37,0
61.00,60.74,0
36.00,58.37,0
76.00,56.36,0
118.00,55.51,0
78.00,56.25,0
98.00,58.04,0
84.00,60.43,0
81.00,63.12,0
79.00,65.76,0
158.00,68.88,0
74.00,72.86,0
78.00,76.66,0
94.00,79.69,0
37.00,81.86,0
69.00,82.75,0
104.00,83.00,0
87.00,83.46,0
72.00,83.94,0
75.00,84.06,0
37.00,83.51,0
69.00,82.11,0
35.00,80.08,0
35.00,77.32,0
62.00,74.05,0
37.00,70.74,0
37.00,67.31,0
72.00,63.99,0
48.00,61.25,0
54.00,58.97,0
90.00,57.33,0
51.00,56.54,0
42.00,56.00,0
73.00,55.46,0
70.00,55.35,0
74.00,55.81,0
64.00,56.64,0
80.00,57.73,0
94.00,59.28,0
111.00,61.64,0
93.00,64.77,0
85.00,68.17,0
69.00,71.24,0
91.00,73.81,0
127.00,76.45,0
130.00,79.87,0
75.00,83.65,0
63.00,86.59,0
66.00,88.17,0
47.00,88.45,0
80.00,87.71,0
103.00,86.81,0
44.00,85.99,0
52.00,84.53,0
63.00,82.37,0
46.00,79.86,0
36.00,76.90,0
61.00,73.59,0
35.00,70.23,0
62.00,66.96,0
49.00,63.98,0
87.00,61.64,0
64.00,60.20,0
96.00,59.68,0
112.00,60.34,0
79.00,62.15,0
104.00,64.55,0
74.00,67.23,0
92.00,69.88,0
92.00,72.48,0
98.00,75.16,0
53.00,77.52,0
98.00,79.25,0
99.00,80.82,0
63.00,82.31,0
104.00,83.44,0
67.00,84.33,0
73.00,84.80,0
58.00,84.59,0
71.00,83.78,0
38.00,82.37,0
49.00,80.18,0
63.00,77.52,0
39.00,74.70,0
35.00,71.54,0
68.00,68.24,0
80.00,65.55,0
35.00,63.51,0
64.00,61.63,0
59.00,60.00,0
58.00,58.76,0
66.00,57.87,0
54.00,57.29,0
62.00,56.91,0
68.00,56.77,0
116.00,57.38,0
81.00,59.10,0
92.00,61.51,0
76.00,64.13,0
61.00,66.52,0
84.00,68.47,0
108.00,70.47,0
104.00,72.99,0
66.00,75.66,0
79.00,77.79,0
79.00,79.35,0
93.00,80.63,0
121.00,82.13,0
84.00,84.02,0
51.00,85.49,0
64.00,85.84,0
47.00,85.13,0
44.00,83.46,0
117.00,81.51,0
42.00,79.98,0
35.00,78.13,0
81.00,75.74,0
39.00,73.38,0
36.00,70.76,0
54.00,67.80,0
56.00,64.97,0
117.00,63.01,0
124.00,62.85,0
69.00,64.22,0
91.00,66.06,0
69.00,67.92,0
67.00,69.53,0
81.00,70.80,0
85.00,72.03,0
76.00,73.28,0
80.00,74.43,0
59.00,75.28,0
79.00,75.72,0
118.00,76.33,0
72.00,77.46,0
87.00,78.64,0
68.00,79.53,0
104.00,80.29,0
59.00,80.97,0
72.00,81.24,0
53.00,80.88,0
61.00,79.90,0
40.00,78.28,0
77.00,76.27,0
39.00,74.14,0
34.00,71.64,0
74.00,68.86,0
41.00,66.32,0
70.00,64.06,0
87.00,62.44,0
72.00,61.76,0
66.00,61.65,0
41.00,61.55,0
97.00,61.47,0
63.00,61.84,0
99.00,62.74,0
71.00,64.10,0
113.00,65.94,0
75.00,68.22,0
96.00,70.67,0
72.00,72.99,0
127.00,75.38,0
81.00,78.06,0
73.00,80.51,0
74.00,82.19,0
69.00,83.16,0
62.00,83.40,0
104.00,83.29,0
85.00,83.38,0
40.00,83.28,0
59.00,82.31,0
43.00,80.50,0
38.00,77.97,0
80.00,75.12,0
37.00,72.42,0
44.00,69.60,0
60.00,66.69,0
64.00,64.16,0
41.00,62.01,0
66.00,60.08,0
52.00,58.49,0
76.00,57.38,0
161.00,57.65,0
58.00,59.72,0
95.00,62.41,0
75.00,65.05,0
111.00,67.86,0
85.00,70.90,0
127.00,74.23,0
91.00,77.87,0
89.00,81.35,0
75.00,84.15,0
108.00,86.36,0
62.00,88.11,0
102.00,89.28,0
74.00,90.03,0
85.00,90.39,0
80.00,90.35,0
40.00,89.69,0
66.00,88.09,0
89.00,86.12,0
63.00,84.32,0
55.00,82.39,0
83.00,80.32,0
52.00,78.34,0
35.00,76.09,0
66.00,73.42,0
67.00,70.89,0
69.00,68.85,0
132.00,67.82,0
62.00,68.05,0
91.00,68.84,0
71.00,69.78,0
94.00,70.88,0
71.00,72.10,0
99.00,73.42,0
95.00,74.99,0
88.00,76.83,0
94.00,78.70,0
84.00,80.50,0
86.00,82.08,0
114.00,83.62,0
61.00,85.13,0
54.00,85.85,0
58.00,85.44,0
54.00,84.16,0
64.00,82.30,0
43.00,80.03,0
44.00,77.27,0
44.00,74.06,0
80.00,70.92,0
40.00,68.20,0
57.00,65.68,0
43.00,63.22,0
47.00,60.83,0
55.00,58.59,0
43.00,56.60,0
64.00,54.92,0
70.00,53.81,0
96.00,53.67,0
47.00,54.34,0
85.00,55.33,0
79.00,56.69,0
83.00,58.55,0
88.00,60.79,0
76.00,63.24,0
73.00,65.60,0
99.00,67.88,0
127.00,70.66,0
87.00,74.08,0
79.00,77.37,0
69.00,79.90,0
93.00,81.75,0
53.00,82.99,0
77.00,83.48,0
74.00,83.41,0
46.00,82.85,0
54.00,81.49,0
36.00,79.33,0
35.00,76.40,0
61.00,73.03,0
52.00,69.78,0
35.00,66.66,0
63.00,63.61,0
55.00,60.98,0
35.00,58.68,0
67.00,56.58,0
58.00,54.99,0
65.00,54.01,0
84.00,53.73,0
90.00,54.41,0
111.00,56.22,0
70.00,58.89,0
96.00,61.83,0
60.00,64.69,0
137.00,67.63,0
88.00,71.13,0
79.00,74.68,0
88.00,77.67,0
98.00,80.29,0
57.00,82.44,0
105.00,83.97,0
59.00,85.06,0
66.00,85.45,0
70.00,85.09,0
64.00,84.24,0
64.00,82.97,0
43.00,81.21,0
62.00,78.94,0
36.00,76.28,0
35.00,73.14,0
96.00,70.01,0
41.00,67.53,0
45.00,65.25,0
99.00,63.26,0
88.00,62.40,0
44.00,62.31,0
59.00,62.12,0
64.00,61.79,0
48.00,61.44,0
101.00,61.30,0
88.00,61.97,0
99.00,63.54,0
72.00,65.58,0
98.00,67.79,0
62.00,69.95,0
153.00,72.39,0
86.00,75.59,0
80.00,78.88,0
69.00,81.37,0
91.00,83.13,0
51.00,84.22,0
106.00,84.73,0
70.00,85.07,0
42.00,84.90,0
66.00,83.77,0
64.00,82.11,0
48.00,80.13,0
48.00,77.68,0
35.00,74.73,0
35.00,71.28,0
52.00,67.61,0
36.00,64.03,0
38.00,60.53,0
43.00,57.15,0
87.00,54.44,0
53.00,52.81,0
76.00,52.05,0
66.00,52.00,0
122.00,52.97,0
67.00,55.06,0
64.00,57.48,0
72.00,59.62,0
62.00,61.51,0
70.00,63.11,0
142.00,65.08,0
72.00,67.95,0
88.00,70.97,0
72.00,73.56,0
43.00,75.37,0
86.00,76.26,0
88.00,76.93,0
102.00,77.90,0
40.00,78.81,0
60.00,78.90,0
38.00,78.00,0
36.00,76.16,0
112.00,74.09,0
37.00,72.52,0
39.00,70.78,0
65.00,68.61,0
37.00,66.39,0
35.00,63.95,0
59.00,61.34,0
56.00,59.06,0
76.00,57.42,0
72.00,56.59,0
69.00,56.47,0
63.00,56.76,0
80.00,57.39,0
96.00,58.60,0
73.00,60.44,0
103.00,62.69,0
101.00,65.47,0
81.00,68.61,0
99.00,71.72,0
80.00,74.68,0
90.00,77.35,0
127.00,80.02,0
76.00,82.88,0
98.00,85.43,0
72.00,87.38,0
57.00,88.45,0
108.00,88.77,0
36.00,88.63,0
60.00,87.59,0
47.00,85.57,0
39.00,82.81,0
49.00,79.42,0
52.00,75.79,0
44.00,72.14,0
52.00,68.57,0
68.00,65.38,0
50.00,62.76,0
69.00,60.65,0
96.00,59.39,0
67.00,59.19,0
150.00,60.23,0
69.00,62.63,0
102.00,65.61,0
76.00,68.59,0
92.00,71.44,0
77.00,74.04,0
121.00,76.59,0
70.00,79.22,0
87.00,81.47,0
70.00,83.09,0
127.00,84.49,0
59.00,85.93,0
57.00,86.68,0
70.00,86.40,0
49.00,85.35,0
53.00,83.56,0
103.00,81.57,0
40.00,79.83,0
39.00,77.71,0
60.00,75.00,0
48.00,72.17,0
36.00,69.21,0
74.00,66.29,0
37.00,63.69,0
71.00,61.43,0
93.00,59.93,0
47.00,59.32,0
81.00,59.11,0
63.00,59.25,0
98.00,59.91,0
73.00,61.19,0
104.00,63.01,0
50.00,65.04,0
68.00,66.69,0
79.00,67.92,0
73.00,69.08,0
89.00,70.28,0
108.00,71.83,0
84.00,73.85,0
67.00,75.78,0
78.00,77.19,0
46.00,77.92,0
51.00,77.73,0
56.00,76.71,0
53.00,75.19,0
58.00,73.36,0
49.00,71.35,0
37.00,69.06,0
35.00,66.34,0
48.00,63.36,0
44.00,60.45,0
48.00,57.77,0
96.00,55.77,0
89.00,55.12,0
67.00,55.63,0
48.00,56.43,0
82.00,57.19,0
76.00,58.26,0
75.00,59.70,0
74.00,61.30,0
65.00,62.88,0
66.00,64.22,0
90.00,65.50,0
73.00,66.94,0
86.00,68.48,0
101.00,70.26,0
144.00,72.85,0
76.00,76.25,0
72.00,79.36,0
68.00,81.47,0
61.00,82.60,0
57.00,82.77,0
52.00,82.03,0
55.00,80.54,0
35.00,78.36,0
56.00,75.61,0
36.00,72.52,0
101.00,69.67,0
35.00,67.46,0
42.00,65.31,0
68.00,63.06,0
40.00,61.07,0
54.00,59.21,0
92.00,57.82,0
79.00,57.47,0
72.00,57.97,0
73.00,58.87,0
96.00,60.21,0
95.00,62.21,0
97.00,64.85,0
87.00,67.82,0
102.00,70.92,0
73.00,73.94,0
89.00,76.58,0
83.00,78.81,0
80.00,80.67,0
74.00,82.04,0
60.00,82.75,0
86.00,82.87,0
43.00,82.49,0
56.00,81.36,0
78.00,79.73,0
55.00,78.06,0
41.00,76.11,0
41.00,73.59,0
36.00,70.54,0
70.00,67.41,0
44.00,64.62,0
63.00,62.19,0
54.00,60.14,0
68.00,58.57,0
81.00,57.68,0
127.00,58.06,0
68.00,59.75,0
48.00,61.63,0
44.00,62.75,0
87.00,63.36,0
96.00,64.33,0
150.00,66.48,0
104.00,70.06,0
83.00,74.12,0
78.00,77.63,0
74.00,80.31,0
82.00,82.24,0
109.00,83.86,0
79.00,85.44,0
132.00,87.12,0
66.00,88.90,0
51.00,89.91,0
58.00,89.57,0
72.00,88.32,0
49.00,86.53,0
43.00,84.07,0
92.00,81.29,0
47.00,78.76,0
47.00,76.16,0
67.00,73.38,0
51.00,70.76,0
70.00,68.40,0
76.00,66.56,0
80.00,65.45,0
88.00,65.12,0
80.00,65.50,0
99.00,66.49,0
66.00,67.89,0
74.00,69.23,0
71.00,70.32,0
144.00,71.79,0
71.00,74.09,0
101.00,76.59,0
77.00,78.85,0
93.00,80.84,0
80.00,82.51,0
111.00,84.06,0
71.00,85.54,0
56.00,86.40,0
68.00,86.28,0
37.00,85.21,0
49.00,83.17,0
111.00,80.89,0
51.00,79.15,0
35.00,77.27,0
61.00,74.78,0
41.00,72.06,0
42.00,69.13,0
67.00,66.21,0
40.00,63.59,0
59.00,61.20,0
94.00,59.43,0
84.00,58.86,0
90.00,59.38,0
66.00,60.54,0
104.00,62.11,0
68.00,64.07,0
79.00,66.08,0
74.00,67.90,0
90.00,69.66,0
98.00,71.60,0
109.00,73.96,0
85.00,76.64,0
87.00,79.16,0
77.00,81.24,0
82.00,82.80,0
96.00,84.04,0
88.00,85.19,0
65.00,86.04,0
48.00,86.03,0
62.00,85.03,0
78.00,83.53,0
46.00,81.81,0
42.00,79.54,0
41.00,76.60,0
40.00,73.19,0
38.00,69.50,0
46.00,65.73,0
40.00,62.11,0
62.00,58.85,0
55.00,56.24,0
51.00,54.24,0
64.00,52.76,0
71.00,51.94,0
74.00,51.93,0
60.00,52.51,0
152.00,54.06,0
77.00,57.11,0
80.00,60.74,0
66.00,64.00,0
103.00,66.96,0
80.00,69.90,0
116.00,72.97,0
102.00,76.30,0
63.00,79.49,0
69.00,81.74,0
95.00,83.20,0
57.00,84.17,0
54.00,84.29,0
72.00,83.55,0
40.00,82.21,0
41.00,80.05,0
40.00,77.10,0
35.00,73.60,0
52.00,69.85,0
39.00,66.16,0
38.00,62.55,0
62.00,59.21,0
58.00,56.53,0
41.00,54.44,0
43.00,52.56,0
68.00,51.00,0
39.00,49.94,0
75.00,49.31,0
51.00,49.18,0
111.00,49.83,0
71.00,51.52,0
105.00,54.05,0
86.00,57.23,0
124.00,61.07,0
67.00,65.29,0
85.00,69.17,0
94.00,72.57,0
94.00,75.78,0
71.00,78.64,0
93.00,80.93,0
94.00,82.90,0
59.00,84.46,0
64.00,85.14,0
40.00,84.71,0
37.00,83.07,0
54.00,80.46,0
61.00,77.51,0
43.00,74.52,0
38.00,71.31,0
40.00,67.84,0
49.00,64.33,0
46.00,61.07,0
49.00,58.14,0
79.00,55.83,0
88.00,54.68,0
101.00,54.94,0
78.00,56.36,0
68.00,58.27,0
60.00,60.05,0
74.00,61.59,0
108.00,63.33,0
83.00,65.65,0
83.00,68.19,0
86.00,70.64,0
80.00,72.93,0
81.00,74.97,0
90.00,76.78,0
78.00,78.42,0
64.00,79.63,0
76.00,80.25,0
53.00,80.29,0
67.00,79.73,0
82.00,78.89,0
66.00,78.10,0
40.00,77.01,0
57.00,75.32,0
45.00,73.19,0
62.00,70.89,0
62.00,68.70,0
39.00,66.63,0
48.00,64.41,0
42.00,62.05,0
63.00,59.82,0
49.00,57.94,0
71.00,56.51,0
54.00,55.59,0
62.00,55.04,0
138.00,55.41,0
83.00,57.32,0
86.00,60.13,0
68.00,62.93,0
77.00,65.46,0
127.00,68.09,0
120.00,71.58,0
83.00,75.57,0
80.00,79.14,0
73.00,81.84,0
63.00,83.58,0
71.00,84.37,0
74.00,84.49,0
70.00,84.17,0
80.00,83.58,0
74.00,82.88,0
54.00,81.93,0
41.00,80.34,0
59.00,78.10,0
43.00,75.49,0
37.00,72.51,0
50.00,69.23,0
40.00,65.91,0
46.00,62.67,0
48.00,59.62,0
45.00,56.88,0
90.00,54.80,0
84.00,53.98,0
54.00,54.15,0
80.00,54.74,0
61.00,55.65,0
114.00,57.11,0
82.00,59.39,0
90.00,62.20,0
83.00,65.14,0
89.00,68.06,0
88.00,70.92,0
74.00,73.54,0
93.00,75.83,0
96.00,78.00,0
68.00,79.99,0
74.00,81.38,0
42.00,81.89,0
68.00,81.44,0
106.00,80.76,0
66.00,80.43,0
51.00,79.92,0
50.00,78.68,0
52.00,76.83,0
57.00,74.63,0
46.00,72.24,0
47.00,69.66,0
65.00,67.09,0
50.00,64.79,0
60.00,62.76,0
64.00,61.08,0
75.00,59.96,0
68.00,59.46,0
108.00,59.74,0
96.00,61.12,0
77.00,63.26,0
75.00,65.48,0
106.00,67.75,0
56.00,70.08,0
127.00,72.38,0
100.00,75.13,0
75.00,78.05,0
70.00,80.34,0
81.00,81.87,0
66.00,82.79,0
122.00,83.52,0
37.00,84.18,0
64.00,84.05,0
72.00,83.14,0
38.00,81.73,0
54.00,79.63,0
42.00,76.96,0
63.00,74.05,0
41.00,71.12,0
50.00,68.15,0
50.00,65.22,0
34.00,62.36,0
35.00,59.39,0
44.00,56.39,0
62.00,53.78,0
50.00,51.82,0
57.00,50.42,0
75.00,49.67,0
77.00,49.80,0
114.00,51.07,0
58.00,53.36,0
75.00,55.85,0
67.00,58.17,0
99.00,60.55,0
82.00,63.23,0
103.00,66.19,0
78.00,69.28,0
75.00,72.10,0
98.00,74.56,0
71.00,76.78,0
69.00,78.49,0
78.00,79.57,0
71.00,80.20,0
76.00,80.48,0
56.00,80.33,0
43.00,79.48,0
55.00,77.83,0
43.00,75.62,0
51.00,73.03,0
43.00,70.20,0
48.00,67.26,0
56.00,64.42,0
36.00,61.75,0
36.00,59.03,0
51.00,56.33,0
65.00,54.09,0
72.00,52.69,0
68.00,52.17,0
84.00,52.47,0
74.00,53.52,0
115.00,55.40,0
55.00,57.98,0
106.00,60.76,0
71.00,63.66,0
83.00,66.49,0
80.00,69.06,0
127.00,71.79,0
64.00,74.78,0
98.00,77.49,0
81.00,79.82,0
54.00,81.54,0
74.00,82.32,0
86.00,82.58,0
76.00,82.70,0
40.00,82.36,0
70.00,81.25,0
63.00,79.73,0
48.00,77.96,0
38.00,75.67,0
48.00,72.85,0
43.00,69.75,0
76.00,66.83,0
55.00,64.46,0
44.00,62.44,0
71.00,60.60,0
47.00,59.13,0
72.00,58.02,0
64.00,57.36,0
62.00,57.13,0
67.00,57.18,0
41.00,57.29,0
117.00,57.68,0
72.00,58.94,0
62.00,60.62,0
54.00,61.96,0
122.00,63.35,0
89.00,65.50,0
94.00,68.22,0
70.00,70.90,0
71.00,73.11,0
80.00,74.79,0
103.00,76.35,0
72.00,77.98,0
36.00,78.98,0
66.00,78.87,0
37.00,77.86,0
43.00,76.03,0
72.00,73.74,0
36.00,71.41,0
42.00,68.81,0
55.00,66.00,0
102.00,63.79,0
63.00,62.66,0
73.00,62.21,0
37.00,61.85,0
76.00,61.37,0
85.00,61.25,0
86.00,61.87,0
80.00,63.08,0
68.00,64.51,0
96.00,66.04,0
96.00,67.96,0
139.00,70.69,0
88.00,74.25,0
109.00,78.00,0
74.00,81.42,0
86.00,84.15,0
85.00,86.19,0
89.00,87.74,0
59.00,88.68,0
84.00,88.87,0
55.00,88.41,0
58.00,87.21,0
73.00,85.44,0
68.00,83.52,0
47.00,81.41,0
40.00,78.79,0
41.00,75.58,0
45.00,72.02,0
38.00,68.33,0
36.00,64.57,0
50.00,60.90,0
36.00,57.52,0
38.00,54.37,0
51.00,51.53,0
60.00,49.32,0
40.00,47.75,0
97.00,46.94,0
44.00,47.07,0
80.00,47.81,0
68.00,49.04,0
90.00,50.87,0
68.00,53.19,0
121.00,56.07,0
80.00,59.61,0
96.00,63.45,0
71.00,67.10,0
78.00,70.27,0
70.00,72.81,0
116.00,75.09,0
90.00,77.59,0
76.00,80.00,0
69.00,81.75,0
52.00,82.58,0
44.00,82.27,0
72.00,81.07,0
46.00,79.42,0
36.00,77.18,0
53.00,74.35,0
39.00,71.24,0
42.00,67.95,0
67.00,64.77,0
48.00,62.06,0
70.00,59.88,0
92.00,58.57,0
55.00,58.18,0
75.00,58.26,0
72.00,58.68,0
81.00,59.54,0
42.00,60.51,0
104.00,61.47,0
112.00,63.16,0
88.00,65.81,0
77.00,68.65,0
92.00,71.31,0
107.00,74.01,0
98.00,76.96,0
65.00,79.70,0
78.00,81.68,0
61.00,82.81,0
59.00,83.07,0
74.00,82.61,0
50.00,81.66,0
37.00,79.98,0
97.00,77.89,0
55.00,76.09,0
34.00,74.19,0
70.00,71.90,0
35.00,69.50,0
51.00,66.97,0
50.00,64.37,0
49.00,61.92,0
60.00,59.73,0
58.00,57.97,0
62.00,56.68,0
63.00,55.85,0
73.00,55.54,0
97.00,55.99,0
73.00,57.30,0
116.00,59.38,0
74.00,62.12,0
100.00,65.16,0
76.00,68.21,0
40.00,70.69,0
45.00,71.89,0
80.00,72.15,0
54.00,72.11,0
70.00,71.82,0
83.00,71.52,0
48.00,71.27,0
86.00,70.91,0
42.00,70.47,0
36.00,69.50,0
45.00,67.78,0
78.00,65.92,0
34.00,64.27,0
37.00,62.40,0
42.00,60.16,0
43.00,57.82,0
55.00,55.64,0
71.00,54.00,0
56.00,53.06,0
101.00,52.94,0
69.00,53.80,0
73.00,55.25,0
67.00,56.86,0
91.00,58.67,0
92.00,60.92,0
81.00,63.56,0
67.00,66.12,0
104.00,68.51,0
71.00,70.92,0
59.00,72.93,0
84.00,74.30,0
156.00,76.05,0
58.00,78.62,0
71.00,80.80,0
70.00,82.02,0
78.00,82.63,0
64.00,82.76,0
133.00,82.92,0
44.00,83.40,0
44.00,83.18,0
65.00,81.90,0
40.00,79.99,0
35.00,77.37,0
48.00,74.12,0
42.00,70.64,0
36.00,67.04,0
45.00,63.41,0
71.00,60.17,0
50.00,57.69,0
68.00,55.86,0
89.00,54.90,0
49.00,54.81,0
96.00,55.26,0
89.00,56.52,0
98.00,58.68,0
92.00,61.50,0
86.00,64.67,0
72.00,67.71,0
55.00,70.14,0
114.00,72.11,0
152.00,74.81,0
78.00,78.49,0
68.00,81.80,0
69.00,83.95,0
52.00,84.94,0
64.00,84.86,0
41.00,83.82,0
51.00,81.89,0
41.00,79.24,0
68.00,76.27,0
42.00,73.30,0
41.00,70.22,0
35.00,66.87,0
45.00,63.41,0
38.00,60.03,0
46.00,56.85,0
58.00,54.12,0
65.00,52.12,0
91.00,51.19,0
75.00,51.46,0
51.00,52.37,0
46.00,53.17,0
83.00,53.89,0
90.00,55.15,0
80.00,57.11,0
62.00,59.30,0
87.00,61.41,0
99.00,63.74,0
53.00,66.21,0
79.00,68.24,0
80.00,69.93,0
99.00,71.70,0
66.00,73.52,0
38.00,74.70,0
63.00,74.82,0
69.00,74.37,0
70.00,73.81,0
114.00,73.61,0
51.00,73.91,0
36.00,73.77,0
52.00,72.68,0
46.00,70.98,0
47.00,68.93,0
58.00,66.72,0
39.00,64.51,0
68.00,62.38,0
144.00,61.34,0
48.00,61.85,0
86.00,62.89,0
61.00,63.92,0
77.00,64.95,0
52.00,65.79,0
124.00,66.77,0
56.00,68.26,0
92.00,69.84,0
64.00,71.25,0
100.00,72.61,0
110.00,74.34,0
120.00,76.82,0
78.00,79.72,0
113.00,82.50,0
68.00,84.96,0
62.00,86.59,0
76.00,87.18,0
91.00,87.27,0
48.00,86.98,0
107.00,86.32,0
47.00,85.52,0
51.00,84.17,0
37.00,81.90,0
38.00,78.83,0
66.00,75.37,0
38.00,71.97,0
40.00,68.51,0
55.00,65.04,0
44.00,61.86,0
68.00,59.14,0
59.00,57.10,0
38.00,55.51,0
65.00,54.12,0
83.00,53.34,0
94.00,53.67,0
68.00,54.97,0
105.00,56.90,0
87.00,59.50,0
95.00,62.59,0
86.00,65.88,0
78.00,69.05,0
82.00,71.86,0
108.00,74.51,0
84.00,77.22,0
127.00,80.06,0
60.00,82.86,0
55.00,84.75,0
60.00,85.29,0
74.00,84.94,0
41.00,83.92,0
55.00,82.11,0
48.00,79.67,0
37.00,76.74,0
36.00,73.27,0
50.00,69.53,0
36.00,65.81,0
50.00,62.23,0
67.00,59.12,0
53.00,56.77,0
71.00,55.12,0
63.00,54.18,0
48.00,53.70,0
45.00,53.25,0
110.00,53.20,0
82.00,54.26,0
106.00,56.41,0
73.00,59.21,0
128.00,62.51,0
81.00,66.34,0
114.00,70.39,0
71.00,74.29,0
54.00,77.36,0
72.00,79.21,0
98.00,80.44,0
56.00,81.39,0
86.00,81.87,0
51.00,81.84,0
57.00,81.13,0
68.00,79.84,0
62.00,78.33,0
46.00,76.56,0
72.00,74.55,0
43.00,72.48,0
35.00,70.11,0
76.00,67.56,0
44.00,65.30,0
40.00,63.10,0
51.00,60.80,0
72.00,58.81,0
63.00,57.49,0
57.00,56.69,0
73.00,56.28,0
55.00,56.24,0
60.00,56.36,0
97.00,56.83,0
59.00,57.90,0
86.00,59.29,0
56.00,60.75,0
99.00,62.31,0
101.00,64.38,0
90.00,67.04,0
106.00,70.05,0
93.00,73.28,0
80.00,76.39,0
75.00,78.94,0
51.00,80.59,0
52.00,81.06,0
60.00,80.53,0
35.00,79.16,0
64.00,77.12,0
36.00,74.66,0
48.00,71.84,0
63.00,68.93,0
35.00,66.17,0
37.00,63.29,0
43.00,60.28,0
51.00,57.43,0
65.00,55.10,0
55.00,53.46,0
47.00,52.28,0
73.00,51.49,0
104.00,51.64,0
91.00,53.12,0
55.00,55.31,0
82.00,57.49,0
83.00,59.73,0
46.00,61.89,0
156.00,64.22,0
82.00,67.51,0
97.00,71.23,0
74.00,74.59,0
94.00,77.48,0
91.00,80.03,0
82.00,82.29,0
88.00,84.11,0
86.00,85.56,0
69.00,86.56,0
61.00,86.81,0
54.00,86.14,0
58.00,84.67,0
43.00,82.51,0
38.00,79.65,0
53.00,76.25,0
39.00,72.67,0
35.00,68.92,0
52.00,65.12,0
36.00,61.52,0
86.00,58.50,0
67.00,56.53,0
73.00,55.59,0
56.00,55.27,0
73.00,55.32,0
94.00,55.99,0
61.00,57.31,0
125.00,59.23,0
92.00,62.06,0
86.00,65.43,0
88.00,68.74,0
115.00,72.10,0
82.00,75.58,0
106.00,78.90,0
110.00,82.16,0
77.00,85.25,0
64.00,87.48,0
60.00,88.49,0
86.00,88.57,0
147.00,88.83,0
65.00,89.77,0
54.00,90.26,0
70.00,89.65,0
52.00,88.25,0
44.00,86.06,0
73.00,83.31,0
38.00,80.34,0
68.00,77.23,0
48.00,74.14,0
62.00,71.21,0
37.00,68.35,0
64.00,65.58,0
50.00,63.08,0
82.00,61.13,0
87.00,60.11,0
70.00,60.05,0
152.00,61.16,0
65.00,63.61,0
64.00,66.22,0
82.00,68.29,0
88.00,70.22,0
73.00,72.10,0
127.00,74.13,0
87.00,76.65,0
68.00,79.07,0
74.00,80.76,0
73.00,81.76,0
71.00,82.23,0
94.00,82.42,0
67.00,82.53,0
36.00,82.07,0
38.00,80.46,0
59.00,78.00,0
36.00,75.14,0
77.00,72.20,0
44.00,69.51,0
52.00,66.96,0
40.00,64.37,0
44.00,61.72,0
47.00,59.12,0
63.00,56.85,0
61.00,55.18,0
94.00,54.39,0
87.00,54.77,0
94.00,56.23,0
114.00,58.71,0
72.00,61.90,0
106.00,65.28,0
81.00,68.71,0
79.00,71.92,0
81.00,74.62,0
70.00,76.78,0
69.00,78.27,0
89.00,79.28,0
90.00,80.20,0
76.00,81.11,0
82.00,81.80,0
48.00,82.00,0
87.00,81.63,0
57.00,80.96,0
63.00,79.95,0
50.00,78.48,0
60.00,76.60,0
35.00,74.34,0
36.00,71.53,0
65.00,68.46,0
40.00,65.56,0
42.00,62.73,0
103.00,60.39,0
79.00,59.32,0
49.00,59.11,0
85.00,59.16,0
77.00,59.69,0
66.00,60.64,0
91.00,61.84,0
67.00,63.31,0
95.00,64.98,0
87.00,66.94,0
63.00,68.96,0
68.00,70.54,0
111.00,71.97,0
90.00,73.81,0
81.00,75.85,0
71.00,77.56,0
102.00,78.97,0
92.00,80.47,0
136.00,82.43,0
75.00,84.82,0
50.00,86.61,0
69.00,87.12,0
53.00,86.63,0
61.00,85.33,0
79.00,83.63,0
40.00,81.71,0
35.00,79.15,0
74.00,76.11,0
40.00,73.12,0
47.00,70.10,0
68.00,67.15,0
66.00,64.75,0
60.00,62.93,0
122.00,62.01,0
92.00,62.54,0
74.00,64.01,0
69.00,65.57,0
91.00,67.09,0
78.00,68.74,0
120.00,70.76,0
77.00,73.21,0
112.00,75.84,0
67.00,78.38,0
59.00,80.23,0
84.00,81.22,0
77.00,81.79,0
82.00,82.17,0
72.00,82.33,0
78.00,82.24,0
73.00,81.94,0
79.00,81.51,0
48.00,80.79,0
64.00,79.55,0
54.00,77.88,0
36.00,75.76,0
95.00,73.47,0
52.00,71.60,0
39.00,69.78,0
70.00,67.74,0
36.00,65.72,0
35.00,63.49,0
80.00,61.23,0
60.00,59.59,0
72.00,58.64,0
69.00,58.23,0
85.00,58.43,0
59.00,59.12,0
80.00,60.03,0
93.00,61.31,0
72.00,63.05,0
130.00,65.32,0
97.00,68.44,0
101.00,72.06,0
66.00,75.45,0
90.00,78.20,0
85.00,80.44,0
78.00,82.27,0
91.00,83.69,0
56.00,84.61,0
50.00,84.61,0
47.00,83.48,0
69.00,81.63,0
51.00,79.47,0
40.00,76.94,0
52.00,73.99,0
77.00,71.13,0
39.00,68.63,0
43.00,66.09,0
45.00,63.39,0
67.00,60.89,0
46.00,58.84,0
61.00,57.16,0
66.00,55.92,0
72.00,55.33,0
86.00,55.50,0
72.00,56.40,0
59.00,57.61,0
104.00,59.05,0
98.00,61.22,0
93.00,64.10,0
88.00,67.24,0
91.00,70.38,0
87.00,73.40,0
94.00,76.22,0
49.00,78.53,0
70.00,79.85,0
71.00,80.37,0
82.00,80.54,0
78.00,80.59,0
100.00,80.76,0
78.00,81.16,0
49.00,81.30,0
58.00,80.65,0
54.00,79.30,0
54.00,77.48,0
62.00,75.38,0
37.00,73.07,0
56.00,70.48,0
91.00,68.17,0
52.00,66.56,0
38.00,65.05,0
68.00,63.39,0
64.00,61.99,0
74.00,61.11,0
98.00,60.98,0
83.00,61.78,0
100.00,63.37,0
72.00,65.41,0
83.00,67.50,0
56.00,69.29,0
114.00,70.91,0
92.00,72.90,0
85.00,75.17,0
72.00,77.17,0
120.00,79.03,0
58.00,80.88,0
76.00,82.19,0
52.00,82.64,0
67.00,82.28,0
67.00,81.38,0
38.00,79.98,0
36.00,77.74,0
106.00,75.26,0
66.00,73.49,0
48.00,72.07,0
53.00,70.39,0
50.00,68.47,0
40.00,66.34,0
67.00,64.15,0
48.00,62.21,0
53.00,60.46,0
86.00,59.12,0
71.00,58.59,0
55.00,58.59,0
67.00,58.70,0
65.00,58.95,0
67.00,59.37,0
98.00,60.18,0
97.00,61.78,0
72.00,63.97,0
71.00,66.09,0
90.00,68.04,0
102.00,70.18,0
140.00,73.08,0
90.00,76.76,0
91.00,80.42,0
72.00,83.39,0
49.00,85.23,0
66.00,85.75,0
107.00,85.70,0
67.00,85.70,0
47.00,85.24,0
74.00,84.02,0
80.00,82.58,0
56.00,81.16,0
61.00,79.48,0
36.00,77.34,0
39.00,74.58,0
60.00,71.46,0
45.00,68.40,0
46.00,65.44,0
71.00,62.74,0
37.00,60.48,0
54.00,58.41,0
90.00,56.84,0
76.00,56.34,0
64.00,56.62,0
80.00,57.30,0
89.00,58.51,0
98.00,60.44,0
102.00,63.10,0
99.00,66.35,0
87.00,69.82,0
72.00,73.01,0
69.00,75.49,0
66.00,77.17,0
110.00,78.46,0
73.00,79.82,0
75.00,80.95,0
77.00,81.61,0
48.00,81.70,0
65.00,81.04,0
75.00,79.94,0
34.00,78.52,0
41.00,76.37,0
73.00,73.77,0
36.00,71.19,0
35.00,68.37,0
77.00,65.48,0
43.00,63.03,0
81.00,61.11,0
53.00,59.76,0
67.00,58.86,0
71.00,58.37,0
45.00,58.17,0
91.00,58.17,0
75.00,58.75,0
70.00,59.82,0
88.00,61.16,0
130.00,63.26,0
61.00,66.15,0
102.00,69.08,0
95.00,71.99,0
89.00,74.98,0
65.00,77.56,0
85.00,79.48,0
68.00,80.81,0
78.00,81.62,0
70.00,81.97,0
44.00,81.69,0
36.00,80.36,0
105.00,78.53,0
44.00,76.93,0
52.00,75.20,0
93.00,73.39,0
41.00,71.90,0
48.00,70.23,0
57.00,68.24,0
72.00,66.41,0
60.00,64.97,0
57.00,63.80,0
63.00,62.75,0
57.00,61.86,0
79.00,61.26,0
92.00,61.31,0
65.00,62.03,0
83.00,63.05,0
72.00,64.25,0
89.00,65.64,0
73.00,67.20,0
86.00,68.82,0
66.00,70.34,0
82.00,71.65,0
53.00,72.62,0
65.00,73.05,0
77.00,73.10,0
63.00,73.06,0
58.00,72.78,0
52.00,72.06,0
67.00,71.02,0
81.00,70.09,0
39.00,69.28,0
96.00,68.49,0
35.00,67.82,0
36.00,66.73,0
56.00,65.06,0
58.00,63.33,0
42.00,61.70,0
61.00,60.09,0
62.00,58.76,0
81.00,58.00,0
42.00,57.70,0
80.00,57.60,0
127.00,58.34,0
78.00,60.38,0
84.00,62.97,0
66.00,65.43,0
111.00,67.84,0
84.00,70.50,0
106.00,73.38,0
56.00,76.06,0
106.00,78.25,0
74.00,80.16,0
84.00,81.75,0
79.00,82.91,0
92.00,83.81,0
65.00,84.43,0
48.00,84.34,0
60.00,83.32,0
36.00,81.47,0
41.00,78.80,0
66.00,75.69,0
44.00,72.61,0
38.00,69.46,0
41.00,66.10,0
35.00,62.64,0
37.00,59.16,0
64.00,55.98,0
36.00,53.38,0
54.00,51.21,0
78.00,49.70,0
40.00,48.98,0
88.00,48.84,0
69.00,49.48,0
80.00,50.86,0
104.00,52.98,0
115.00,56.17,0
66.00,60.05,0
112.00,63.98,0
86.00,67.96,0
76.00,71.72,0
62.00,74.68,0
88.00,76.84,0
65.00,78.45,0
114.00,79.82,0
60.00,81.14,0
56.00,81.85,0
63.00,81.63,0
36.00,80.56,0
35.00,78.48,0
42.00,75.52,0
36.00,72.05,0
37.00,68.28,0
59.00,64.55,0
55.00,61.32,0
36.00,58.53,0
69.00,56.10,0
59.00,54.32,0
74.00,53.33,0
59.00,53.01,0
73.00,53.22,0
89.00,54.04,0
84.00,55.64,0
98.00,57.96,0
84.00,60.81,0
100.00,63.99,0
72.00,67.23,0
99.00,70.31,0
58.00,73.03,0
127.00,75.52,0
71.00,78.07,0
112.00,80.58,0
54.00,82.71,0
43.00,83.77,0
80.00,83.62,0
57.00,82.90,0
62.00,81.72,0
56.00,80.08,0
42.00,77.97,0
35.00,75.22,0
41.00,71.92,0
39.00,68.32,0
35.00,64.59,0
47.00,60.91,0
37.00,57.48,0
63.00,54.49,0
56.00,52.22,0
65.00,50.75,0
65.00,50.04,0
77.00,50.09,0
81.00,50.95,0
69.00,52.47,0
87.00,54.42,0
36.00,56.41,0
115.00,58.32,0
72.00,60.64,0
73.00,63.13,0
70.00,65.33,0
105.00,67.46,0
71.00,69.75,0
70.00,71.81,0
68.00,73.31,0
69.00,74.29,0
42.00,74.63,0
60.00,74.18,0
78.00,73.37,0
62.00,72.63,0
65.00,71.87,0
36.00,70.81,0
40.00,69.11,0
43.00,66.86,0
36.00,64.27,0
51.00,61.56,0
72.00,59.19,0
80.00,57.71,0
65.00,57.13,0
46.00,56.91,0
67.00,56.72,0
70.00,56.77,0
74.00,57.24,0
71.00,58.11,0
105.00,59.50,0
37.00,61.22,0
88.00,62.70,0
77.00,64.16,0
85.00,65.84,0
103.00,67.85,0
138.00,70.67,0
72.00,74.21,0
95.00,77.56,0
70.00,80.28,0
98.00,82.45,0
78.00,84.22,0
117.00,85.85,0
55.00,87.28,0
47.00,87.74,0
61.00,86.93,0
48.00,85.23,0
53.00,82.86,0
69.00,80.16,0
50.00,77.46,0
43.00,74.59,0
87.00,71.78,0
39.00,69.40,0
52.00,67.08,0
69.00,64.85,0
64.00,63.12,0
74.00,61.95,0
113.00,61.70,0
75.00,62.56,0
87.00,64.03,0
70.00,65.67,0
88.00,67.35,0
91.00,69.18,0
85.00,71.21,0
77.00,73.20,0
101.00,75.10,0
88.00,77.09,0
83.00,79.03,0
46.00,80.37,0
97.00,80.98,0
72.00,81.35,0
78.00,81.57,0
76.00,81.56,0
56.00,81.22,0
62.00,80.33,0
55.00,78.94,0
48.00,77.10,0
54.00,74.84,0
47.00,72.34,0
39.00,69.59,0
34.00,66.51,0
61.00,63.35,0
61.00,60.65,0
51.00,58.53,0
80.00,56.99,0
63.00,56.21,0
76.00,56.08,0
67.00,56.46,0
90.00,57.37,0
54.00,58.65,0
114.00,60.26,0
71.00,62.40,0
87.00,64.80,0
88.00,67.24,0
103.00,69.89,0
92.00,72.79,0
103.00,75.81,0
48.00,78.46,0
91.00,80.28,0
71.00,81.49,0
79.00,82.29,0
70.00,82.66,0
64.00,82.55,0
73.00,81.97,0
46.00,80.95,0
58.00,79.33,0
56.00,77.29,0
55.00,75.03,0
38.00,72.53,0
61.00,69.82,0
38.00,67.09,0
38.00,64.24,0
61.00,61.40,0
66.00,59.08,0
74.00,57.57,0
82.00,56.96,0
66.00,57.12,0
71.00,57.71,0
77.00,58.61,0
74.00,59.81,0
69.00,61.18,0
99.00,62.77,0
75.00,64.73,0
99.00,66.95,0
66.00,69.23,0
75.00,71.20,0
62.00,72.65,0
83.00,73.67,0
75.00,74.52,0
84.00,75.32,0
77.00,76.08,0
49.00,76.52,0
36.00,76.07,0
57.00,74.68,0
52.00,72.83,0
42.00,70.70,0
53.00,68.30,0
71.00,66.03,0
36.00,64.03,0
36.00,61.87,0
40.00,59.41,0
52.00,56.96,0
87.00,55.14,0
64.00,54.32,0
43.00,54.03,0
80.00,53.93,0
72.00,54.34,0
78.00,55.35,0
70.00,56.75,0
60.00,58.24,0
88.00,59.74,0
70.00,61.43,0
98.00,63.38,0
94.00,65.74,0
44.00,68.10,0
83.00,69.83,0
132.00,71.66,0
75.00,74.17,0
87.00,76.68,0
91.00,78.86,0
107.00,81.02,0
69.00,83.08,0
68.00,84.48,0
73.00,85.04,0
51.00,84.86,0
62.00,83.88,0
58.00,82.28,0
40.00,80.15,0
35.00,77.31,0
35.00,73.80,0
37.00,69.86,0
41.00,65.80,0
51.00,61.95,0
66.00,58.70,0
77.00,56.44,0
52.00,55.11,0
74.00,54.38,0
80.00,54.34,0
39.00,54.76,0
138.00,55.72,0
36.00,57.50,0
60.00,59.18,0
68.00,60.36,0
84.00,61.57,0
77.00,63.04,0
144.00,65.23,0
99.00,68.57,0
89.00,72.40,0
70.00,75.78,0
124.00,78.77,0
80.00,81.72,0
143.00,84.79,0
71.00,87.94,0
46.00,90.16,0
73.00,90.82,0
54.00,90.37,0
40.00,88.85,0
64.00,86.40,0
37.00,83.39,0
36.00,79.78,0
36.00,75.60,0
40.00,71.14,0
45.00,66.73,0
72.00,62.84,0
53.00,59.81,0
63.00,57.52,0
82.00,56.04,0
66.00,55.48,0
77.00,55.62,0
88.00,56.43,0
113.00,58.22,0
98.00,61.06,0
131.00,64.84,0
94.00,69.33,0
76.00,73.72,0
69.00,77.22,0
84.00,79.80,0
96.00,81.87,0
130.00,84.09,0
82.00,86.61,0
99.00,88.91,0
68.00,90.59,0
41.00,91.16,0
82.00,90.50,0
75.00,89.31,0
46.00,87.76,0
40.00,85.39,0
53.00,82.26,0
43.00,78.72,0
37.00,74.89,0
38.00,70.77,0
69.00,66.81,0
41.00,63.38,0
39.00,60.26,0
59.00,57.36,0
60.00,55.06,0
78.00,53.61,0
51.00,52.94,0
39.00,52.49,0
45.00,51.85,0
56.00,51.18,0
83.00,50.97,0
77.00,51.59,0
130.00,53.39,0
71.00,56.35,0
82.00,59.67,0
88.00,62.88,0
83.00,66.06,0
141.00,69.56,0
81.00,73.61,0
76.00,77.39,0
59.00,80.11,0
60.00,81.63,0
51.00,81.99,0
70.00,81.46,0
55.00,80.41,0
44.00,78.79,0
44.00,76.50,0
43.00,73.68,0
42.00,70.51,0
86.00,67.53,0
46.00,65.18,0
39.00,63.04,0
80.00,61.01,0
40.00,59.43,0
71.00,58.17,0
84.00,57.49,0
79.00,57.71,0
80.00,58.63,0
102.00,60.22,0
82.00,62.46,0
53.00,64.74,0
86.00,66.59,0
78.00,68.30,0
82.00,70.03,0
70.00,71.60,0
102.00,73.10,0
76.00,74.73,0
68.00,76.15,0
65.00,77.00,0
89.00,77.48,0
91.00,78.04,0
64.00,78.65,0
60.00,78.83,0
35.00,78.16,0
50.00,76.53,0
42.00,74.23,0
37.00,71.45,0
36.00,68.22,0
58.00,64.90,0
36.00,61.78,0
55.00,58.89,0
91.00,56.71,0
87.00,55.87,0
69.00,56.14,0
80.00,57.02,0
70.00,58.28,0
168.00,60.51,0
79.00,64.22,0
59.00,68.10,0
71.00,71.01,0
80.00,73.20,0
62.00,74.87,0
142.00,76.51,0
116.00,79.05,0
96.00,82.26,0
77.00,85.15,0
87.00,87.32,0
60.00,88.66,0
80.00,89.11,0
62.00,88.84,0
70.00,87.95,0
56.00,86.50,0
35.00,84.32,0
34.00,81.20,0
46.00,77.39,0
38.00,73.28,0
44.00,69.11,0
42.00,65.04,0
73.00,61.46,0
79.00,58.92,0
64.00,57.47,0
66.00,56.73,0
73.00,56.52,0
108.00,57.14,0
77.00,58.77,0
96.00,61.02,0
72.00,63.53,0
80.00,65.98,0
83.00,68.27,0
177.00,71.25,0
107.00,75.65,0
99.00,80.56,0
67.00,84.70,0
109.00,87.88,0
100.00,90.56,0
85.00,92.87,0
68.00,94.34,0
41.00,94.51,0
65.00,93.27,0
114.00,91.61,0
36.00,90.03,0
55.00,87.83,0
51.00,84.89,0
37.00,81.45,0
42.00,77.52,0
59.00,73.45,0
38.00,69.57,0
77.00,66.07,0
60.00,63.31,0
71.00,61.33,0
64.00,60.00,0
62.00,59.17,0
105.00,59.00,0
67.00,59.72,0
90.00,61.01,0
60.00,62.51,0
98.00,64.13,0
101.00,66.19,0
81.00,68.73,0
65.00,71.09,0
83.00,72.97,0
72.00,74.49,0
139.00,76.20,0
60.00,78.38,0
65.00,80.12,0
70.00,80.94,0
46.00,80.96,0
66.00,80.18,0
75.00,79.04,0
49.00,77.75,0
38.00,75.93,0
50.00,73.50,0
38.00,70.67,0
36.00,67.53,0
59.00,64.31,0
52.00,61.43,0
49.00,58.97,0
53.00,56.83,0
86.00,55.31,0
40.00,54.52,0
47.00,53.88,0
160.00,54.03,0
58.00,55.87,0
98.00,58.53,0
74.00,61.32,0
102.00,64.29,0
67.00,67.28,0
96.00,70.07,0
37.00,72.32,0
76.00,73.66,0
76.00,74.43,0
78.00,75.09,0
81.00,75.70,0
70.00,76.22,0
89.00,76.65,0
58.00,76.98,0
67.00,76.93,0
89.00,76.67,0
37.00,76.28,0
45.00,75.17,0
57.00,73.37,0
40.00,71.23,0
50.00,68.79,0
76.00,66.45,0
49.00,64.55,0
64.00,62.94,0
65.00,61.63,0
86.00,60.92,0
68.00,60.89,0
69.00,61.25,0
57.00,61.67,0
65.00,62.00,0
94.00,62.53,0
76.00,63.57,0
71.00,64.89,0
55.00,66.01,0
78.00,66.81,0
73.00,67.56,0
90.00,68.49,0
83.00,69.70,0
97.00,71.24,0
83.00,73.03,0
68.00,74.72,0
81.00,76.01,0
44.00,76.74,0
66.00,76.69,0
43.00,75.93,0
48.00,74.49,0
106.00,72.95,0
55.00,71.97,0
37.00,70.94,0
90.00,69.62,0
38.00,68.42,0
47.00,67.00,0
42.00,65.16,0
68.00,63.25,0
62.00,61.69,0
56.00,60.51,0
64.00,59.58,0
44.00,58.79,0
58.00,57.99,0
92.00,57.54,0
39.00,57.62,0
82.00,57.86,0
64.00,58.34,0
103.00,59.35,0
79.00,61.05,0
123.00,63.49,0
40.00,66.26,0
106.00,68.73,0
80.00,71.08,0
110.00,73.62,0
60.00,76.09,0
109.00,78.25,0
46.00,79.98,0
68.00,80.88,0
68.00,80.96,0
42.00,80.37,0
48.00,78.92,0
77.00,76.99,0
42.00,74.99,0
35.00,72.61,0
84.00,70.03,0
51.00,67.85,0
36.00,65.78,0
52.00,63.49,0
44.00,61.16,0
67.00,59.09,0
46.00,57.41,0
86.00,56.26,0
57.00,55.79,0
76.00,55.88,0
88.00,56.56,0
52.00,57.71,0
104.00,59.13,0
68.00,60.96,0
101.00,63.15,0
86.00,65.67,0
93.00,68.44,0
53.00,70.97,0
92.00,72.95,0
71.00,74.59,0
83.00,75.99,0
65.00,77.04,0
55.00,77.50,0
70.00,77.31,0
78.00,76.87,0
57.00,76.33,0
48.00,75.38,0
42.00,73.78,0
43.00,71.57,0
45.00,68.96,0
36.00,66.09,0
40.00,63.02,0
42.00,59.92,0
62.00,57.11,0
73.00,55.07,0
42.00,53.76,0
66.00,52.83,0
82.00,52.50,0
74.00,53.03,0
116.00,54.52,0
60.00,56.88,0
75.00,59.37,0
64.00,61.56,0
94.00,63.64,0
99.00,66.03,0
180.00,69.56,0
87.00,74.46,0
78.00,79.29,0
79.00,83.01,0
85.00,85.75,0
89.00,87.80,0
100.00,89.44,0
53.00,90.57,0
69.00,90.70,0
69.00,89.95,0
72.00,88.72,0
51.00,87.03,0
79.00,84.96,0
38.00,82.61,0
38.00,79.69,0
86.00,76.50,0
46.00,73.66,0
37.00,70.84,0
54.00,67.80,0
53.00,64.88,0
89.00,62.58,0
104.00,61.53,0
72.00,61.75,0
50.00,62.34,0
74.00,62.76,0
91.00,63.39,0
80.00,64.55,0
99.00,66.18,0
88.00,68.26,0
96.00,70.65,0
70.00,73.02,0
99.00,75.17,0
89.00,77.28,0
81.00,79.28,0
62.00,80.77,0
77.00,81.57,0
52.00,81.69,0
67.00,81.13,0
39.00,79.88,0
76.00,78.12,0
62.00,76.29,0
55.00,74.48,0
42.00,72.41,0
52.00,70.03,0
61.00,67.61,0
35.00,65.26,0
47.00,62.80,0
35.00,60.20,0
57.00,57.68,0
65.00,55.63,0
56.00,54.24,0
65.00,53.39,0
85.00,53.22,0
76.00,53.91,0
89.00,55.34,0
81.00,57.36,0
97.00,59.89,0
82.00,62.78,0
103.00,65.90,0
76.00,69.11,0
78.00,72.02,0
81.00,74.44,0
102.00,76.64,0
98.00,78.95,0
103.00,81.40,0
58.00,83.57,0
67.00,84.81,0
76.00,85.17,0
43.00,84.79,0
36.00,83.34,0
41.00,80.76,0
44.00,77.47,0
73.00,74.08,0
44.00,70.99,0
37.00,67.94,0
37.00,64.65,0
52.00,61.36,0
44.00,58.36,0
36.00,55.61,0
44.00,53.00,0
57.00,50.76,0
72.00,49.28,0
64.00,48.72,0
87.00,49.05,0
51.00,50.06,0
104.00,51.60,0
84.00,53.89,0
62.00,56.61,0
72.00,59.12,0
92.00,61.53,0
73.00,64.05,0
135.00,66.93,0
67.00,70.29,0
80.00,73.41,0
67.00,75.79,0
75.00,77.47,0
63.00,78.51,0
65.00,78.91,0
99.00,79.02,0
49.00,79.06,0
54.00,78.56,0
51.00,77.31,0
71.00,75.67,0
39.00,73.84,0
45.00,71.62,0
39.00,68.95,0
40.00,66.00,0
59.00,63.04,0
40.00,60.34,0
38.00,57.77,0
90.00,55.60,0
64.00,54.45,0
79.00,54.22,0
70.00,54.67,0
68.00,55.58,0
38.00,56.45,0
116.00,57.40,0
89.00,59.19,0
124.00,62.05,0
68.00,65.51,0
84.00,68.82,0
38.00,71.33,0
102.00,73.04,0
74.00,74.54,0
63.00,75.80,0
70.00,76.49,0
82.00,76.84,0
90.00,77.24,0
86.00,77.87,0
79.00,78.59,0
54.00,79.01,0
44.00,78.61,0
60.00,77.38,0
58.00,75.73,0
83.00,74.11,0
43.00,72.64,0
51.00,70.93,0
37.00,68.80,0
54.00,66.39,0
42.00,63.90,0
47.00,61.43,0
87.00,59.36,0
72.00,58.25,0
62.00,57.90,0
65.00,57.88,0
105.00,58.40,0
76.00,59.77,0
105.00,61.82,0
56.00,64.16,0
107.00,66.49,0
71.00,68.88,0
79.00,71.13,0
86.00,73.10,0
152.00,75.51,0
91.00,78.82,0
84.00,82.18,0
90.00,84.91,0
72.00,86.94,0
96.00,88.34,0
88.00,89.40,0
73.00,90.09,0
72.00,90.18,0
56.00,89.52,0
51.00,88.01,0
61.00,85.76,0
56.00,83.12,0
53.00,80.23,0
38.00,77.04,0
47.00,73.52,0
50.00,69.91,0
53.00,66.51,0
54.00,63.47,0
51.00,60.80,0
52.00,58.49,0
64.00,56.61,0
66.00,55.34,0
117.00,55.13,0
70.00,56.21,0
127.00,58.35,0
102.00,61.55,0
103.00,65.53,0
75.00,69.55,0
110.00,73.31,0
96.00,76.97,0
80.00,80.37,0
83.00,83.09,0
83.00,85.13,0
104.00,86.79,0
51.00,88.00,0
77.00,88.35,0
53.00,87.83,0
71.00,86.62,0
58.00,84.94,0
64.00,82.92,0
36.00,80.48,0
53.00,77.54,0
48.00,74.30,0
35.00,70.90,0
60.00,67.45,0
58.00,64.36,0
35.00,61.62,0
43.00,58.92,0
85.00,56.62,0
54.00,55.22,0
70.00,54.49,0
102.00,54.58,0
46.00,55.49,0
100.00,56.78,0
72.00,58.50,0
76.00,60.52,0
67.00,62.46,0
144.00,64.79,0
90.00,68.10,0
99.00,71.85,0
76.00,75.34,0
82.00,78.25,0
83.00,80.54,0
80.00,82.34,0
61.00,83.49,0
59.00,83.77,0
72.00,83.29,0
72.00,82.44,0
47.00,81.24,0
46.00,79.40,0
62.00,77.04,0
36.00,74.39,0
46.00,71.41,0
42.00,68.19,0
66.00,65.11,0
51.00,62.48,0
40.00,60.14,0
52.00,57.88,0
67.00,55.99,0
62.00,54.76,0
64.00,54.12,0
71.00,54.01,0
110.00,54.75,0
58.00,56.38,0
101.00,58.47,0
78.00,60.92,0
85.00,63.58,0
60.00,66.06,0
86.00,68.15,0
74.00,70.03,0
119.00,72.05,0
86.00,74.49,0
101.00,77.13,0
70.00,79.54,0
72.00,81.33,0
64.00,82.30,0
54.00,82.42,0
59.00,81.68,0
56.00,80.30,0
79.00,78.67,0
36.00,76.90,0
49.00,74.66,0
39.00,71.93,0
49.00,68.93,0
57.00,65.97,0
40.00,63.22,0
59.00,60.66,0
52.00,58.44,0
55.00,56.63,0
75.00,55.34,0
77.00,54.86,0
76.00,55.21,0
108.00,56.43,0
132.00,59.01,0
85.00,62.80,0
90.00,66.83,0
68.00,70.45,0
82.00,73.41,0
84.00,75.84,0
82.00,77.93,0
85.00,79.69,0
89.00,81.21,0
62.00,82.37,0
105.00,83.15,0
78.00,83.89,0
87.00,84.56,0
89.00,85.09,0
47.00,85.25,0
35.00,84.36,0
49.00,82.27,0
41.00,79.40,0
37.00,75.99,0
47.00,72.22,0
42.00,68.41,0
47.00,64.71,0
36.00,61.19,0
45.00,57.84,0
71.00,55.02,0
61.00,53.11,0
65.00,52.03,0
70.00,51.65,0
111.00,52.27,0
102.00,54.28,0
94.00,57.38,0
79.00,60.89,0
82.00,64.30,0
82.00,67.45,0
83.00,70.34,0
110.00,73.16,0
64.00,75.92,0
87.00,78.19,0
70.00,79.88,0
84.00,81.10,0
81.00,81.97,0
111.00,82.87,0
64.00,83.86,0
61.00,84.31,0
53.00,83.84,0
44.00,82.45,0
40.00,80.15,0
41.00,77.12,0
38.00,73.59,0
51.00,69.85,0
41.00,66.21,0
48.00,62.74,0
36.00,59.46,0
60.00,56.49,0
71.00,54.24,0
80.00,53.06,0
48.00,52.73,0
61.00,52.69,0
88.00,53.05,0
59.00,54.01,0
79.00,55.32,0
77.00,56.91,0
96.00,58.95,0
50.00,61.20,0
71.00,63.09,0
99.00,64.85,0
74.00,66.87,0
73.00,68.84,0
87.00,70.61,0
70.00,72.23,0
64.00,73.48,0
81.00,74.31,0
50.00,74.76,0
50.00,74.55,0
82.00,73.84,0
70.00,73.21,0
49.00,72.55,0
52.00,71.47,0
52.00,69.97,0
36.00,68.11,0
57.00,65.94,0
39.00,63.68,0
82.00,61.64,0
105.00,60.61,0
82.00,60.90,0
41.00,61.66,0
72.00,62.16,0
76.00,62.64,0
87.00,63.50,0
98.00,64.94,0
87.00,66.94,0
88.00,69.23,0
71.00,71.44,0
88.00,73.39,0
86.00,75.19,0
92.00,76.99,0
78.00,78.68,0
75.00,80.04,0
69.00,80.89,0
81.00,81.28,0
90.00,81.55,0
69.00,81.78,0
77.00,81.78,0
58.00,81.39,0
72.00,80.59,0
43.00,79.35,0
48.00,77.48,0
66.00,75.20,0
42.00,72.81,0
39.00,70.16,0
65.00,67.35,0
46.00,64.76,0
38.00,62.26,0
74.00,59.93,0
37.00,58.02,0
63.00,56.39,0
95.00,55.42,0
69.00,55.52,0
108.00,56.58,0
68.00,58.43,0
74.00,60.54,0
58.00,62.41,0
129.00,64.40,0
87.00,67.11,0
92.00,70.22,0
70.00,73.07,0
110.00,75.66,0
58.00,77.99,0
76.00,79.68,0
80.00,80.74,0
75.00,81.44,0
62.00,81.69,0
58.00,81.32,0
60.00,80.31,0
47.00,78.75,0
69.00,76.80,0
51.00,74.73,0
34.00,72.39,0
61.00,69.70,0
38.00,66.96,0
36.00,64.09,0
45.00,61.07,0
41.00,58.13,0
39.00,55.35,0
86.00,53.11,0
43.00,51.74,0
58.00,50.89,0
75.00,50.50,0
80.00,50.91,0
83.00,52.18,0
49.00,53.85,0
98.00,55.65,0
73.00,57.80,0
102.00,60.39,0
88.00,63.38,0
83.00,66.54,0
53.00,69.28,0
63.00,71.15,0
72.00,72.30,0
66.00,73.04,0
86.00,73.58,0
68.00,74.08,0
58.00,74.34,0
90.00,74.33,0
62.00,74.35,0
38.00,73.99,0
42.00,72.75,0
54.00,70.86,0
39.00,68.64,0
42.00,66.13,0
57.00,63.52,0
51.00,61.14,0
45.00,59.00,0
67.00,57.15,0
58.00,55.81,0
77.00,55.09,0
95.00,55.27,0
72.00,56.38,0
93.00,58.12,0
69.00,60.22,0
92.00,62.50,0
35.00,64.54,0
94.00,66.08,0
80.00,67.57,0
102.00,69.41,0
64.00,71.39,0
72.00,73.03,0
78.00,74.23,0
112.00,75.49,0
72.00,77.05,0
94.00,78.58,0
66.00,79.84,0
55.00,80.48,0
56.00,80.23,0
48.00,79.15,0
51.00,77.40,0
41.00,75.09,0
38.00,72.26,0
55.00,69.15,0
42.00,66.08,0
51.00,63.12,0
47.00,60.37,0
60.00,57.98,0
71.00,56.21,0
72.00,55.27,0
56.00,54.97,0
69.00,55.02,0
73.00,55.44,0
62.00,56.21,0
91.00,57.33,0
90.00,59.04,0
98.00,61.44,0
84.00,64.30,0
84.00,67.23,0
78.00,69.97,0
82.00,72.39,0
104.00,74.70,0
69.00,76.96,0
76.00,78.75,0
75.00,79.96,0
70.00,80.68,0
94.00,81.11,0
65.00,81.43,0
70.00,81.41,0
60.00,80.90,0
55.00,79.86,0
35.00,78.12,0
84.00,75.95,0
36.00,73.77,0
35.00,71.25,0
83.00,68.54,0
44.00,66.25,0
46.00,64.11,0
62.00,61.99,0
51.00,60.17,0
80.00,58.81,0
109.00,58.47,0
61.00,59.25,0
93.00,60.55,0
70.00,62.17,0
97.00,64.07,0
84.00,66.27,0
127.00,68.99,0
76.00,72.22,0
90.00,75.33,0
78.00,77.96,0
78.00,80.07,0
79.00,81.61,0
116.00,82.99,0
79.00,84.52,0
63.00,85.67,0
78.00,86.05,0
49.00,85.71,0
37.00,84.36,0
51.00,81.99,0
42.00,78.98,0
40.00,75.54,0
49.00,71.82,0
37.00,68.08,0
34.00,64.28,0
65.00,60.67,0
92.00,58.04,0
59.00,56.67,0
93.00,56.26,0
68.00,56.69,0
82.00,57.71,0
76.00,59.12,0
78.00,60.82,0
72.00,62.61,0
111.00,64.65,0
83.00,67.18,0
77.00,69.80,0
70.00,72.03,0
93.00,73.90,0
68.00,75.55,0
132.00,77.30,0
78.00,79.46,0
84.00,81.55,0
72.00,83.07,0
76.00,83.99,0
79.00,84.42,0
55.00,84.34,0
86.00,83.77,0
38.00,82.75,0
88.00,81.32,0
49.00,79.71,0
46.00,77.77,0
34.00,75.17,0
48.00,72.06,0
37.00,68.69,0
50.00,65.28,0
52.00,62.10,0
46.00,59.28,0
62.00,56.88,0
61.00,55.08,0
88.00,54.14,0
67.00,54.14,0
78.00,54.84,0
65.00,55.94,0
82.00,57.32,0
117.00,59.34,0
84.00,62.21,0
79.00,65.35,0
68.00,68.13,0
81.00,70.44,0
69.00,72.34,0
90.00,73.95,0
44.00,75.14,0
76.00,75.66,0
71.00,75.77,0
54.00,75.59,0
76.00,75.07,0
50.00,74.30,0
59.00,73.21,0
41.00,71.68,0
47.00,69.70,0
60.00,67.51,0
37.00,65.30,0
62.00,63.08,0
35.00,60.93,0
64.00,58.90,0
77.00,57.39,0
67.00,56.71,0
56.00,56.52,0
70.00,56.57,0
66.00,56.90,0
86.00,57.65,0
84.00,58.98,0
67.00,60.70,0
101.00,62.63,0
76.00,64.88,0
68.00,67.09,0
68.00,68.87,0
79.00,70.29,0
93.00,71.67,0
89.00,73.29,0
79.00,74.99,0
81.00,76.51,0
75.00,77.74,0
66.00,78.56,0
54.00,78.75,0
69.00,78.30,0
63.00,77.48,0
48.00,76.31,0
38.00,74.52,0
85.00,72.43,0
40.00,70.49,0
35.00,68.35,0
57.00,65.84,0
48.00,63.39,0
63.00,61.21,0
55.00,59.43,0
78.00,58.18,0
44.00,57.42,0
112.00,57.24,0
65.00,57.96,0
80.00,59.26,0
61.00,60.66,0
90.00,62.13,0
74.00,63.79,0
87.00,65.63,0
124.00,67.92,0
74.00,70.80,0
71.00,73.48,0
125.00,75.90,0
84.00,78.58,0
122.00,81.44,0
74.00,84.25,0
66.00,86.38,0
69.00,87.41,0
91.00,87.75,0
61.00,87.68,0
105.00,87.36,0
52.00,86.90,0
46.00,85.77,0
65.00,83.81,0
44.00,81.38,0
36.00,78.40,0
83.00,75.19,0
40.00,72.27,0
40.00,69.33,0
121.00,66.80,0
36.00,65.30,0
52.00,64.02,0
54.00,62.54,0
83.00,61.35,0
83.00,60.92,0
78.00,61.29,0
73.00,62.11,0
90.00,63.28,0
78.00,64.81,0
118.00,66.84,0
41.00,69.11,0
79.00,70.85,0
88.00,72.21,0
64.00,73.49,0
76.00,74.44,0
102.00,75.33,0
55.00,76.29,0
71.00,76.83,0
66.00,76.87,0
56.00,76.50,0
63.00,75.69,0
40.00,74.39,0
64.00,72.66,0
76.00,70.96,0
46.00,69.49,0
58.00,67.94,0
36.00,66.15,0
40.00,64.02,0
42.00,61.57,0
60.00,59.20,0
36.00,57.08,0
67.00,55.22,0
116.00,54.34,0
92.00,55.11,0
70.00,56.95,0
64.00,58.90,0
71.00,60.66,0
86.00,62.41,0
140.00,64.84,0
90.00,68.31,0
113.00,72.27,0
67.00,76.05,0
93.00,79.22,0
70.00,81.68,0
118.00,83.75,0
85.00,85.78,0
92.00,87.63,0
57.00,88.84,0
64.00,89.06,0
61.00,88.31,0
76.00,86.98,0
66.00,85.41,0
52.00,83.54,0
34.00,81.04,0
62.00,77.97,0
37.00,74.67,0
39.00,71.14,0
54.00,67.51,0
40.00,64.06,0
60.00,60.92,0
48.00,58.25,0
48.00,55.97,0
74.00,54.20,0
62.00,53.19,0
85.00,53.01,0
84.00,53.74,0
73.00,55.22,0
119.00,57.40,0
71.00,60.33,0
82.00,63.38,0
79.00,66.21,0
112.00,69.08,0
86.00,72.18,0
88.00,75.23,0
73.00,77.83,0
107.00,80.05,0
65.00,82.00,0
117.00,83.70,0
75.00,85.31,0
44.00,86.29,0
76.00,86.15,0
78.00,85.46,0
62.00,84.55,0
63.00,83.25,0
38.00,81.37,0
35.00,78.69,0
76.00,75.58,0
46.00,72.64,0
62.00,69.90,0
69.00,67.49,0
66.00,65.62,0
81.00,64.37,0
110.00,64.08,0
76.00,64.86,0
79.00,66.13,0
75.00,67.47,0
77.00,68.79,0
69.00,69.98,0
156.00,71.63,0
88.00,74.40,0
91.00,77.54,0
57.00,80.06,0
74.00,81.64,0
73.00,82.43,0
63.00,82.63,0
87.00,82.42,0
112.00,82.42,0
37.00,82.57,0
74.00,82.10,0
86.00,81.27,0
47.00,80.38,0
39.00,78.85,0
58.00,76.59,0
44.00,73.98,0
54.00,71.20,0
42.00,68.34,0
42.00,65.40,0
40.00,62.36,0
71.00,59.59,0
66.00,57.56,0
50.00,56.21,0
64.00,55.22,0
55.00,54.57,0
39.00,54.04,0
39.00,53.26,0
75.00,52.50,0
96.00,52.54,0
80.00,53.72,0
86.00,55.67,0
129.00,58.46,0
104.00,62.35,0
77.00,66.67,0
72.00,70.47,0
66.00,73.41,0
79.00,75.54,0
120.00,77.51,0
94.00,79.86,0
59.00,82.05,0
62.00,83.26,0
61.00,83.44,0
52.00,82.78,0
58.00,81.38,0
33.00,79.28,0
50.00,76.51,0
49.00,73.37,0
58.00,70.27,0
40.00,67.28,0
59.00,64.41,0
44.00,61.77,0
48.00,59.34,0
62.00,57.19,0
54.00,55.54,0
68.00,54.42,0
60.00,53.83,0
68.00,53.72,0
74.00,54.09,0
92.00,55.13,0
69.00,56.80,0
103.00,58.95,0
76.00,61.53,0
83.00,64.25,0
61.00,66.70,0
159.00,69.37,0
132.00,73.31,0
64.00,77.91,0
52.00,81.41,0
97.00,83.55,0
98.00,85.27,0
60.00,86.67,0
50.00,87.08,0
38.00,86.17,0
74.00,84.28,0
44.00,81.97,0
38.00,79.15,0
86.00,76.09,0
40.00,73.32,0
42.00,70.51,0
125.00,68.10,0
83.00,67.11,0
56.00,67.01,0
67.00,66.88,0
66.00,66.69,0
66.00,66.53,0
86.00,66.55,0
43.00,66.70,0
81.00,66.69,0
77.00,66.81,0
85.00,67.34,0
69.00,68.13,0
108.00,69.21,0
66.00,70.64,0
71.00,71.96,0
80.00,72.97,0
130.00,74.31,0
77.00,76.31,0
71.00,78.25,0
81.00,79.61,0
43.00,80.30,0
71.00,80.13,0
69.00,79.45,0
45.00,78.41,0
63.00,76.86,0
54.00,75.00,0
46.00,72.90,0
49.00,70.51,0
55.00,68.00,0
36.00,65.46,0
66.00,62.96,0
39.00,60.68,0
70.00,58.72,0
64.00,57.29,0
77.00,56.58,0
48.00,56.38,0
69.00,56.36,0
103.00,56.86,0
72.00,58.25,0
101.00,60.25,0
70.00,62.62,0
70.00,64.92,0
84.00,66.95,0
84.00,68.94,0
74.00,70.87,0
78.00,72.55,0
58.00,73.82,0
73.00,74.54,0
72.00,74.91,0
49.00,74.91,0
65.00,74.38,0
38.00,73.31,0
69.00,71.81,0
62.00,70.26,0
57.00,68.83,0
50.00,67.34,0
35.00,65.56,0
35.00,63.33,0
42.00,60.75,0
41.00,58.10,0
48.00,55.59,0
92.00,53.73,0
45.00,52.84,0
64.00,52.44,0
58.00,52.32,0
63.00,52.51,0
111.00,53.36,0
88.00,55.33,0
106.00,58.24,0
73.00,61.62,0
86.00,64.95,0
84.00,68.05,0
147.00,71.46,0
113.00,75.77,0
83.00,80.31,0
75.00,84.04,0
65.00,86.54,0
88.00,88.00,0
77.00,88.83,0
45.00,88.89,0
47.00,87.77,0
80.00,85.83,0
37.00,83.54,0
39.00,80.62,0
47.00,77.07,0
54.00,73.38,0
36.00,69.73,0
52.00,66.11,0
48.00,62.73,0
43.00,59.67,0
58.00,56.96,0
49.00,54.73,0
50.00,52.93,0
63.00,51.57,0
77.00,50.92,0
69.00,51.10,0
70.00,51.91,0
120.00,53.54,0
98.00,56.37,0
96.00,60.06,0
74.00,63.90,0
126.00,67.77,0
90.00,71.89,0
78.00,75.83,0
80.00,79.00,0
109.00,81.67,0
88.00,84.19,0
63.00,86.19,0
78.00,87.29,0
40.00,87.37,0
43.00,86.21,0
52.00,83.93,0
37.00,80.95,0
72.00,77.65,0
49.00,74.47,0
35.00,71.29,0
95.00,68.28,0
44.00,65.96,0
47.00,63.92,0
70.00,61.97,0
50.00,60.40,0
94.00,59.40,0
52.00,59.06,0
65.00,59.03,0
84.00,59.25,0
69.00,59.96,0
83.00,61.03,0
98.00,62.57,0
87.00,64.70,0
82.00,67.11,0
104.00,69.65,0
86.00,72.39,0
96.00,75.15,0
93.00,77.84,0
86.00,80.34,0
82.00,82.46,0
48.00,83.80,0
72.00,84.12,0
65.00,83.71,0
93.00,83.06,0
42.00,82.25,0
71.00,80.96,0
67.00,79.39,0
35.00,77.54,0
46.00,75.10,0
50.00,72.22,0
36.00,69.14,0
45.00,65.89,0
52.00,62.73,0
54.00,59.92,0
59.00,57.62,0
39.00,55.72,0
74.00,54.17,0
92.00,53.52,0
73.00,53.98,0
78.00,55.16,0
75.00,56.75,0
90.00,58.71,0
94.00,61.14,0
92.00,64.02,0
97.00,67.20,0
106.00,70.63,0
110.00,74.37,0
79.00,78.10,0
67.00,81.12,0
98.00,83.31,0
86.00,85.10,0
53.00,86.32,0
60.00,86.48,0
84.00,85.88,0
50.00,84.88,0
82.00,83.50,0
38.00,81.79,0
36.00,79.38,0
71.00,76.43,0
49.00,73.53,0
40.00,70.62,0
59.00,67.64,0
55.00,64.89,0
54.00,62.50,0
65.00,60.50,0
86.00,59.22,0
49.00,58.64,0
67.00,58.35,0
71.00,58.29,0
55.00,58.51,0
79.00,58.88,0
84.00,59.68,0
77.00,60.99,0
102.00,62.78,0
77.00,65.02,0
76.00,67.32,0
106.00,69.61,0
74.00,72.04,0
81.00,74.28,0
72.00,76.07,0
87.00,77.49,0
59.00,78.53,0
72.00,79.02,0
35.00,78.73,0
50.00,77.50,0
65.00,75.65,0
61.00,73.73,0
63.00,71.90,0
38.00,70.00,0
37.00,67.68,0
57.00,65.09,0
66.00,62.76,0
41.00,60.82,0
77.00,59.19,0
42.00,57.95,0
100.00,57.25,0
69.00,57.40,0
104.00,58.44,0
76.00,60.22,0
112.00,62.62,0
82.00,65.54,0
62.00,68.39,0
86.00,70.71,0
112.00,72.99,0
64.00,75.41,0
105.00,77.61,0
76.00,79.60,0
91.00,81.36,0
70.00,82.72,0
69.00,83.50,0
52.00,83.47,0
91.00,82.87,0
85.00,82.32,0
112.00,82.26,0
59.00,82.54,0
50.00,82.34,0
38.00,81.09,0
70.00,79.08,0
39.00,76.74,0
38.00,73.96,0
120.00,71.35,0
56.00,69.77,0
49.00,68.59,0
71.00,67.28,0
51.00,66.06,0
52.00,64.81,0
104.00,63.86,0
73.00,63.77,0
74.00,64.29,0
72.00,64.97,0
120.00,66.14,0
96.00,68.22,0
156.00,71.40,0
83.00,75.52,0
109.00,79.71,0
75.00,83.37,0
115.00,86.48,0
84.00,89.20,0
100.00,91.49,0
82.00,93.23,0
75.00,94.27,0
65.00,94.40,0
46.00,93.44,0
57.00,91.38,0
91.00,88.88,0
44.00,86.38,0
76.00,83.73,0
66.00,81.12,0
37.00,78.47,0
36.00,75.32,0
72.00,71.93,0
39.00,68.79,0
50.00,65.78,0
50.00,62.88,0
69.00,60.41,0
46.00,58.47,0
70.00,56.97,0
74.00,56.10,0
73.00,55.99,0
82.00,56.54,0
71.00,57.64,0
128.00,59.48,0
44.00,61.98,0
83.00,64.31,0
57.00,66.15,0
77.00,67.64,0
77.00,68.91,0
112.00,70.44,0
55.00,72.21,0
73.00,73.61,0
77.00,74.54,0
82.00,75.33,0
82.00,76.12,0
53.00,76.67,0
72.00,76.70,0
60.00,76.31,0
52.00,75.52,0
87.00,74.48,0
44.00,73.47,0
38.00,72.03,0
41.00,69.89,0
48.00,67.33,0
45.00,64.67,0
58.00,62.14,0
52.00,59.91,0
77.00,58.22,0
146.00,57.91,0
103.00,59.67,0
72.00,62.54,0
68.00,65.26,0
88.00,67.61,0
91.00,69.94,0
148.00,72.84,0
77.00,76.48,0
123.00,80.22,0
78.00,83.73,0
90.00,86.67,0
43.00,88.54,0
127.00,89.53,0
86.00,90.48,0
54.00,91.14,0
71.00,90.82,0
66.00,89.73,0
74.00,88.22,0
44.00,86.30,0
46.00,83.70,0
37.00,80.39,0
66.00,76.76,0
45.00,73.23,0
35.00,69.69,0
35.00,65.95,0
37.00,62.10,0
72.00,58.61,0
84.00,56.22,0
84.00,55.21,0
45.00,55.07,0
72.00,55.18,0
53.00,55.44,0
49.00,55.68,0
130.00,56.35,0
83.00,58.23,0
74.00,60.79,0
76.00,63.27,0
76.00,65.55,0
64.00,67.54,0
113.00,69.43,0
80.00,71.64,0
94.00,73.98,0
60.00,76.02,0
80.00,77.49,0
66.00,78.40,0
104.00,79.12,0
43.00,79.67,0
41.00,79.36,0
55.00,77.99,0
52.00,76.06,0
49.00,73.80,0
72.00,71.47,0
44.00,69.29,0
40.00,67.00,0
91.00,64.82,0
49.00,63.26,0
39.00,61.87,0
66.00,60.36,0
51.00,59.05,0
70.00,58.07,0
119.00,57.97,0
42.00,58.88,0
79.00,59.95,0
67.00,61.00,0
95.00,62.32,0
104.00,64.25,0
122.00,67.10,0
85.00,70.62,0
90.00,74.12,0
79.00,77.17,0
90.00,79.73,0
84.00,81.88,0
51.00,83.36,0
96.00,84.06,0
70.00,84.40,0
36.00,84.12,0
70.00,82.87,0
46.00,81.02,0
44.00,78.64,0
43.00,75.70,0
47.00,72.43,0
34.00,68.96,0
63.00,65.52,0
41.00,62.40,0
41.00,59.50,0
55.00,56.80,0
38.00,54.44,0
60.00,52.42,0
64.00,50.98,0
49.00,50.16,0
66.00,49.77,0
100.00,50.14,0
48.00,51.36,0
88.00,52.95,0
78.00,54.89,0
100.00,57.39,0
58.00,60.17,0
87.00,62.80,0
98.00,65.45,0
100.00,68.47,0
54.00,71.41,0
71.00,73.59,0
105.00,75.31,0
68.00,77.01,0
82.00,78.42,0
66.00,79.36,0
67.00,79.78,0
69.00,79.68,0
45.00,79.04,0
47.00,77.65,0
34.00,75.46,0
37.00,72.54,0
40.00,69.15,0
36.00,65.55,0
34.00,61.84,0
48.00,58.24,0
43.00,55.01,0
74.00,52.45,0
70.00,50.93,0
72.00,50.45,0
60.00,50.69,0
59.00,51.26,0
100.00,52.30,0
75.00,54.12,0
106.00,56.65,0
68.00,59.65,0
114.00,62.89,0
68.00,66.28,0
102.00,69.58,0
77.00,72.67,0
106.00,75.60,0
100.00,78.55,0
81.00,81.39,0
63.00,83.54,0
79.00,84.78,0
48.00,85.14,0
72.00,84.64,0
91.00,83.81,0
45.00,82.87,0
69.00,81.49,0
55.00,79.71,0
35.00,77.49,0
76.00,74.91,0
40.00,72.35,0
55.00,69.75,0
78.00,67.36,0
51.00,65.48,0
49.00,63.78,0
72.00,62.21,0
48.00,60.95,0
81.00,60.03,0
114.00,60.03,0
62.00,61.11,0
84.00,62.56,0
46.00,63.88,0
88.00,64.96,0
73.00,66.06,0
151.00,67.91,0
86.00,70.88,0
94.00,74.24,0
76.00,77.23,0
110.00,79.89,0
82.00,82.40,0
89.00,84.58,0
62.00,86.09,0
51.00,86.58,0
60.00,85.94,0
56.00,84.48,0
55.00,82.45,0
56.00,80.02,0
52.00,77.34,0
39.00,74.38,0
46.00,71.13,0
45.00,67.76,0
35.00,64.38,0
57.00,61.10,0
42.00,58.17,0
55.00,55.64,0
86.00,53.85,0
57.00,53.05,0
50.00,52.76,0
66.00,52.63,0
73.00,52.91,0
73.00,53.73,0
127.00,55.43,0
88.00,58.33,0
79.00,61.76,0
69.00,64.93,0
74.00,67.60,0
89.00,69.92,0
127.00,72.50,0
90.00,75.64,0
67.00,78.62,0
79.00,80.79,0
82.00,82.30,0
71.00,83.33,0
86.00,83.91,0
53.00,84.03,0
54.00,83.38,0
71.00,82.05,0
73.00,80.55,0
42.00,78.88,0
78.00,76.96,0
50.00,74.99,0
37.00,72.80,0
86.00,70.47,0
40.00,68.42,0
37.00,66.28,0
66.00,63.95,0
67.00,62.02,0
48.00,60.55,0
102.00,59.62,0
63.00,59.54,0
105.00,60.26,0
70.00,61.66,0
89.00,63.45,0
75.00,65.37,0
142.00,67.83,0
64.00,70.95,0
87.00,73.93,0
92.00,76.47,0
78.00,78.76,0
68.00,80.51,0
110.00,81.85,0
77.00,83.19,0
55.00,84.09,0
68.00,84.10,0
78.00,83.56,0
64.00,82.77,0
67.00,81.68,0
67.00,80.35,0
45.00,78.71,0
73.00,76.76,0
43.00,74.68,0
36.00,72.24,0
65.00,69.48,0
61.00,66.97,0
57.00,64.86,0
120.00,63.55,0
84.00,63.60,0
52.00,64.35,0
63.00,64.87,0
72.00,65.18,0
77.00,65.61,0
127.00,66.69,0
74.00,68.65,0
105.00,71.01,0
76.00,73.43,0
48.00,75.36,0
77.00,76.39,0
151.00,77.56,0
61.00,79.52,0
94.00,81.41,0
70.00,82.80,0
60.00,83.54,0
62.00,83.43,0
93.00,82.88,0
54.00,82.21,0
55.00,81.10,0
75.00,79.55,0
49.00,77.84,0
44.00,75.76,0
97.00,73.61,0
36.00,71.81,0
39.00,69.78,0
72.00,67.48,0
53.00,65.44,0
36.00,63.50,0
66.00,61.50,0
55.00,59.80,0
42.00,58.33,0
98.00,57.24,0
90.00,57.22,0
79.00,58.28,0
74.00,59.82,0
75.00,61.51,0
78.00,63.25,0
130.00,65.47,0
92.00,68.55,0
100.00,72.04,0
62.00,75.24,0
104.00,77.90,0
91.00,80.32,0
96.00,82.67,0
56.00,84.52,0
55.00,85.30,0
64.00,84.98,0
134.00,84.55,0
62.00,84.68,0
67.00,84.67,0
44.00,83.85,0
49.00,82.13,0
35.00,79.59,0
52.00,76.45,0
42.00,73.03,0
38.00,69.45,0
39.00,65.73,0
49.00,62.10,0
55.00,58.87,0
64.00,56.32,0
56.00,54.48,0
44.00,53.11,0
118.00,52.47,0
65.00,53.10,0
76.00,54.50,0
61.00,56.05,0
113.00,57.96,0
80.00,60.52,0
133.00,63.82,0
82.00,67.77,0
92.00,71.74,0
60.00,75.08,0
96.00,77.68,0
51.00,79.59,0
153.00,81.32,0
72.00,83.48,0
88.00,85.55,0
64.00,86.86,0
42.00,87.13,0
80.00,86.32,0
97.00,85.33,0
61.00,84.52,0
47.00,83.32,0
51.00,81.35,0
36.00,78.70,0
40.00,75.42,0
50.00,71.81,0
36.00,68.14,0
55.00,64.57,0
65.00,61.46,0
58.00,59.07,0
73.00,57.40,0
58.00,56.41,0
106.00,56.21,0
60.00,56.94,0
96.00,58.28,0
73.00,60.05,0
67.00,61.97,0
82.00,63.76,0
92.00,65.69,0
116.00,68.14,0
106.00,71.31,0
127.00,75.12,0
93.00,79.27,0
91.00,83.14,0
119.00,86.59,0
50.00,89.48,0
91.00,91.28,0
50.00,91.96,0
50.00,91.43,0
56.00,89.70,0
45.00,87.11,0
42.00,83.83,0
