38.00,40.19,0
43.00,40.12,0
40.00,40.09,0
42.00,40.11,0
40.00,40.16,0
39.00,40.20,0
40.00,40.20,0
40.00,40.19,0
41.00,40.19,0
40.00,40.19,0
39.00,40.19,0
40.00,40.16,0
41.00,40.14,0
39.00,40.13,0
40.00,40.10,0
40.00,40.07,0
40.00,40.05,0
40.00,40.03,0
40.00,40.01,0
40.00,40.00,0
41.00,40.00,0
40.00,40.01,0
40.00,40.03,0
40.00,40.05,0
40.00,40.05,0
40.00,40.06,0
39.00,40.05,0
40.00,40.03,0
38.00,39.99,0
41.00,39.93,0
40.00,39.89,0
39.00,39.86,0
40.00,39.83,0
39.00,39.79,0
39.00,39.75,0
40.00,39.70,0
40.00,39.66,0
40.00,39.64,0
43.00,39.67,0
40.00,39.74,0
37.00,39.81,0
40.00,39.82,0
38.00,39.79,0
40.00,39.74,0
39.00,39.69,0
42.00,39.66,0
44.00,39.71,0
40.00,39.84,0
40.00,39.97,0
43.00,40.10,0
40.00,40.24,0
39.00,40.36,0
40.00,40.42,0
39.00,40.44,0
39.00,40.41,0
40.00,40.35,0
39.00,40.28,0
39.00,40.19,0
40.00,40.09,0
40.00,40.00,0
40.00,39.94,0
35.00,39.85,0
40.00,39.70,0
39.00,39.55,0
43.00,39.46,0
40.00,39.45,0
40.00,39.48,0
41.00,39.54,0
40.00,39.61,0
39.00,39.68,0
39.00,39.71,0
42.00,39.74,0
39.00,39.79,0
40.00,39.83,0
43.00,39.89,0
41.00,39.99,0
43.00,40.13,0
45.00,40.34,0
40.00,40.59,0
54.00,40.92,0
44.00,41.40,0
49.00,41.98,0
51.00,42.63,0
176.00,44.43,0
83.00,48.33,0
66.00,53.07,0
66.00,57.24,0
68.00,60.71,0
101.00,63.85,0
36.00,66.65,0
59.00,68.49,0
39.00,69.21,0
37.00,68.90,0
41.00,67.67,0
38.00,65.81,0
36.00,63.47,0
37.00,60.80,0
35.00,57.97,0
37.00,55.09,0
39.00,52.30,0
38.00,49.72,0
37.00,47.37,0
38.00,45.26,0
40.00,43.42,0
45.00,41.93,0
41.00,40.83,0
44.00,40.06,0
38.00,39.53,0
59.00,39.30,0
36.00,39.42,0
44.00,39.65,0
39.00,39.86,0
40.00,40.04,0
36.00,40.14,0
44.00,40.17,0
36.00,40.19,0
40.00,40.17,0
41.00,40.12,0
40.00,40.10,0
38.00,40.07,0
43.00,40.03,0
42.00,40.06,0
40.00,40.13,0
43.00,40.22,0
40.00,40.34,0
43.00,40.46,0
45.00,40.63,0
40.00,40.85,0
40.00,41.02,0
39.00,41.12,0
38.00,41.12,0
39.00,41.03,0
40.00,40.90,0
40.00,40.76,0
39.00,40.62,0
40.00,40.48,0
39.00,40.34,0
43.00,40.23,0
42.00,40.19,0
39.00,40.21,0
39.00,40.21,0
40.00,40.18,0
38.00,40.12,0
39.00,40.03,0
43.00,39.96,0
36.00,39.91,0
40.00,39.84,0
42.00,39.77,0
40.00,39.76,0
40.00,39.77,0
39.00,39.79,0
40.00,39.79,0
40.00,39.78,0
41.00,39.80,0
40.00,39.83,0
40.00,39.87,0
40.00,39.91,0
40.00,39.94,0
40.00,39.96,0
39.00,39.97,0
42.00,39.98,0
39.00,40.01,0
40.00,40.02,0
40.00,40.03,0
41.00,40.04,0
40.00,40.06,0
41.00,40.10,0
42.00,40.15,0
40.00,40.23,0
40.00,40.30,0
40.00,40.34,0
39.00,40.35,0
42.00,40.35,0
40.00,40.36,0
42.00,40.39,0
39.00,40.43,0
42.00,40.45,0
39.00,40.48,0
39.00,40.47,0
44.00,40.46,0
41.00,40.50,0
38.00,40.55,0
46.00,40.59,0
40.00,40.69,0
40.00,40.79,0
39.00,40.83,0
39.00,40.81,0
41.00,40.75,0
40.00,40.69,0
42.00,40.64,0
36.00,40.59,0
48.00,40.54,0
38.00,40.58,0
42.00,40.63,0
40.00,40.67,0
45.00,40.73,0
34.00,40.79,0
50.00,40.83,0
36.00,40.92,0
43.00,41.00,0
39.00,41.03,0
42.00,41.05,0
37.00,41.02,0
50.00,41.02,0
37.00,41.10,0
47.00,41.22,0
39.00,41.35,0
42.00,41.46,0
39.00,41.51,0
45.00,41.55,0
37.00,41.57,0
39.00,41.52,0
42.00,41.40,0
37.00,41.27,0
39.00,41.09,0
38.00,40.85,0
41.00,40.61,0
38.00,40.40,0
50.00,40.27,0
35.00,40.28,0
45.00,40.32,0
41.00,40.38,0
56.00,40.61,0
36.00,41.01,0
57.00,41.48,0
43.00,42.06,0
61.00,42.80,0
48.00,43.71,0
64.00,44.78,0
47.00,45.95,0
128.00,47.70,0
47.00,50.34,0
104.00,53.37,0
39.00,56.34,0
139.00,59.39,0
40.00,62.68,0
103.00,65.78,0
108.00,68.88,0
111.00,72.52,0
126.00,76.64,0
113.00,81.19,0
77.00,85.50,0
72.00,88.75,0
54.00,90.56,0
40.00,90.75,0
60.00,89.50,0
80.00,87.57,0
76.00,85.66,0
102.00,84.13,0
85.00,83.20,0
103.00,82.85,0
85.00,82.95,0
86.00,83.25,0
103.00,83.70,0
99.00,84.50,0
168.00,86.19,0
98.00,89.05,0
129.00,92.34,0
106.00,95.61,0
122.00,98.76,0
118.00,101.76,0
167.00,105.01,0
99.00,108.56,0
107.00,111.57,0
88.00,113.49,0
93.00,114.31,0
71.00,114.00,0
121.00,112.94,0
67.00,111.54,0
58.00,109.37,0
77.00,106.24,0
48.00,102.51,0
68.00,98.28,0
121.00,94.34,0
48.00,91.19,0
62.00,88.07,0
74.00,84.84,0
53.00,81.74,0
87.00,78.90,0
181.00,77.48,0
170.00,78.95,0
138.00,82.93,0
132.00,87.98,0
135.00,93.35,0
127.00,98.72,0
121.00,103.75,0
171.00,108.60,0
140.00,113.69,0
160.00,118.85,0
129.00,123.71,0
126.00,127.80,0
98.00,130.64,0
124.00,132.16,0
120.00,132.80,0
122.00,132.92,0
76.00,132.24,0
81.00,130.27,0
97.00,127.26,0
52.00,123.46,0
43.00,118.51,0
124.00,113.00,0
71.00,108.07,0
58.00,103.42,0
111.00,98.94,0
71.00,95.16,0
65.00,91.77,0
95.00,88.61,0
123.00,86.40,0
122.00,85.68,0
198.00,87.00,0
141.00,90.55,0
146.00,95.41,0
127.00,100.58,0
100.00,105.31,0
137.00,109.27,0
139.00,112.90,0
127.00,116.41,0
184.00,120.00,0
103.00,123.70,0
136.00,126.77,0
172.00,129.44,0
142.00,132.32,0
105.00,134.78,0
114.00,136.03,0
100.00,136.07,0
120.00,135.19,0
79.00,133.53,0
88.00,130.86,0
110.00,127.53,0
154.00,124.61,0
68.00,122.28,0
88.00,119.58,0
42.00,115.95,0
64.00,111.33,0
115.00,106.48,0
56.00,102.16,0
54.00,97.83,0
182.00,94.17,0
116.00,92.70,0
133.00,93.04,0
186.00,94.91,0
190.00,98.92,0
139.00,104.55,0
117.00,110.21,0
126.00,114.98,0
135.00,118.98,0
127.00,122.40,0
201.00,125.83,0
180.00,130.12,0
147.00,134.95,0
115.00,139.03,0
157.00,141.95,0
211.00,144.76,0
101.00,147.73,0
78.00,149.17,0
112.00,148.39,0
92.00,146.13,0
98.00,142.84,0
66.00,138.55,0
94.00,133.40,0
56.00,127.63,0
81.00,121.41,0
66.00,115.01,0
47.00,108.48,0
74.00,101.87,0
60.00,95.59,0
113.00,90.19,0
109.00,86.37,0
124.00,84.37,0
188.00,84.55,0
182.00,87.56,0
145.00,92.70,0
130.00,98.50,0
121.00,104.01,0
146.00,109.03,0
133.00,113.76,0
152.00,118.25,0
141.00,122.53,0
170.00,126.71,0
127.00,130.73,0
102.00,133.81,0
146.00,135.67,0
136.00,136.97,0
198.00,138.52,0
175.00,140.96,0
109.00,143.59,0
108.00,144.99,0
141.00,145.11,0
119.00,144.60,0
176.00,144.03,0
52.00,143.15,0
56.00,140.54,0
92.00,136.00,0
42.00,130.40,0
71.00,123.89,0
45.00,116.73,0
122.00,109.77,0
66.00,103.79,0
90.00,98.65,0
144.00,94.72,0
110.00,92.62,0
155.00,92.26,0
103.00,93.24,0
133.00,95.00,0
125.00,97.27,0
127.00,100.00,0
146.00,103.10,0
139.00,106.66,0
174.00,110.78,0
202.00,115.94,0
149.00,122.07,0
97.00,127.62,0
142.00,131.64,0
138.00,134.64,0
115.00,136.87,0
128.00,138.14,0
97.00,138.41,0
116.00,137.67,0
66.00,135.82,0
61.00,132.49,0
177.00,128.59,0
73.00,125.42,0
43.00,121.89,0
136.00,117.62,0
38.00,113.41,0
59.00,108.69,0
112.00,103.73,0
78.00,99.52,0
103.00,96.09,0
150.00,93.90,0
169.00,93.83,0
112.00,95.62,0
156.00,98.39,0
129.00,101.80,0
174.00,105.89,0
168.00,110.81,0
158.00,116.40,0
124.00,121.82,0
168.00,126.66,0
170.00,131.35,0
179.00,136.25,0
216.00,141.62,0
148.00,147.28,0
161.00,152.27,0
104.00,155.78,0
133.00,157.43,0
96.00,157.36,0
95.00,155.56,0
92.00,152.17,0
79.00,147.54,0
217.00,142.99,0
133.00,140.15,0
65.00,137.88,0
55.00,134.23,0
80.00,129.11,0
67.00,123.29,0
77.00,117.20,0
101.00,111.36,0
181.00,107.03,0
141.00,105.20,0
244.00,106.13,0
144.00,109.78,0
129.00,114.37,0
109.00,118.31,0
137.00,121.39,0
173.00,124.32,0
158.00,127.73,0
160.00,131.46,0
124.00,134.92,0
131.00,137.55,0
148.00,139.42,0
122.00,140.76,0
159.00,141.69,0
146.00,142.55,0
106.00,143.09,0
126.00,142.77,0
119.00,141.74,0
131.00,140.36,0
148.00,139.05,0
71.00,137.57,0
147.00,135.51,0
97.00,133.28,0
191.00,131.59,0
52.00,130.33,0
168.00,128.90,0
68.00,127.32,0
75.00,125.03,0
160.00,122.29,0
115.00,120.38,0
133.00,119.27,0
151.00,118.88,0
138.00,119.39,0
133.00,120.44,0
135.00,121.72,0
147.00,123.22,0
133.00,124.92,0
152.00,126.76,0
146.00,128.79,0
144.00,130.93,0
190.00,133.39,0
176.00,136.65,0
142.00,140.26,0
129.00,143.24,0
131.00,145.14,0
108.00,145.92,0
180.00,146.04,0
102.00,146.02,0
84.00,145.03,0
198.00,143.36,0
117.00,142.29,0
139.00,141.48,0
122.00,140.47,0
88.00,138.95,0
42.00,136.00,0
112.00,131.64,0
92.00,126.93,0
91.00,122.36,0
80.00,117.76,0
104.00,113.30,0
121.00,109.54,0
172.00,107.35,0
129.00,107.05,0
73.00,107.45,0
104.00,107.34,0
164.00,107.38,0
161.00,108.77,0
168.00,111.66,0
141.00,115.44,0
148.00,119.44,0
146.00,123.36,0
129.00,126.96,0
132.00,129.92,0
126.00,132.17,0
138.00,133.83,0
219.00,135.80,0
132.00,138.65,0
129.00,141.30,0
87.00,142.57,0
104.00,142.20,0
52.00,140.08,0
138.00,136.71,0
59.00,132.82,0
52.00,128.02,0
143.00,122.67,0
102.00,118.19,0
120.00,114.73,0
106.00,112.02,0
108.00,109.88,0
129.00,108.36,0
100.00,107.47,0
132.00,107.05,0
101.00,107.04,0
115.00,107.20,0
143.00,107.70,0
167.00,109.20,0
262.00,112.86,0
172.00,119.03,0
94.00,125.55,0
177.00,130.80,0
141.00,135.33,0
191.00,139.67,0
102.00,143.51,0
139.00,146.10,0
111.00,147.31,0
88.00,147.05,0
134.00,145.49,0
86.00,143.13,0
52.00,139.57,0
67.00,134.38,0
107.00,128.40,0
76.00,122.57,0
53.00,116.67,0
48.00,110.23,0
40.00,103.24,0
88.00,96.32,0
96.00,90.45,0
76.00,85.94,0
110.00,82.64,0
184.00,81.35,0
118.00,82.58,0
155.00,85.56,0
82.00,89.20,0
160.00,92.97,0
333.00,98.83,0
149.00,108.10,0
149.00,118.00,0
169.00,126.71,0
137.00,134.30,0
112.00,140.20,0
119.00,144.03,0
94.00,145.85,0
151.00,146.19,0
240.00,146.86,0
131.00,148.83,0
80.00,150.22,0
110.00,149.63,0
93.00,147.48,0
134.00,144.54,0
96.00,141.30,0
69.00,137.42,0
279.00,134.17,0
83.00,133.11,0
48.00,131.97,0
122.00,129.24,0
83.00,125.99,0
81.00,122.41,0
183.00,119.18,0
89.00,117.22,0
115.00,115.78,0
174.00,114.93,0
159.00,115.63,0
189.00,117.96,0
214.00,122.03,0
196.00,127.82,0
162.00,134.35,0
130.00,140.23,0
154.00,144.83,0
202.00,148.83,0
138.00,152.70,0
150.00,155.78,0
137.00,157.72,0
85.00,158.19,0
166.00,157.23,0
209.00,156.48,0
106.00,156.44,0
114.00,155.65,0
119.00,153.67,0
94.00,150.76,0
55.00,146.57,0
137.00,141.35,0
85.00,136.14,0
220.00,132.03,0
91.00,129.63,0
52.00,127.27,0
135.00,123.99,0
106.00,120.93,0
95.00,118.27,0
88.00,115.50,0
122.00,112.83,0
119.00,110.80,0
185.00,110.10,0
148.00,111.22,0
145.00,113.58,0
151.00,116.49,0
166.00,119.93,0
155.00,123.85,0
240.00,128.64,0
177.00,134.76,0
159.00,141.19,0
160.00,146.82,0
121.00,151.19,0
106.00,153.72,0
114.00,154.24,0
107.00,153.15,0
150.00,151.22,0
135.00,149.22,0
56.00,146.72,0
132.00,143.09,0
111.00,139.16,0
68.00,135.06,0
132.00,130.60,0
70.00,126.22,0
90.00,121.71,0
160.00,117.64,0
121.00,115.06,0
123.00,113.63,0
120.00,112.81,0
135.00,112.58,0
117.00,112.87,0
188.00,113.97,0
150.00,116.37,0
110.00,119.29,0
155.00,121.91,0
185.00,124.86,0
172.00,128.77,0
179.00,133.32,0
162.00,138.10,0
178.00,142.79,0
155.00,147.20,0
122.00,150.73,0
138.00,152.86,0
80.00,153.38,0
104.00,152.03,0
106.00,149.26,0
94.00,145.60,0
41.00,140.77,0
70.00,134.49,0
114.00,127.72,0
118.00,121.78,0
166.00,117.51,0
87.00,114.81,0
75.00,112.40,0
97.00,109.61,0
116.00,107.05,0
75.00,104.90,0
101.00,102.83,0
132.00,101.24,0
163.00,101.04,0
150.00,102.61,0
145.00,105.41,0
142.00,108.88,0
156.00,112.74,0
144.00,116.89,0
162.00,121.20,0
148.00,125.55,0
136.00,129.61,0
199.00,133.53,0
130.00,137.58,0
144.00,141.10,0
110.00,143.46,0
125.00,144.56,0
128.00,144.65,0
97.00,143.89,0
155.00,142.50,0
105.00,140.96,0
60.00,138.66,0
52.00,134.60,0
86.00,129.13,0
37.00,122.87,0
44.00,115.75,0
104.00,108.39,0
82.00,101.97,0
198.00,97.57,0
234.00,96.88,0
118.00,99.62,0
81.00,102.97,0
110.00,105.34,0
138.00,107.29,0
177.00,109.88,0
170.00,113.67,0
127.00,118.15,0
145.00,122.34,0
104.00,125.79,0
165.00,128.54,0
169.00,131.35,0
217.00,135.10,0
166.00,139.83,0
140.00,144.51,0
111.00,147.89,0
127.00,149.61,0
139.00,150.13,0
98.00,149.73,0
97.00,148.03,0
218.00,146.07,0
136.00,145.26,0
59.00,144.38,0
34.00,141.32,0
79.00,136.04,0
39.00,129.42,0
93.00,122.18,0
168.00,115.89,0
79.00,111.47,0
111.00,108.04,0
117.00,105.32,0
106.00,103.50,0
164.00,102.78,0
212.00,104.17,0
154.00,107.91,0
134.00,112.58,0
114.00,116.84,0
147.00,120.43,0
176.00,123.99,0
217.00,128.52,0
188.00,134.31,0
138.00,140.31,0
181.00,145.56,0
139.00,150.02,0
132.00,153.33,0
120.00,155.10,0
137.00,155.51,0
108.00,154.82,0
165.00,153.47,0
76.00,151.62,0
137.00,148.93,0
179.00,146.34,0
87.00,144.34,0
52.00,141.38,0
63.00,136.56,0
74.00,130.47,0
69.00,123.83,0
81.00,117.11,0
100.00,110.88,0
284.00,107.16,0
109.00,107.20,0
128.00,108.89,0
151.00,110.83,0
135.00,113.33,0
151.00,116.20,0
128.00,119.21,0
225.00,122.76,0
144.00,127.40,0
174.00,132.39,0
160.00,137.20,0
158.00,141.70,0
151.00,145.62,0
212.00,149.33,0
155.00,153.25,0
118.00,156.45,0
131.00,158.03,0
126.00,158.19,0
121.00,157.24,0
144.00,155.54,0
140.00,153.65,0
63.00,151.16,0
96.00,147.24,0
90.00,142.25,0
73.00,136.65,0
161.00,131.15,0
88.00,126.63,0
135.00,122.92,0
176.00,120.44,0
151.00,119.86,0
125.00,120.45,0
149.00,121.46,0
148.00,122.94,0
206.00,125.37,0
182.00,129.20,0
221.00,134.38,0
180.00,140.52,0
167.00,146.73,0
171.00,152.26,0
165.00,156.99,0
181.00,161.04,0
149.00,164.37,0
151.00,166.68,0
124.00,167.68,0
127.00,167.26,0
159.00,165.85,0
102.00,163.79,0
216.00,161.60,0
255.00,161.13,0
164.00,162.79,0
191.00,165.07,0
126.00,166.90,0
98.00,167.24,0
112.00,165.55,0
157.00,162.73,0
119.00,159.73,0
240.00,157.41,0
196.00,157.02,0
228.00,158.63,0
183.00,161.50,0
202.00,164.93,0
203.00,168.60,0
263.00,173.02,0
253.00,178.78,0
248.00,185.65,0
147.00,192.14,0
251.00,197.27,0
165.00,201.38,0
163.00,203.99,0
158.00,204.59,0
166.00,203.65,0
158.00,201.52,0
148.00,198.44,0
126.00,194.36,0
127.00,189.15,0
147.00,183.32,0
139.00,177.45,0
210.00,172.38,0
243.00,169.46,0
145.00,168.59,0
219.00,168.57,0
212.00,169.57,0
101.00,170.87,0
202.00,171.30,0
138.00,171.27,0
201.00,171.20,0
232.00,171.88,0
186.00,173.74,0
128.00,175.46,0
274.00,176.88,0
180.00,179.19,0
173.00,181.69,0
226.00,183.79,0
407.00,187.84,0
258.00,195.42,0
388.00,205.59,0
175.00,216.52,0
231.00,225.69,0
168.00,231.85,0
201.00,235.18,0
144.00,235.87,0
190.00,234.19,0
199.00,231.13,0
266.00,228.22,0
193.00,226.10,0
193.00,224.00,0
192.00,221.37,0
252.00,218.89,0
190.00,217.10,0
151.00,215.01,0
226.00,212.26,0
206.00,209.84,0
202.00,208.00,0
199.00,206.42,0
271.00,205.59,0
158.00,205.59,0
247.00,205.69,0
252.00,206.43,0
211.00,208.12,0
209.00,209.82,0
182.00,210.88,0
364.00,212.46,0
254.00,216.25,0
320.00,221.85,0
396.00,229.42,0
196.00,238.40,0
166.00,245.22,0
169.00,248.07,0
175.00,247.66,0
210.00,245.16,0
199.00,241.72,0
171.00,237.56,0
192.00,232.59,0
154.00,227.00,0
179.00,220.85,0
226.00,214.98,0
227.00,210.49,0
153.00,207.01,0
234.00,203.86,0
168.00,201.24,0
104.00,198.16,0
291.00,194.79,0
204.00,193.15,0
203.00,192.97,0
198.00,193.14,0
195.00,193.44,0
301.00,194.62,0
273.00,197.97,0
160.00,202.29,0
230.00,205.68,0
200.00,208.24,0
270.00,210.75,0
367.00,214.82,0
253.00,221.23,0
225.00,227.87,0
277.00,233.48,0
166.00,237.84,0
214.00,240.10,0
156.00,240.06,0
142.00,237.62,0
168.00,232.94,0
176.00,227.06,0
122.00,220.39,0
143.00,212.70,0
235.00,205.13,0
144.00,198.85,0
187.00,193.37,0
163.00,188.45,0
237.00,184.67,0
133.00,182.07,0
254.00,180.32,0
192.00,179.91,0
337.00,181.72,0
165.00,185.60,0
360.00,190.90,0
212.00,197.70,0
164.00,204.17,0
258.00,208.93,0
320.00,213.92,0
169.00,219.46,0
292.00,224.27,0
175.00,228.19,0
263.00,231.09,0
224.00,233.30,0
190.00,234.72,0
174.00,234.44,0
176.00,232.39,0
159.00,228.81,0
230.00,224.50,0
177.00,220.38,0
198.00,216.42,0
222.00,212.83,0
255.00,210.49,0
316.00,210.40,0
214.00,212.48,0
122.00,214.18,0
170.00,213.60,0
275.00,212.17,0
228.00,211.93,0
112.00,211.71,0
158.00,209.58,0
220.00,206.39,0
182.00,203.58,0
206.00,201.25,0
142.00,198.91,0
163.00,195.95,0
189.00,192.64,0
342.00,191.07,0
361.00,193.79,0
257.00,200.40,0
239.00,208.00,0
219.00,214.79,0
194.00,220.04,0
214.00,223.55,0
161.00,225.31,0
177.00,225.10,0
130.00,222.81,0
219.00,219.13,0
173.00,215.20,0
224.00,211.62,0
180.00,208.53,0
218.00,205.91,0
306.00,204.73,0
191.00,205.50,0
234.00,206.91,0
198.00,208.22,0
155.00,208.82,0
171.00,207.97,0
151.00,205.83,0
273.00,203.56,0
186.00,202.41,0
258.00,202.30,0
202.00,203.00,0
248.00,204.34,0
216.00,206.15,0
226.00,208.20,0
170.00,209.80,0
207.00,210.47,0
201.00,210.52,0
283.00,210.96,0
259.00,212.78,0
246.00,215.78,0
248.00,219.18,0
151.00,221.90,0
158.00,222.48,0
171.00,220.85,0
136.00,217.57,0
193.00,213.13,0
150.00,208.27,0
156.00,203.05,0
182.00,197.70,0
207.00,193.11,0
201.00,189.81,0
168.00,187.46,0
213.00,185.67,0
136.00,184.20,0
179.00,182.49,0
213.00,181.00,0
187.00,180.43,0
134.00,180.00,0
232.00,179.39,0
208.00,179.65,0
290.00,181.68,0
210.00,185.46,0
219.00,189.87,0
274.00,194.58,0
182.00,199.57,0
261.00,204.20,0
310.00,209.34,0
242.00,215.60,0
244.00,221.81,0
247.00,227.27,0
174.00,231.45,0
220.00,233.71,0
173.00,234.21,0
199.00,233.17,0
174.00,230.84,0
202.00,227.63,0
142.00,223.62,0
196.00,218.80,0
89.00,213.07,0
99.00,205.58,0
47.00,195.86,0
77.00,184.24,0
113.00,171.92,0
58.00,159.87,0
39.00,147.64,0
104.00,135.44,0
37.00,124.04,0
66.00,113.29,0
99.00,103.59,0
84.00,95.68,0
100.00,89.53,0
147.00,85.46,0
110.00,83.72,0
128.00,83.72,0
135.00,85.08,0
126.00,87.67,0
160.00,91.25,0
179.00,96.11,0
155.00,102.21,0
141.00,108.68,0
120.00,114.61,0
127.00,119.52,0
114.00,123.34,0
141.00,126.26,0
119.00,128.56,0
190.00,130.76,0
105.00,133.11,0
89.00,134.53,0
98.00,134.31,0
87.00,132.77,0
67.00,130.01,0
93.00,126.21,0
44.00,121.59,0
52.00,115.99,0
77.00,109.77,0
65.00,103.64,0
64.00,97.80,0
91.00,92.48,0
81.00,88.08,0
127.00,84.97,0
164.00,83.90,0
120.00,85.06,0
140.00,87.63,0
100.00,90.83,0
128.00,94.11,0
136.00,97.57,0
261.00,102.42,0
135.00,109.27,0
146.00,116.46,0
106.00,122.47,0
180.00,127.43,0
147.00,132.06,0
235.00,137.07,0
118.00,142.42,0
165.00,147.04,0
121.00,150.39,0
50.00,151.72,0
94.00,150.29,0
74.00,146.85,0
59.00,141.82,0
44.00,135.28,0
46.00,127.43,0
53.00,118.82,0
34.00,109.89,0
77.00,101.12,0
35.00,92.94,0
85.00,85.57,0
105.00,79.70,0
111.00,75.95,0
120.00,74.28,0
69.00,74.04,0
104.00,74.39,0
129.00,75.56,0
156.00,78.26,0
139.00,82.51,0
140.00,87.77,0
143.00,93.54,0
131.00,99.42,0
102.00,104.80,0
127.00,109.24,0
106.00,112.82,0
191.00,116.19,0
103.00,119.80,0
97.00,122.66,0
96.00,124.04,0
96.00,124.16,0
65.00,123.09,0
142.00,121.24,0
89.00,119.44,0
67.00,117.33,0
71.00,114.26,0
38.00,110.18,0
86.00,105.35,0
89.00,100.67,0
81.00,96.63,0
69.00,93.02,0
44.00,89.36,0
110.00,85.84,0
200.00,84.15,0
109.00,85.19,0
140.00,87.80,0
100.00,90.91,0
132.00,94.17,0
165.00,97.93,0
244.00,103.35,0
127.00,110.51,0
147.00,117.64,0
114.00,123.58,0
124.00,128.13,0
127.00,131.40,0
173.00,134.09,0
140.00,136.76,0
73.00,138.63,0
83.00,138.53,0
55.00,136.27,0
44.00,132.03,0
118.00,126.62,0
65.00,121.16,0
38.00,115.37,0
88.00,109.04,0
56.00,102.87,0
54.00,96.86,0
86.00,91.17,0
51.00,86.12,0
76.00,81.62,0
127.00,78.23,0
92.00,76.56,0
88.00,76.06,0
99.00,76.21,0
117.00,77.12,0
123.00,79.02,0
124.00,81.88,0
127.00,85.47,0
141.00,89.65,0
138.00,94.39,0
110.00,99.22,0
118.00,103.55,0
118.00,107.25,0
127.00,110.49,0
113.00,113.31,0
100.00,115.45,0
127.00,116.90,0
87.00,117.78,0
119.00,118.03,0
90.00,117.75,0
50.00,116.52,0
66.00,113.83,0
62.00,110.03,0
38.00,105.39,0
107.00,100.39,0
58.00,95.84,0
69.00,91.62,0
112.00,87.93,0
92.00,85.40,0
75.00,83.72,0
95.00,82.46,0
41.00,81.31,0
90.00,79.94,0
115.00,79.03,0
118.00,79.38,0
121.00,80.91,0
92.00,83.13,0
139.00,85.75,0
133.00,89.05,0
140.00,93.12,0
131.00,97.64,0
139.00,102.32,0
117.00,106.85,0
127.00,110.89,0
88.00,114.09,0
76.00,115.87,0
107.00,116.25,0
125.00,116.13,0
76.00,115.77,0
56.00,114.44,0
90.00,111.95,0
36.00,108.59,0
37.00,104.10,0
105.00,99.03,0
62.00,94.45,0
80.00,90.40,0
178.00,87.63,0
79.00,86.88,0
60.00,86.72,0
92.00,86.13,0
109.00,85.75,0
114.00,86.14,0
167.00,87.75,0
135.00,90.90,0
114.00,94.83,0
101.00,98.52,0
126.00,101.72,0
106.00,104.58,0
206.00,107.81,0
106.00,111.85,0
143.00,115.86,0
84.00,119.01,0
121.00,121.04,0
91.00,122.02,0
150.00,122.47,0
83.00,122.68,0
81.00,122.07,0
73.00,120.21,0
50.00,117.09,0
38.00,112.58,0
57.00,106.95,0
43.00,100.74,0
52.00,94.29,0
40.00,87.81,0
60.00,81.57,0
132.00,76.55,0
80.00,73.55,0
92.00,72.02,0
98.00,71.46,0
102.00,71.90,0
118.00,73.34,0
208.00,76.49,0
92.00,81.53,0
147.00,87.13,0
91.00,92.44,0
88.00,96.86,0
107.00,100.11,0
219.00,103.57,0
112.00,108.20,0
117.00,112.77,0
86.00,116.09,0
107.00,118.05,0
107.00,119.00,0
99.00,119.26,0
64.00,118.57,0
55.00,116.46,0
77.00,113.07,0
43.00,108.84,0
35.00,103.66,0
91.00,97.98,0
54.00,92.66,0
36.00,87.50,0
131.00,82.81,0
67.00,79.54,0
70.00,77.19,0
97.00,75.37,0
86.00,74.39,0
119.00,74.40,0
115.00,75.57,0
117.00,77.81,0
103.00,80.69,0
112.00,83.79,0
140.00,87.25,0
127.00,91.29,0
127.00,95.65,0
102.00,99.79,0
76.00,103.01,0
92.00,104.91,0
114.00,105.98,0
92.00,106.69,0
150.00,107.41,0
73.00,108.25,0
95.00,108.54,0
77.00,107.99,0
82.00,106.73,0
77.00,104.88,0
126.00,103.00,0
41.00,101.22,0
37.00,98.53,0
104.00,95.04,0
40.00,91.60,0
50.00,87.89,0
98.00,84.13,0
41.00,80.87,0
41.00,77.54,0
148.00,74.69,0
100.00,73.68,0
102.00,74.19,0
97.00,75.45,0
92.00,77.12,0
129.00,79.24,0
146.00,82.33,0
106.00,86.32,0
112.00,90.38,0
99.00,94.02,0
113.00,97.18,0
91.00,99.80,0
127.00,101.99,0
114.00,104.07,0
127.00,106.20,0
96.00,108.14,0
100.00,109.51,0
66.00,109.91,0
63.00,109.03,0
66.00,106.89,0
150.00,104.58,0
36.00,102.69,0
63.00,100.21,0
66.00,96.90,0
44.00,93.15,0
62.00,89.01,0
98.00,85.11,0
63.00,81.98,0
84.00,79.45,0
108.00,77.69,0
98.00,77.09,0
94.00,77.37,0
119.00,78.38,0
127.00,80.35,0
89.00,83.03,0
127.00,85.88,0
108.00,88.94,0
207.00,92.87,0
104.00,97.95,0
144.00,103.22,0
78.00,107.69,0
72.00,110.60,0
100.00,111.83,0
182.00,112.81,0
103.00,114.51,0
86.00,115.94,0
76.00,116.10,0
65.00,114.85,0
38.00,112.12,0
116.00,108.46,0
38.00,104.63,0
58.00,100.33,0
78.00,95.66,0
60.00,91.21,0
59.00,86.93,0
80.00,82.95,0
66.00,79.53,0
71.00,76.65,0
82.00,74.32,0
97.00,72.84,0
133.00,72.71,0
112.00,74.13,0
123.00,76.73,0
78.00,79.79,0
100.00,82.60,0
111.00,85.22,0
218.00,88.87,0
99.00,94.02,0
134.00,99.37,0
80.00,103.84,0
99.00,107.04,0
72.00,108.84,0
136.00,109.74,0
79.00,110.30,0
49.00,109.90,0
75.00,108.05,0
46.00,105.11,0
35.00,101.05,0
73.00,96.21,0
46.00,91.22,0
45.00,86.15,0
137.00,81.70,0
63.00,78.78,0
63.00,76.65,0
86.00,74.77,0
86.00,73.52,0
98.00,73.08,0
113.00,73.60,0
93.00,75.01,0
101.00,76.90,0
86.00,78.94,0
105.00,81.01,0
94.00,83.13,0
144.00,85.61,0
112.00,88.75,0
112.00,92.18,0
85.00,95.22,0
105.00,97.57,0
84.00,99.26,0
74.00,100.14,0
67.00,99.96,0
128.00,99.29,0
82.00,98.85,0
43.00,98.01,0
80.00,96.18,0
55.00,93.73,0
34.00,90.63,0
81.00,86.96,0
42.00,83.27,0
35.00,79.36,0
119.00,75.67,0
59.00,73.12,0
71.00,71.31,0
87.00,69.96,0
77.00,69.28,0
98.00,69.28,0
150.00,70.48,0
97.00,73.14,0
116.00,76.58,0
109.00,80.27,0
114.00,84.13,0
78.00,87.71,0
126.00,90.80,0
104.00,93.74,0
117.00,96.60,0
86.00,99.09,0
68.00,100.65,0
87.00,101.05,0
100.00,100.84,0
86.00,100.43,0
103.00,99.90,0
66.00,99.14,0
39.00,97.55,0
85.00,95.01,0
40.00,91.99,0
36.00,88.32,0
79.00,84.18,0
45.00,80.23,0
43.00,76.33,0
104.00,72.78,0
74.00,70.37,0
48.00,68.70,0
97.00,67.36,0
75.00,66.74,0
84.00,66.81,0
121.00,67.66,0
109.00,69.66,0
118.00,72.66,0
105.00,76.25,0
145.00,80.37,0
102.00,84.95,0
143.00,89.68,0
99.00,94.34,0
134.00,98.68,0
85.00,102.46,0
116.00,105.41,0
85.00,107.49,0
135.00,109.00,0
73.00,110.08,0
66.00,110.13,0
70.00,108.81,0
72.00,106.51,0
50.00,103.41,0
84.00,99.75,0
37.00,95.78,0
39.00,91.23,0
58.00,86.17,0
36.00,81.07,0
44.00,75.95,0
82.00,71.25,0
84.00,67.74,0
88.00,65.62,0
144.00,65.16,0
106.00,66.67,0
100.00,69.37,0
85.00,72.35,0
82.00,75.14,0
104.00,77.69,0
196.00,81.08,0
111.00,86.00,0
101.00,91.19,0
82.00,95.39,0
127.00,98.67,0
106.00,101.55,0
165.00,104.54,0
89.00,107.70,0
101.00,110.21,0
75.00,111.49,0
95.00,111.65,0
60.00,110.77,0
76.00,108.84,0
66.00,106.09,0
42.00,102.54,0
37.00,98.00,0
53.00,92.73,0
41.00,87.17,0
66.00,81.71,0
56.00,76.76,0
86.00,72.64,0
40.00,69.32,0
94.00,66.66,0
60.00,64.81,0
83.00,63.72,0
99.00,63.47,0
119.00,64.48,0
97.00,66.72,0
137.00,69.92,0
115.00,74.05,0
87.00,78.49,0
143.00,82.84,0
82.00,87.17,0
122.00,91.12,0
84.00,94.50,0
93.00,97.11,0
107.00,99.00,0
175.00,101.14,0
89.00,103.95,0
75.00,106.18,0
77.00,106.99,0
68.00,106.52,0
46.00,104.77,0
143.00,102.49,0
47.00,100.49,0
53.00,98.04,0
87.00,94.93,0
54.00,91.76,0
38.00,88.24,0
80.00,84.37,0
55.00,80.74,0
77.00,77.52,0
64.00,74.76,0
91.00,72.64,0
84.00,71.36,0
89.00,70.89,0
96.00,71.15,0
106.00,72.20,0
90.00,73.89,0
91.00,75.85,0
96.00,77.87,0
109.00,80.07,0
138.00,82.83,0
99.00,86.19,0
113.00,89.60,0
83.00,92.60,0
118.00,95.10,0
95.00,97.28,0
192.00,99.85,0
95.00,103.23,0
69.00,106.12,0
81.00,107.41,0
84.00,107.43,0
52.00,106.38,0
104.00,104.48,0
46.00,102.11,0
45.00,98.91,0
79.00,94.99,0
49.00,90.96,0
47.00,86.72,0
64.00,82.35,0
65.00,78.29,0
89.00,74.95,0
79.00,72.59,0
102.00,71.29,0
80.00,70.95,0
98.00,71.33,0
132.00,72.62,0
126.00,75.23,0
122.00,78.91,0
98.00,82.97,0
180.00,87.44,0
101.00,92.57,0
147.00,97.78,0
89.00,102.52,0
83.00,106.09,0
81.00,108.08,0
109.00,108.94,0
97.00,109.25,0
80.00,109.05,0
66.00,107.97,0
81.00,105.97,0
37.00,103.15,0
48.00,99.26,0
54.00,94.54,0
92.00,89.88,0
44.00,85.70,0
49.00,81.58,0
76.00,77.55,0
59.00,74.07,0
80.00,71.25,0
93.00,69.33,0
127.00,68.84,0
82.00,69.73,0
101.00,71.35,0
118.00,73.54,0
168.00,76.95,0
107.00,81.64,0
85.00,86.37,0
92.00,90.16,0
87.00,93.00,0
83.00,94.96,0
109.00,96.31,0
78.00,97.28,0
116.00,97.95,0
83.00,98.47,0
73.00,98.53,0
69.00,97.79,0
74.00,96.34,0
54.00,94.30,0
88.00,91.86,0
39.00,89.20,0
43.00,85.95,0
108.00,82.55,0
55.00,79.84,0
37.00,77.25,0
93.00,74.56,0
72.00,72.49,0
89.00,71.22,0
130.00,71.03,0
102.00,72.28,0
85.00,74.30,0
88.00,76.36,0
115.00,78.49,0
107.00,81.05,0
188.00,84.60,0
100.00,89.31,0
127.00,94.20,0
85.00,98.43,0
112.00,101.77,0
100.00,104.31,0
98.00,106.19,0
86.00,107.26,0
92.00,107.53,0
70.00,106.99,0
80.00,105.61,0
67.00,103.52,0
62.00,100.78,0
36.00,97.25,0
39.00,92.78,0
35.00,87.53,0
40.00,81.87,0
62.00,76.33,0
71.00,71.54,0
68.00,67.78,0
94.00,65.17,0
100.00,63.98,0
89.00,64.13,0
161.00,65.74,0
94.00,68.97,0
96.00,72.84,0
105.00,76.60,0
107.00,80.34,0
120.00,84.15,0
146.00,88.35,0
138.00,93.18,0
114.00,98.20,0
94.00,102.57,0
116.00,105.95,0
94.00,108.49,0
144.00,110.54,0
90.00,112.35,0
118.00,113.66,0
72.00,114.19,0
108.00,113.87,0
66.00,112.80,0
104.00,111.10,0
44.00,108.77,0
50.00,105.37,0
53.00,100.94,0
36.00,95.83,0
49.00,90.23,0
93.00,84.86,0
64.00,80.45,0
75.00,76.88,0
135.00,74.51,0
79.00,73.75,0
83.00,73.83,0
88.00,74.21,0
108.00,75.08,0
124.00,76.79,0
120.00,79.47,0
113.00,82.83,0
113.00,86.43,0
118.00,90.09,0
135.00,93.88,0
110.00,97.78,0
112.00,101.37,0
88.00,104.24,0
92.00,106.11,0
42.00,106.61,0
104.00,105.79,0
86.00,104.44,0
83.00,102.94,0
61.00,100.97,0
70.00,98.41,0
70.00,95.46,0
88.00,92.52,0
70.00,89.83,0
37.00,87.02,0
92.00,83.95,0
43.00,81.03,0
60.00,78.10,0
79.00,75.29,0
61.00,72.97,0
72.00,71.05,0
116.00,69.90,0
88.00,69.95,0
95.00,70.88,0
79.00,72.19,0
95.00,73.68,0
130.00,75.67,0
134.00,78.73,0
114.00,82.66,0
117.00,86.87,0
87.00,90.79,0
130.00,94.25,0
112.00,97.56,0
135.00,100.88,0
101.00,104.07,0
101.00,106.68,0
80.00,108.30,0
135.00,109.22,0
87.00,109.91,0
111.00,110.28,0
66.00,110.02,0
67.00,108.74,0
45.00,106.21,0
44.00,102.45,0
37.00,97.59,0
64.00,92.18,0
46.00,86.77,0
45.00,81.45,0
51.00,76.26,0
88.00,71.74,0
60.00,68.29,0
80.00,65.80,0
104.00,64.41,0
131.00,64.68,0
99.00,66.58,0
94.00,69.33,0
120.00,72.49,0
106.00,76.14,0
136.00,80.25,0
111.00,84.76,0
114.00,89.29,0
96.00,93.37,0
106.00,96.79,0
92.00,99.49,0
167.00,102.03,0
94.00,104.89,0
103.00,107.38,0
84.00,108.89,0
117.00,109.64,0
78.00,109.87,0
128.00,109.72,0
63.00,109.27,0
47.00,107.80,0
60.00,104.92,0
48.00,101.04,0
36.00,96.35,0
41.00,90.93,0
44.00,85.14,0
66.00,79.53,0
55.00,74.55,0
89.00,70.50,0
82.00,67.70,0
92.00,66.18,0
87.00,65.76,0
113.00,66.40,0
108.00,68.17,0
123.00,71.00,0
88.00,74.44,0
114.00,78.02,0
131.00,81.84,0
122.00,86.17,0
108.00,90.60,0
109.00,94.67,0
172.00,98.75,0
100.00,103.16,0
115.00,107.12,0
92.00,110.07,0
98.00,111.96,0
64.00,112.60,0
104.00,112.08,0
78.00,110.87,0
44.00,108.79,0
43.00,105.35,0
109.00,101.23,0
50.00,97.32,0
52.00,93.28,0
78.00,89.05,0
55.00,85.06,0
66.00,81.32,0
79.00,77.98,0
41.00,75.05,0
122.00,72.69,0
94.00,71.62,0
109.00,71.90,0
72.00,72.92,0
119.00,74.35,0
108.00,76.43,0
120.00,79.26,0
105.00,82.54,0
127.00,86.07,0
116.00,89.84,0
95.00,93.48,0
122.00,96.69,0
90.00,99.48,0
113.00,101.75,0
95.00,103.50,0
79.00,104.57,0
84.00,104.71,0
40.00,103.73,0
88.00,101.63,0
59.00,98.95,0
65.00,95.89,0
58.00,92.44,0
58.00,88.74,0
39.00,84.74,0
46.00,80.41,0
68.00,76.10,0
50.00,72.22,0
82.00,68.96,0
107.00,66.86,0
78.00,66.14,0
112.00,66.50,0
83.00,67.76,0
79.00,69.43,0
122.00,71.40,0
153.00,74.47,0
133.00,78.95,0
118.00,84.21,0
114.00,89.41,0
127.00,94.32,0
103.00,98.82,0
137.00,102.86,0
80.00,106.31,0
128.00,108.92,0
90.00,110.83,0
78.00,111.80,0
81.00,111.55,0
78.00,110.30,0
89.00,108.39,0
57.00,105.95,0
73.00,102.87,0
69.00,99.38,0
55.00,95.65,0
59.00,91.61,0
38.00,87.25,0
50.00,82.58,0
75.00,78.07,0
77.00,74.35,0
73.00,71.57,0
102.00,69.78,0
110.00,69.30,0
87.00,70.03,0
95.00,71.41,0
112.00,73.31,0
127.00,76.02,0
93.00,79.36,0
140.00,83.02,0
65.00,86.68,0
114.00,89.77,0
107.00,92.46,0
168.00,95.54,0
106.00,99.27,0
112.00,102.88,0
87.00,105.68,0
92.00,107.42,0
43.00,107.79,0
144.00,107.17,0
88.00,106.62,0
64.00,105.85,0
60.00,104.05,0
42.00,101.11,0
37.00,97.02,0
50.00,92.07,0
50.00,86.80,0
84.00,81.85,0
58.00,77.67,0
90.00,74.32,0
83.00,71.97,0
104.00,70.78,0
89.00,70.68,0
132.00,71.68,0
96.00,73.80,0
127.00,76.69,0
136.00,80.37,0
147.00,85.01,0
135.00,90.42,0
138.00,96.12,0
138.00,101.81,0
156.00,107.49,0
102.00,112.80,0
92.00,116.85,0
99.00,119.25,0
112.00,120.45,0
129.00,121.11,0
73.00,121.28,0
47.00,120.06,0
78.00,117.19,0
55.00,113.29,0
60.00,108.62,0
64.00,103.46,0
39.00,98.00,0
48.00,92.18,0
137.00,86.96,0
63.00,83.31,0
89.00,80.69,0
79.00,78.67,0
75.00,77.20,0
69.00,75.99,0
125.00,75.35,0
143.00,76.19,0
110.00,78.60,0
104.00,81.71,0
132.00,85.09,0
116.00,88.84,0
160.00,93.09,0
170.00,98.25,0
118.00,104.02,0
133.00,109.43,0
130.00,114.16,0
104.00,118.10,0
128.00,121.03,0
117.00,123.20,0
129.00,124.84,0
106.00,125.93,0
120.00,126.41,0
88.00,126.17,0
124.00,125.30,0
100.00,124.09,0
70.00,122.33,0
35.00,119.22,0
59.00,114.59,0
36.00,108.83,0
34.00,102.20,0
57.00,95.13,0
87.00,88.55,0
73.00,83.13,0
97.00,79.00,0
67.00,76.00,0
100.00,73.95,0
98.00,72.96,0
127.00,73.30,0
121.00,75.03,0
125.00,77.98,0
120.00,81.68,0
126.00,85.85,0
111.00,90.17,0
181.00,94.86,0
118.00,100.16,0
127.00,105.37,0
131.00,110.00,0
115.00,114.05,0
173.00,117.77,0
108.00,121.40,0
109.00,124.26,0
91.00,125.77,0
100.00,126.00,0
95.00,125.20,0
165.00,124.21,0
47.00,123.26,0
48.00,121.00,0
94.00,117.23,0
44.00,112.81,0
81.00,107.90,0
75.00,102.93,0
54.00,98.12,0
85.00,93.42,0
70.00,89.20,0
92.00,85.66,0
79.00,82.90,0
107.00,81.01,0
134.00,80.40,0
121.00,81.38,0
124.00,83.57,0
120.00,86.50,0
110.00,89.79,0
142.00,93.30,0
209.00,97.86,0
155.00,103.99,0
156.00,110.79,0
102.00,117.00,0
120.00,121.81,0
107.00,125.16,0
112.00,127.26,0
110.00,128.29,0
78.00,128.22,0
93.00,126.90,0
62.00,124.40,0
68.00,120.74,0
67.00,116.15,0
83.00,111.19,0
49.00,106.06,0
34.00,100.44,0
59.00,94.31,0
47.00,88.18,0
48.00,82.27,0
57.00,76.71,0
67.00,71.84,0
99.00,68.16,0
102.00,66.14,0
64.00,65.45,0
106.00,65.53,0
163.00,67.05,0
126.00,70.61,0
107.00,75.30,0
115.00,80.13,0
118.00,84.91,0
127.00,89.68,0
144.00,94.61,0
130.00,99.72,0
125.00,104.68,0
131.00,109.22,0
139.00,113.40,0
118.00,117.18,0
110.00,120.19,0
95.00,122.08,0
108.00,122.87,0
81.00,122.65,0
118.00,121.63,0
79.00,120.10,0
68.00,117.81,0
60.00,114.43,0
44.00,110.01,0
33.00,104.51,0
45.00,98.14,0
45.00,91.45,0
48.00,84.85,0
78.00,78.84,0
114.00,74.31,0
92.00,71.69,0
98.00,70.59,0
113.00,70.74,0
116.00,72.15,0
172.00,75.10,0
102.00,79.50,0
132.00,84.43,0
114.00,89.36,0
130.00,94.19,0
140.00,98.99,0
178.00,104.24,0
139.00,110.02,0
140.00,115.70,0
104.00,120.52,0
130.00,124.14,0
127.00,126.86,0
182.00,129.41,0
88.00,131.85,0
91.00,133.05,0
103.00,132.67,0
74.00,131.05,0
72.00,128.15,0
161.00,124.84,0
65.00,122.00,0
36.00,118.50,0
102.00,113.91,0
62.00,109.14,0
63.00,104.29,0
103.00,99.57,0
89.00,95.64,0
96.00,92.61,0
174.00,91.01,0
59.00,90.94,0
86.00,91.00,0
92.00,90.71,0
130.00,90.80,0
149.00,92.00,0
138.00,94.54,0
132.00,97.96,0
136.00,101.77,0
160.00,105.96,0
106.00,110.29,0
122.00,114.01,0
125.00,117.00,0
107.00,119.36,0
136.00,121.13,0
96.00,122.40,0
89.00,122.77,0
105.00,122.12,0
149.00,121.29,0
39.00,120.31,0
43.00,117.82,0
103.00,113.90,0
37.00,109.53,0
34.00,104.33,0
76.00,98.43,0
50.00,92.64,0
91.00,87.38,0
137.00,83.54,0
69.00,81.45,0
70.00,80.02,0
97.00,78.83,0
127.00,78.54,0
113.00,79.55,0
164.00,81.96,0
136.00,85.87,0
127.00,90.66,0
110.00,95.44,0
103.00,99.63,0
148.00,103.36,0
203.00,107.75,0
177.00,113.58,0
129.00,119.92,0
104.00,125.23,0
112.00,128.83,0
102.00,130.87,0
170.00,132.11,0
77.00,132.98,0
88.00,132.65,0
92.00,130.86,0
69.00,127.99,0
82.00,124.16,0
183.00,120.58,0
37.00,117.89,0
72.00,114.67,0
82.00,110.61,0
51.00,106.24,0
44.00,101.28,0
86.00,96.04,0
86.00,91.37,0
96.00,87.74,0
140.00,85.53,0
107.00,85.01,0
138.00,85.87,0
120.00,87.85,0
131.00,90.65,0
140.00,94.09,0
153.00,98.26,0
121.00,102.87,0
142.00,107.40,0
122.00,111.65,0
133.00,115.48,0
156.00,119.07,0
111.00,122.46,0
116.00,125.06,0
101.00,126.57,0
62.00,126.68,0
98.00,125.23,0
68.00,122.70,0
61.00,119.15,0
95.00,114.87,0
43.00,110.25,0
47.00,104.98,0
55.00,99.09,0
40.00,92.97,0
57.00,86.85,0
111.00,81.51,0
88.00,77.79,0
66.00,75.30,0
105.00,73.60,0
40.00,72.49,0
106.00,71.65,0
248.00,72.78,0
118.00,77.20,0
127.00,83.08,0
100.00,88.70,0
127.00,93.78,0
173.00,98.91,0
206.00,105.14,0
127.00,112.28,0
136.00,118.91,0
109.00,124.23,0
157.00,128.38,0
96.00,131.58,0
246.00,134.58,0
75.00,137.89,0
84.00,139.82,0
111.00,139.57,0
80.00,137.96,0
76.00,135.05,0
110.00,131.20,0
51.00,126.80,0
40.00,121.37,0
89.00,115.04,0
66.00,108.77,0
38.00,102.56,0
43.00,95.97,0
52.00,89.26,0
90.00,83.16,0
144.00,78.89,0
113.00,77.07,0
134.00,77.30,0
116.00,79.04,0
116.00,81.74,0
122.00,84.96,0
151.00,88.84,0
150.00,93.60,0
164.00,99.20,0
128.00,105.18,0
175.00,111.17,0
123.00,117.01,0
110.00,121.97,0
121.00,125.55,0
99.00,127.85,0
101.00,128.84,0
150.00,129.07,0
83.00,128.97,0
74.00,127.86,0
90.00,125.45,0
43.00,121.92,0
62.00,117.17,0
58.00,111.53,0
54.00,105.49,0
53.00,99.22,0
106.00,93.37,0
85.00,88.73,0
79.00,85.20,0
87.00,82.43,0
70.00,80.28,0
54.00,78.30,0
201.00,77.34,0
167.00,79.22,0
106.00,83.32,0
98.00,87.62,0
113.00,91.42,0
119.00,94.95,0
233.00,99.32,0
129.00,105.24,0
149.00,111.57,0
108.00,117.11,0
140.00,121.62,0
126.00,125.28,0
234.00,129.08,0
132.00,133.71,0
121.00,137.92,0
103.00,140.50,0
56.00,140.99,0
76.00,139.11,0
72.00,135.41,0
78.00,130.59,0
66.00,125.04,0
53.00,118.86,0
40.00,111.98,0
46.00,104.54,0
54.00,96.96,0
45.00,89.65,0
78.00,82.96,0
94.00,77.57,0
137.00,74.23,0
156.00,73.60,0
108.00,75.27,0
120.00,78.11,0
124.00,81.58,0
131.00,85.65,0
119.00,90.09,0
124.00,94.57,0
129.00,98.94,0
113.00,103.08,0
132.00,106.85,0
127.00,110.34,0
120.00,113.53,0
135.00,116.35,0
130.00,118.94,0
125.00,121.28,0
126.00,123.23,0
92.00,124.51,0
109.00,124.83,0
51.00,123.93,0
61.00,121.39,0
88.00,117.62,0
54.00,113.27,0
36.00,108.13,0
64.00,102.23,0
42.00,96.07,0
62.00,89.94,0
82.00,84.36,0
56.00,79.66,0
113.00,75.99,0
133.00,74.13,0
93.00,74.16,0
109.00,75.27,0
119.00,77.17,0
159.00,80.26,0
145.00,84.74,0
190.00,90.62,0
139.00,97.59,0
148.00,104.75,0
129.00,111.39,0
163.00,117.46,0
127.00,123.00,0
173.00,128.02,0
103.00,132.36,0
80.00,135.08,0
103.00,135.71,0
109.00,134.97,0
91.00,133.37,0
159.00,131.45,0
86.00,129.74,0
82.00,127.57,0
96.00,124.57,0
44.00,120.80,0
68.00,116.03,0
38.00,110.37,0
42.00,103.95,0
67.00,97.20,0
61.00,90.82,0
75.00,85.15,0
96.00,80.56,0
92.00,77.37,0
99.00,75.52,0
65.00,74.55,0
107.00,74.12,0
112.00,74.59,0
122.00,76.21,0
146.00,79.07,0
191.00,83.63,0
122.00,89.69,0
137.00,96.06,0
121.00,101.99,0
141.00,107.43,0
135.00,112.46,0
153.00,117.22,0
154.00,121.88,0
110.00,126.11,0
102.00,129.10,0
111.00,130.61,0
96.00,130.92,0
153.00,130.59,0
61.00,129.85,0
72.00,127.87,0
89.00,124.57,0
40.00,120.35,0
37.00,114.83,0
92.00,108.56,0
38.00,102.35,0
77.00,96.27,0
130.00,91.12,0
79.00,87.64,0
83.00,85.16,0
119.00,83.47,0
101.00,82.92,0
147.00,83.62,0
205.00,86.34,0
106.00,91.08,0
121.00,96.11,0
114.00,100.58,0
138.00,104.68,0
145.00,108.75,0
142.00,112.97,0
153.00,117.26,0
135.00,121.46,0
127.00,125.18,0
104.00,127.93,0
114.00,129.51,0
112.00,130.10,0
88.00,129.76,0
161.00,128.93,0
63.00,127.94,0
103.00,126.20,0
89.00,123.64,0
50.00,120.35,0
55.00,115.90,0
38.00,110.34,0
47.00,103.92,0
77.00,97.33,0
61.00,91.27,0
103.00,86.14,0
107.00,82.48,0
108.00,80.50,0
71.00,79.58,0
132.00,79.42,0
157.00,80.73,0
149.00,83.99,0
142.00,88.65,0
112.00,93.74,0
139.00,98.68,0
145.00,103.60,0
250.00,109.53,0
133.00,116.85,0
133.00,123.90,0
127.00,129.52,0
108.00,133.59,0
108.00,136.00,0
103.00,136.87,0
116.00,136.56,0
71.00,135.17,0
81.00,132.46,0
114.00,128.89,0
84.00,125.17,0
56.00,121.00,0
99.00,116.27,0
41.00,111.27,0
49.00,105.69,0
97.00,99.90,0
51.00,94.64,0
80.00,89.81,0
148.00,86.14,0
112.00,84.53,0
114.00,84.52,0
104.00,85.39,0
99.00,86.70,0
111.00,88.25,0
149.00,90.38,0
158.00,93.71,0
127.00,98.03,0
139.00,102.62,0
134.00,107.17,0
152.00,111.71,0
143.00,116.26,0
150.00,120.73,0
97.00,124.60,0
130.00,127.34,0
122.00,129.18,0
102.00,130.24,0
99.00,130.25,0
86.00,129.14,0
63.00,126.79,0
85.00,123.24,0
88.00,119.15,0
64.00,114.78,0
60.00,109.95,0
75.00,104.79,0
41.00,99.48,0
39.00,93.77,0
75.00,87.93,0
82.00,82.83,0
109.00,79.08,0
198.00,77.73,0
126.00,79.34,0
100.00,82.49,0
110.00,85.75,0
66.00,88.58,0
125.00,90.84,0
112.00,93.10,0
123.00,95.63,0
111.00,98.26,0
154.00,101.14,0
134.00,104.55,0
122.00,108.17,0
127.00,111.53,0
111.00,114.42,0
129.00,116.78,0
102.00,118.61,0
147.00,120.04,0
121.00,121.43,0
74.00,122.31,0
103.00,122.00,0
93.00,120.82,0
81.00,119.00,0
168.00,117.17,0
49.00,115.76,0
44.00,113.41,0
131.00,110.12,0
70.00,107.08,0
77.00,104.10,0
111.00,101.17,0
145.00,99.26,0
112.00,98.78,0
202.00,99.87,0
112.00,102.55,0
108.00,105.62,0
84.00,107.86,0
94.00,109.05,0
148.00,109.83,0
179.00,111.49,0
127.00,114.32,0
141.00,117.43,0
114.00,120.23,0
142.00,122.61,0
147.00,124.87,0
189.00,127.62,0
157.00,131.12,0
159.00,134.93,0
105.00,138.15,0
104.00,139.95,0
90.00,140.02,0
45.00,138.20,0
74.00,134.34,0
75.00,129.20,0
66.00,123.41,0
74.00,117.27,0
56.00,110.95,0
49.00,104.43,0
89.00,98.03,0
39.00,92.13,0
64.00,86.50,0
89.00,81.48,0
98.00,77.79,0
99.00,75.57,0
190.00,75.41,0
122.00,77.77,0
118.00,81.54,0
119.00,85.65,0
155.00,90.15,0
117.00,95.12,0
237.00,100.92,0
134.00,107.98,0
167.00,115.32,0
150.00,122.20,0
136.00,128.36,0
136.00,133.42,0
127.00,137.27,0
113.00,139.82,0
108.00,140.96,0
120.00,140.86,0
115.00,139.96,0
53.00,137.98,0
105.00,134.61,0
75.00,130.39,0
50.00,125.41,0
59.00,119.42,0
102.00,113.15,0
41.00,107.15,0
50.00,100.98,0
108.00,95.02,0
90.00,90.29,0
69.00,86.66,0
116.00,83.87,0
80.00,82.13,0
117.00,81.35,0
189.00,82.20,0
128.00,85.30,0
123.00,89.52,0
107.00,93.74,0
146.00,97.85,0
141.00,102.19,0
157.00,106.94,0
146.00,111.98,0
112.00,116.75,0
181.00,121.06,0
138.00,125.40,0
102.00,129.17,0
127.00,131.65,0
111.00,133.04,0
110.00,133.48,0
148.00,133.36,0
100.00,133.05,0
121.00,132.28,0
131.00,131.23,0
62.00,129.78,0
37.00,126.76,0
100.00,122.23,0
40.00,117.03,0
46.00,111.10,0
84.00,104.69,0
84.00,98.82,0
87.00,93.90,0
95.00,89.98,0
122.00,87.32,0
117.00,86.18,0
132.00,86.53,0
124.00,88.11,0
111.00,90.46,0
134.00,93.23,0
165.00,96.75,0
144.00,101.26,0
146.00,106.28,0
132.00,111.28,0
127.00,115.84,0
167.00,120.04,0
127.00,124.13,0
135.00,127.73,0
114.00,130.46,0
86.00,131.92,0
78.00,131.68,0
110.00,130.06,0
116.00,127.93,0
52.00,125.35,0
55.00,121.52,0
47.00,116.32,0
42.00,110.09,0
74.00,103.40,0
103.00,97.32,0
73.00,92.40,0
68.00,88.23,0
113.00,84.80,0
98.00,82.65,0
137.00,81.97,0
107.00,82.69,0
151.00,84.68,0
164.00,88.11,0
142.00,92.95,0
141.00,98.41,0
109.00,103.72,0
112.00,108.22,0
154.00,112.09,0
198.00,116.44,0
113.00,121.37,0
139.00,125.76,0
109.00,129.07,0
108.00,131.15,0
100.00,131.92,0
217.00,132.48,0
87.00,133.65,0
41.00,133.70,0
103.00,131.55,0
49.00,128.02,0
65.00,123.28,0
110.00,118.00,0
46.00,112.83,0
42.00,107.17,0
109.00,101.32,0
79.00,96.32,0
98.00,92.36,0
98.00,89.38,0
105.00,87.45,0
96.00,86.44,0
144.00,86.45,0
115.00,87.72,0
135.00,89.99,0
175.00,93.37,0
110.00,97.76,0
153.00,102.39,0
137.00,107.10,0
137.00,111.79,0
143.00,116.25,0
164.00,120.63,0
140.00,125.03,0
117.00,128.87,0
119.00,131.61,0
99.00,133.09,0
112.00,133.36,0
88.00,132.55,0
140.00,131.10,0
83.00,129.38,0
54.00,126.78,0
109.00,123.10,0
46.00,118.86,0
38.00,113.69,0
120.00,107.99,0
47.00,102.78,0
87.00,97.91,0
102.00,93.64,0
108.00,90.61,0
88.00,88.66,0
101.00,87.42,0
99.00,86.81,0
118.00,86.92,0
127.00,87.95,0
116.00,89.85,0
123.00,92.31,0
114.00,95.07,0
122.00,97.92,0
148.00,101.03,0
148.00,104.74,0
109.00,108.66,0
134.00,112.18,0
127.00,115.32,0
120.00,118.08,0
108.00,120.21,0
120.00,121.62,0
88.00,122.27,0
71.00,121.76,0
89.00,119.98,0
122.00,117.74,0
74.00,115.50,0
50.00,112.63,0
62.00,108.68,0
40.00,103.84,0
68.00,98.47,0
66.00,93.13,0
54.00,88.10,0
80.00,83.46,0
111.00,79.86,0
97.00,77.77,0
112.00,77.06,0
102.00,77.46,0
123.00,78.84,0
126.00,81.19,0
219.00,85.19,0
179.00,91.55,0
126.00,99.18,0
166.00,106.63,0
130.00,113.62,0
144.00,119.89,0
127.00,125.20,0
158.00,129.69,0
109.00,133.38,0
204.00,136.56,0
140.00,139.89,0
143.00,142.98,0
92.00,144.88,0
81.00,144.92,0
72.00,142.88,0
70.00,139.03,0
70.00,133.84,0
65.00,127.75,0
59.00,121.04,0
92.00,114.22,0
67.00,107.82,0
42.00,101.61,0
117.00,95.75,0
70.00,90.99,0
106.00,87.36,0
145.00,85.25,0
127.00,85.15,0
103.00,86.41,0
127.00,88.31,0
74.00,90.38,0
123.00,92.27,0
136.00,94.41,0
140.00,97.34,0
112.00,100.72,0
145.00,104.16,0
126.00,107.70,0
153.00,111.37,0
154.00,115.32,0
88.00,119.05,0
114.00,121.62,0
116.00,123.11,0
109.00,123.93,0
92.00,123.99,0
123.00,123.37,0
81.00,122.28,0
54.00,120.20,0
80.00,116.89,0
86.00,112.97,0
79.00,109.00,0
100.00,105.22,0
56.00,101.64,0
64.00,97.84,0
61.00,93.75,0
84.00,89.77,0
99.00,86.50,0
118.00,84.44,0
142.00,84.03,0
125.00,85.29,0
118.00,87.66,0
123.00,90.56,0
123.00,93.79,0
134.00,97.30,0
176.00,101.44,0
135.00,106.37,0
125.00,111.31,0
148.00,115.79,0
127.00,119.90,0
126.00,123.42,0
175.00,126.59,0
114.00,129.70,0
114.00,132.05,0
88.00,133.02,0
99.00,132.58,0
55.00,130.69,0
85.00,127.35,0
75.00,123.08,0
88.00,118.43,0
86.00,113.78,0
64.00,109.15,0
40.00,104.13,0
72.00,98.65,0
64.00,93.28,0
47.00,88.16,0
82.00,83.33,0
68.00,79.21,0
88.00,75.99,0
84.00,73.74,0
137.00,72.83,0
136.00,73.83,0
134.00,76.63,0
140.00,80.73,0
145.00,85.80,0
137.00,91.48,0
151.00,97.49,0
167.00,103.84,0
179.00,110.72,0
158.00,117.93,0
121.00,124.60,0
113.00,129.79,0
142.00,133.49,0
105.00,136.04,0
138.00,137.53,0
86.00,137.98,0
87.00,137.05,0
125.00,134.99,0
68.00,132.32,0
48.00,128.47,0
50.00,123.07,0
44.00,116.49,0
48.00,109.19,0
47.00,101.57,0
75.00,94.23,0
87.00,87.89,0
82.00,82.89,0
120.00,79.41,0
144.00,78.02,0
118.00,78.73,0
134.00,80.89,0
125.00,84.08,0
114.00,87.86,0
129.00,91.80,0
144.00,96.03,0
145.00,100.71,0
137.00,105.65,0
150.00,110.62,0
175.00,115.79,0
127.00,121.09,0
135.00,125.78,0
122.00,129.47,0
106.00,132.01,0
78.00,132.98,0
124.00,132.51,0
168.00,131.87,0
90.00,131.56,0
78.00,130.50,0
114.00,128.36,0
58.00,125.50,0
59.00,121.55,0
148.00,117.22,0
46.00,113.36,0
61.00,109.18,0
52.00,104.21,0
55.00,98.81,0
38.00,93.08,0
112.00,87.66,0
85.00,83.51,0
129.00,80.98,0
136.00,80.34,0
97.00,81.33,0
135.00,83.23,0
122.00,85.96,0
156.00,89.63,0
127.00,94.08,0
214.00,99.51,0
136.00,106.05,0
127.00,112.59,0
102.00,117.90,0
123.00,121.80,0
144.00,124.79,0
207.00,128.03,0
89.00,131.62,0
90.00,133.93,0
116.00,134.44,0
80.00,133.70,0
78.00,131.66,0
48.00,128.10,0
67.00,123.16,0
45.00,117.24,0
40.00,110.49,0
55.00,103.19,0
59.00,95.96,0
91.00,89.47,0
97.00,84.38,0
83.00,80.77,0
85.00,78.22,0
120.00,76.78,0
130.00,76.90,0
135.00,78.72,0
208.00,82.52,0
127.00,88.27,0
168.00,94.96,0
130.00,101.81,0
153.00,108.44,0
129.00,114.56,0
161.00,120.16,0
148.00,125.39,0
130.00,130.07,0
122.00,133.71,0
102.00,135.98,0
120.00,136.90,0
178.00,137.37,0
96.00,137.92,0
99.00,137.65,0
106.00,136.22,0
64.00,133.71,0
58.00,129.81,0
114.00,125.00,0
37.00,119.88,0
37.00,113.85,0
92.00,107.21,0
53.00,100.88,0
61.00,94.88,0
109.00,89.53,0
62.00,85.33,0
80.00,81.90,0
176.00,79.88,0
99.00,80.07,0
116.00,81.62,0
162.00,84.16,0
104.00,87.82,0
124.00,91.77,0
136.00,95.77,0
140.00,100.07,0
133.00,104.57,0
146.00,109.09,0
150.00,113.68,0
154.00,118.37,0
138.00,122.95,0
114.00,126.87,0
128.00,129.73,0
126.00,131.71,0
98.00,132.82,0
98.00,132.74,0
85.00,131.42,0
88.00,129.01,0
73.00,125.70,0
70.00,121.54,0
86.00,116.82,0
79.00,112.03,0
68.00,107.27,0
156.00,103.17,0
44.00,100.15,0
77.00,97.20,0
96.00,94.18,0
93.00,91.76,0
99.00,90.04,0
96.00,88.95,0
127.00,88.63,0
112.00,89.27,0
139.00,90.86,0
116.00,93.25,0
115.00,96.00,0
133.00,98.88,0
140.00,102.10,0
134.00,105.69,0
112.00,109.22,0
138.00,112.40,0
130.00,115.38,0
138.00,118.25,0
174.00,121.33,0
123.00,124.68,0
91.00,127.34,0
110.00,128.58,0
86.00,128.55,0
71.00,127.20,0
104.00,124.72,0
120.00,122.01,0
76.00,119.39,0
45.00,116.09,0
44.00,111.48,0
59.00,105.87,0
40.00,99.78,0
65.00,93.54,0
80.00,87.77,0
101.00,83.18,0
107.00,80.15,0
120.00,78.78,0
66.00,78.54,0
101.00,78.69,0
117.00,79.38,0
111.00,80.96,0
142.00,83.45,0
145.00,87.06,0
175.00,91.94,0
137.00,97.82,0
118.00,103.74,0
152.00,109.15,0
216.00,114.91,0
133.00,121.43,0
127.00,127.40,0
112.00,131.86,0
128.00,134.85,0
104.00,136.57,0
187.00,137.68,0
92.00,138.69,0
38.00,138.25,0
72.00,135.34,0
80.00,130.82,0
44.00,125.35,0
41.00,118.79,0
57.00,111.38,0
46.00,103.74,0
46.00,96.11,0
94.00,89.05,0
52.00,83.12,0
57.00,77.96,0
143.00,74.01,0
121.00,72.40,0
176.00,73.40,0
113.00,76.58,0
97.00,80.56,0
120.00,84.46,0
186.00,88.95,0
137.00,94.62,0
139.00,100.73,0
131.00,106.57,0
162.00,112.13,0
153.00,117.67,0
154.00,123.14,0
97.00,127.83,0
77.00,130.68,0
114.00,131.57,0
111.00,131.32,0
105.00,130.43,0
94.00,128.87,0
110.00,126.76,0
63.00,124.08,0
46.00,120.27,0
70.00,115.27,0
37.00,109.49,0
74.00,103.28,0
66.00,97.23,0
64.00,91.65,0
54.00,86.43,0
94.00,81.80,0
82.00,78.26,0
100.00,75.93,0
127.00,75.04,0
104.00,75.66,0
146.00,77.60,0
137.00,80.92,0
148.00,85.47,0
133.00,90.77,0
203.00,96.89,0
152.00,104.06,0
166.00,111.62,0
135.00,118.79,0
139.00,125.07,0
146.00,130.32,0
132.00,134.66,0
159.00,138.21,0
38.00,140.37,0
104.00,140.15,0
114.00,138.35,0
75.00,135.75,0
87.00,132.19,0
63.00,127.70,0
69.00,122.40,0
74.00,116.59,0
36.00,110.40,0
48.00,103.66,0
61.00,96.69,0
43.00,89.96,0
43.00,83.44,0
68.00,77.35,0
65.00,72.18,0
190.00,69.06,0
94.00,68.92,0
128.00,70.70,0
133.00,73.71,0
120.00,77.84,0
104.00,82.35,0
124.00,86.78,0
130.00,91.26,0
124.00,95.87,0
135.00,100.42,0
102.00,104.67,0
134.00,108.35,0
118.00,111.59,0
133.00,114.52,0
71.00,116.73,0
104.00,117.68,0
97.00,117.62,0
73.00,116.74,0
56.00,114.70,0
63.00,111.38,0
50.00,107.11,0
49.00,102.09,0
38.00,96.41,0
45.00,90.30,0
75.00,84.36,0
59.00,79.15,0
60.00,74.67,0
98.00,71.08,0
101.00,68.95,0
94.00,68.32,0
140.00,69.13,0
100.00,71.36,0
130.00,74.60,0
144.00,78.75,0
157.00,84.04,0
161.00,90.38,0
103.00,97.04,0
123.00,102.94,0
160.00,108.22,0
168.00,113.71,0
116.00,119.17,0
121.00,123.69,0
107.00,126.89,0
127.00,128.93,0
105.00,130.07,0
146.00,130.63,0
119.00,131.01,0
127.00,131.18,0
99.00,130.89,0
71.00,129.60,0
38.00,126.63,0
84.00,122.10,0
41.00,116.68,0
68.00,110.63,0
190.00,105.41,0
65.00,102.19,0
86.00,99.72,0
94.00,97.28,0
90.00,95.22,0
84.00,93.46,0
108.00,92.07,0
125.00,91.48,0
101.00,91.79,0
136.00,92.81,0
162.00,94.94,0
128.00,98.28,0
141.00,102.18,0
136.00,106.27,0
161.00,110.60,0
151.00,115.28,0
173.00,120.28,0
119.00,125.19,0
133.00,129.28,0
105.00,132.17,0
127.00,133.89,0
129.00,134.80,0
201.00,135.87,0
42.00,136.93,0
64.00,136.10,0
42.00,132.76,0
56.00,127.47,0
51.00,120.94,0
112.00,114.21,0
42.00,107.94,0
62.00,101.74,0
88.00,95.77,0
70.00,90.61,0
69.00,86.14,0
102.00,82.47,0
102.00,80.04,0
134.00,79.20,0
173.00,80.43,0
133.00,83.76,0
125.00,88.18,0
110.00,92.70,0
148.00,97.15,0
154.00,101.94,0
136.00,107.10,0
155.00,112.28,0
105.00,117.06,0
97.00,120.65,0
150.00,123.09,0
120.00,125.15,0
128.00,126.86,0
106.00,127.96,0
102.00,128.19,0
87.00,127.43,0
100.00,125.74,0
95.00,123.46,0
48.00,120.43,0
89.00,116.47,0
48.00,111.88,0
46.00,106.59,0
56.00,100.67,0
37.00,94.46,0
82.00,88.38,0
103.00,83.35,0
104.00,80.01,0
112.00,78.33,0
120.00,78.18,0
115.00,79.34,0
108.00,81.39,0
130.00,84.06,0
140.00,87.51,0
150.00,91.86,0
153.00,97.04,0
152.00,102.81,0
142.00,108.75,0
141.00,114.43,0
132.00,119.57,0
89.00,123.61,0
98.00,125.97,0
113.00,126.87,0
92.00,126.80,0
91.00,125.77,0
82.00,123.78,0
77.00,120.91,0
86.00,117.39,0
63.00,113.42,0
56.00,108.87,0
49.00,103.66,0
37.00,97.85,0
70.00,91.80,0
71.00,86.22,0
66.00,81.42,0
92.00,77.53,0
89.00,74.80,0
56.00,72.96,0
120.00,71.80,0
145.00,72.18,0
141.00,74.63,0
122.00,78.56,0
113.00,83.06,0
132.00,87.70,0
142.00,92.61,0
235.00,98.66,0
154.00,106.32,0
124.00,114.13,0
106.00,120.49,0
130.00,125.19,0
121.00,128.66,0
137.00,131.25,0
123.00,133.17,0
85.00,134.09,0
114.00,133.72,0
127.00,132.66,0
72.00,131.11,0
100.00,128.66,0
58.00,125.27,0
46.00,120.68,0
59.00,114.96,0
61.00,108.67,0
37.00,102.12,0
41.00,95.20,0
72.00,88.37,0
53.00,82.23,0
110.00,77.22,0
84.00,73.82,0
105.00,71.95,0
119.00,71.58,0
139.00,72.92,0
145.00,76.01,0
142.00,80.55,0
131.00,85.97,0
134.00,91.69,0
126.00,97.34,0
136.00,102.73,0
146.00,107.92,0
122.00,112.85,0
113.00,117.01,0
141.00,120.36,0
113.00,123.12,0
211.00,125.92,0
127.00,129.35,0
107.00,132.41,0
101.00,134.03,0
79.00,134.03,0
84.00,132.45,0
151.00,130.15,0
40.00,127.62,0
50.00,123.81,0
39.00,118.30,0
40.00,111.60,0
52.00,104.24,0
93.00,97.15,0
70.00,91.10,0
79.00,86.07,0
66.00,81.82,0
100.00,78.47,0
102.00,76.37,0
126.00,75.80,0
148.00,77.01,0
121.00,79.88,0
148.00,83.86,0
119.00,88.53,0
150.00,93.59,0
135.00,98.93,0
143.00,104.36,0
135.00,109.63,0
127.00,114.47,0
115.00,118.53,0
133.00,121.75,0
120.00,124.31,0
109.00,126.12,0
90.00,126.87,0
87.00,126.35,0
89.00,124.72,0
59.00,122.01,0
59.00,118.10,0
42.00,113.04,0
39.00,106.95,0
111.00,100.69,0
46.00,95.14,0
61.00,89.96,0
127.00,85.48,0
103.00,82.72,0
108.00,81.53,0
106.00,81.45,0
118.00,82.32,0
124.00,84.12,0
153.00,87.01,0
128.00,90.94,0
130.00,95.36,0
140.00,99.94,0
98.00,104.32,0
128.00,108.03,0
143.00,111.39,0
139.00,114.83,0
184.00,118.65,0
146.00,123.02,0
104.00,127.08,0
104.00,129.74,0
99.00,130.88,0
75.00,130.52,0
140.00,129.15,0
59.00,127.27,0
47.00,124.15,0
112.00,119.86,0
52.00,115.30,0
42.00,110.17,0
114.00,104.68,0
55.00,99.74,0
79.00,95.18,0
135.00,91.45,0
123.00,89.49,0
93.00,88.96,0
90.00,88.91,0
113.00,89.12,0
104.00,89.80,0
145.00,91.21,0
131.00,93.59,0
119.00,96.66,0
158.00,100.15,0
138.00,104.22,0
165.00,108.82,0
149.00,113.82,0
183.00,119.20,0
139.00,124.75,0
104.00,129.51,0
130.00,132.79,0
100.00,134.73,0
96.00,135.28,0
115.00,134.57,0
112.00,133.21,0
66.00,131.12,0
107.00,128.11,0
80.00,124.56,0
51.00,120.38,0
114.00,115.68,0
45.00,110.97,0
38.00,105.72,0
42.00,99.59,0
50.00,93.06,0
62.00,86.71,0
88.00,81.18,0
89.00,77.00,0
107.00,74.35,0
128.00,73.46,0
125.00,74.37,0
125.00,76.75,0
136.00,80.24,0
106.00,84.41,0
128.00,88.72,0
148.00,93.26,0
175.00,98.60,0
137.00,104.65,0
144.00,110.68,0
109.00,116.02,0
130.00,120.30,0
133.00,123.73,0
216.00,127.30,0
100.00,131.31,0
94.00,134.24,0
103.00,135.26,0
114.00,135.00,0
44.00,133.44,0
45.00,129.87,0
64.00,124.53,0
69.00,118.36,0
38.00,111.74,0
66.00,104.75,0
62.00,97.90,0
46.00,91.41,0
86.00,85.44,0
88.00,80.61,0
81.00,77.11,0
108.00,74.86,0
109.00,74.03,0
111.00,74.56,0
178.00,76.70,0
127.00,80.71,0
91.00,85.42,0
122.00,89.73,0
166.00,94.17,0
112.00,99.11,0
234.00,104.75,0
138.00,111.49,0
134.00,118.25,0
134.00,123.94,0
135.00,128.61,0
127.00,132.29,0
114.00,134.87,0
97.00,136.12,0
56.00,135.57,0
95.00,133.20,0
84.00,129.72,0
50.00,125.39,0
43.00,119.83,0
93.00,113.55,0
42.00,107.25,0
41.00,100.72,0
120.00,94.46,0
42.00,89.25,0
62.00,84.54,0
105.00,80.40,0
70.00,77.43,0
108.00,75.52,0
101.00,74.78,0
119.00,75.28,0
119.00,76.95,0
190.00,80.19,0
126.00,85.17,0
155.00,91.06,0
139.00,97.29,0
153.00,103.65,0
170.00,110.12,0
118.00,116.46,0
127.00,121.82,0
127.00,126.00,0
103.00,129.02,0
157.00,131.09,0
119.00,132.76,0
103.00,133.76,0
97.00,133.59,0
88.00,132.22,0
117.00,130.03,0
131.00,127.82,0
63.00,125.56,0
53.00,122.25,0
81.00,117.76,0
42.00,112.59,0
37.00,106.59,0
126.00,100.51,0
50.00,95.37,0
54.00,90.62,0
178.00,86.80,0
104.00,85.27,0
66.00,85.02,0
102.00,84.81,0
106.00,84.96,0
99.00,85.67,0
119.00,86.88,0
142.00,88.88,0
157.00,92.09,0
128.00,96.30,0
123.00,100.75,0
116.00,104.84,0
120.00,108.42,0
148.00,111.71,0
106.00,114.84,0
147.00,117.60,0
125.00,120.16,0
104.00,122.27,0
104.00,123.43,0
120.00,123.81,0
89.00,123.58,0
69.00,122.36,0
76.00,119.89,0
54.00,116.31,0
39.00,111.61,0
74.00,106.05,0
43.00,100.23,0
47.00,94.19,0
88.00,88.36,0
74.00,83.46,0
90.00,79.67,0
124.00,77.28,0
129.00,76.76,0
105.00,77.87,0
133.00,80.03,0
107.00,82.97,0
126.00,86.36,0
194.00,90.65,0
136.00,96.28,0
145.00,102.42,0
110.00,108.14,0
138.00,113.06,0
165.00,117.62,0
150.00,122.30,0
138.00,126.80,0
145.00,130.75,0
112.00,133.89,0
127.00,135.94,0
116.00,136.99,0
95.00,137.02,0
94.00,135.82,0
68.00,133.33,0
91.00,129.68,0
67.00,125.24,0
69.00,120.17,0
48.00,114.42,0
58.00,108.11,0
62.00,101.63,0
52.00,95.26,0
74.00,89.26,0
52.00,83.84,0
83.00,79.10,0
109.00,75.59,0
101.00,73.76,0
115.00,73.45,0
118.00,74.49,0
141.00,76.88,0
123.00,80.49,0
161.00,85.09,0
161.00,90.82,0
135.00,97.28,0
139.00,103.67,0
130.00,109.60,0
118.00,114.75,0
117.00,118.86,0
229.00,122.86,0
258.00,128.71,0
161.00,136.42,0
105.00,143.42,0
110.00,147.97,0
118.00,150.19,0
138.00,150.93,0
148.00,150.97,0
209.00,151.32,0
129.00,152.34,0
117.00,152.89,0
199.00,152.89,0
229.00,153.99,0
266.00,157.41,0
127.00,162.13,0
211.00,166.41,0
214.00,170.46,0
130.00,174.27,0
307.00,177.85,0
240.00,182.82,0
318.00,189.73,0
199.00,197.60,0
153.00,204.22,0
203.00,208.32,0
127.00,210.20,0
167.00,209.85,0
254.00,208.55,0
174.00,207.68,0
174.00,206.57,0
227.00,205.08,0
133.00,203.46,0
171.00,200.99,0
192.00,197.97,0
206.00,195.43,0
195.00,193.64,0
174.00,192.24,0
250.00,191.38,0
127.00,191.02,0
227.00,190.47,0
258.00,190.69,0
126.00,191.74,0
189.00,191.96,0
235.00,191.90,0
223.00,192.81,0
158.00,194.07,0
224.00,194.91,0
354.00,197.05,0
193.00,201.45,0
252.00,206.35,0
170.00,210.41,0
232.00,213.34,0
155.00,215.03,0
164.00,215.03,0
142.00,213.10,0
213.00,210.05,0
114.00,206.42,0
199.00,202.13,0
167.00,197.79,0
132.00,193.45,0
157.00,188.61,0
170.00,183.79,0
147.00,179.38,0
209.00,175.66,0
143.00,172.87,0
152.00,170.39,0
296.00,169.02,0
233.00,170.49,0
131.00,173.34,0
221.00,175.70,0
132.00,177.50,0
193.00,178.61,0
241.00,179.82,0
202.00,182.04,0
280.00,185.36,0
156.00,189.34,0
306.00,193.53,0
294.00,199.10,0
177.00,205.62,0
165.00,210.50,0
213.00,213.19,0
132.00,214.16,0
179.00,213.25,0
141.00,210.72,0
190.00,207.22,0
168.00,203.41,0
137.00,199.28,0
144.00,194.40,0
147.00,188.98,0
107.00,183.12,0
277.00,177.89,0
148.00,174.74,0
199.00,172.93,0
118.00,171.32,0
186.00,169.57,0
109.00,167.58,0
257.00,165.99,0
148.00,165.67,0
143.00,165.69,0
184.00,165.33,0
123.00,164.84,0
291.00,164.98,0
135.00,166.57,0
116.00,167.86,0
231.00,168.24,0
173.00,169.18,0
248.00,171.12,0
174.00,173.89,0
286.00,177.54,0
213.00,182.35,0
192.00,187.45,0
185.00,191.60,0
137.00,194.18,0
147.00,194.74,0
160.00,193.62,0
150.00,191.46,0
165.00,188.66,0
138.00,185.41,0
115.00,181.41,0
142.00,176.59,0
172.00,171.81,0
227.00,168.40,0
123.00,166.42,0
228.00,165.21,0
237.00,165.59,0
154.00,167.49,0
242.00,169.89,0
148.00,172.60,0
271.00,175.64,0
134.00,178.94,0
114.00,180.94,0
250.00,181.55,0
304.00,183.61,0
190.00,187.77,0
289.00,192.76,0
198.00,198.17,0
169.00,202.79,0
198.00,205.65,0
177.00,207.17,0
180.00,207.52,0
238.00,207.34,0
201.00,207.42,0
169.00,207.31,0
129.00,205.89,0
155.00,202.82,0
136.00,198.55,0
131.00,193.35,0
224.00,188.14,0
188.00,184.30,0
89.00,180.99,0
160.00,176.84,0
250.00,173.28,0
124.00,171.33,0
157.00,169.59,0
105.00,167.15,0
251.00,164.88,0
152.00,163.95,0
311.00,165.00,0
168.00,168.10,0
130.00,171.32,0
187.00,173.19,0
333.00,175.81,0
170.00,180.43,0
175.00,184.99,0
260.00,188.79,0
182.00,192.67,0
225.00,196.28,0
196.00,199.37,0
166.00,201.60,0
226.00,202.85,0
168.00,203.60,0
183.00,203.59,0
150.00,202.50,0
135.00,200.08,0
118.00,196.11,0
186.00,191.18,0
138.00,186.31,0
148.00,181.49,0
130.00,176.50,0
170.00,171.64,0
113.00,167.09,0
227.00,163.26,0
252.00,161.72,0
137.00,162.37,0
288.00,164.23,0
144.00,167.28,0
294.00,171.27,0
241.00,176.65,0
201.00,182.99,0
103.00,187.92,0
178.00,190.29,0
142.00,190.77,0
259.00,190.80,0
214.00,191.73,0
208.00,193.50,0
170.00,195.06,0
353.00,197.24,0
339.00,202.45,0
230.00,210.12,0
201.00,217.27,0
172.00,222.16,0
157.00,224.33,0
133.00,223.70,0
127.00,220.37,0
139.00,214.91,0
166.00,208.36,0
178.00,201.86,0
130.00,195.64,0
188.00,189.61,0
162.00,184.29,0
234.00,180.31,0
225.00,178.41,0
130.00,177.78,0
185.00,176.95,0
96.00,175.41,0
257.00,173.68,0
148.00,172.87,0
107.00,172.00,0
121.00,169.63,0
192.00,166.70,0
118.00,164.11,0
248.00,162.30,0
155.00,161.91,0
220.00,162.69,0
148.00,164.04,0
242.00,165.92,0
364.00,170.08,0
214.00,177.40,0
300.00,186.11,0
199.00,194.96,0
159.00,202.33,0
168.00,206.90,0
151.00,208.84,0
174.00,208.75,0
153.00,207.18,0
159.00,204.41,0
150.00,200.66,0
157.00,196.28,0
117.00,191.26,0
138.00,185.49,0
106.00,179.10,0
191.00,172.80,0
148.00,167.55,0
139.00,163.20,0
93.00,158.79,0
208.00,154.60,0
117.00,151.49,0
171.00,149.17,0
148.00,147.50,0
143.00,146.40,0
178.00,145.78,0
136.00,145.74,0
279.00,146.90,0
157.00,149.95,0
220.00,154.04,0
184.00,158.51,0
388.00,164.70,0
234.00,173.86,0
311.00,184.71,0
164.00,195.27,0
152.00,203.40,0
144.00,207.85,0
143.00,209.20,0
229.00,208.75,0
135.00,207.59,0
113.00,204.91,0
143.00,200.27,0
124.00,194.47,0
141.00,188.02,0
127.00,181.31,0
237.00,175.44,0
107.00,171.03,0
200.00,167.40,0
110.00,164.21,0
143.00,161.01,0
261.00,158.69,0
136.00,158.29,0
240.00,159.14,0
174.00,161.05,0
111.00,162.95,0
178.00,163.76,0
172.00,164.24,0
288.00,165.85,0
152.00,169.05,0
264.00,172.96,0
227.00,177.71,0
180.00,182.87,0
285.00,187.95,0
280.00,194.11,0
208.00,201.05,0
164.00,206.78,0
226.00,210.60,0
129.00,212.70,0
152.00,212.51,0
156.00,210.23,0
165.00,206.74,0
146.00,202.48,0
150.00,197.57,0
136.00,192.10,0
150.00,186.34,0
271.00,181.65,0
155.00,179.07,0
237.00,177.95,0
157.00,177.70,0
131.00,177.28,0
88.00,175.29,0
227.00,172.41,0
127.00,170.04,0
167.00,167.98,0
219.00,166.47,0
170.00,166.23,0
385.00,168.37,0
264.00,174.37,0
344.00,183.50,0
383.00,195.39,0
474.00,211.10,0
317.00,229.61,0
418.00,248.73,0
398.00,267.82,0
227.00,285.38,0
177.00,297.78,0
167.00,303.55,0
165.00,303.51,0
158.00,298.92,0
209.00,291.26,0
196.00,282.20,0
169.00,272.33,0
118.00,261.23,0
153.00,248.78,0
140.00,235.75,0
220.00,223.44,0
454.00,215.24,0
180.00,212.69,0
194.00,212.06,0
290.00,211.66,0
247.00,212.80,0
345.00,215.95,0
243.00,220.95,0
143.00,225.50,0
261.00,228.03,0
512.00,232.16,0
315.00,240.83,0
352.00,251.84,0
215.00,262.06,0
284.00,269.97,0
272.00,275.78,0
505.00,282.09,0
469.00,292.07,0
296.00,304.35,0
206.00,314.12,0
232.00,318.93,0
382.00,320.72,0
249.00,321.77,0
158.00,320.51,0
142.00,314.82,0
246.00,305.74,0
185.00,295.53,0
219.00,284.91,0
152.00,273.83,0
238.00,262.66,0
237.00,252.63,0
212.00,244.30,0
146.00,236.55,0
382.00,230.16,0
210.00,226.95,0
327.00,226.33,0
198.00,227.15,0
123.00,227.25,0
139.00,224.68,0
204.00,220.30,0
142.00,215.39,0
254.00,210.67,0
387.00,208.68,0
276.00,211.04,0
460.00,217.40,0
303.00,227.43,0
368.00,239.37,0
245.00,251.17,0
406.00,262.27,0
157.00,272.06,0
321.00,279.14,0
266.00,284.09,0
298.00,287.98,0
157.00,289.83,0
258.00,288.86,0
186.00,285.68,0
227.00,280.91,0
222.00,275.10,0
216.00,268.92,0
171.00,262.15,0
303.00,255.46,0
248.00,250.41,0
316.00,247.49,0
182.00,245.86,0
226.00,243.98,0
127.00,240.77,0
395.00,237.60,0
187.00,236.46,0
330.00,236.85,0
430.00,239.89,0
245.00,246.12,0
380.00,253.46,0
214.00,260.74,0
459.00,268.11,0
160.00,275.53,0
443.00,282.16,0
247.00,288.56,0
554.00,296.19,0
280.00,305.71,0
366.00,315.07,0
198.00,321.78,0
242.00,324.55,0
200.00,323.22,0
233.00,318.73,0
290.00,312.71,0
230.00,306.43,0
148.00,298.92,0
230.00,289.60,0
156.00,279.26,0
220.00,268.47,0
202.00,257.98,0
270.00,248.87,0
303.00,242.36,0
218.00,238.43,0
200.00,235.32,0
341.00,233.11,0
272.00,233.25,0
174.00,234.40,0
295.00,235.08,0
285.00,236.50,0
275.00,239.18,0
362.00,243.21,0
288.00,248.86,0
320.00,255.33,0
373.00,262.53,0
221.00,269.95,0
428.00,276.94,0
425.00,285.51,0
304.00,295.61,0
394.00,305.32,0
350.00,314.52,0
153.00,321.42,0
203.00,323.16,0
161.00,319.70,0
202.00,312.52,0
158.00,302.73,0
213.00,291.32,0
160.00,279.18,0
221.00,266.96,0
165.00,255.19,0
260.00,244.51,0
356.00,236.91,0
303.00,233.83,0
290.00,234.13,0
318.00,236.54,0
383.00,241.36,0
197.00,247.62,0
451.00,254.34,0
254.00,262.19,0
288.00,269.81,0
305.00,276.06,0
376.00,282.21,0
419.00,289.78,0
283.00,298.34,0
205.00,304.81,0
346.00,308.22,0
384.00,311.20,0
458.00,316.20,0
354.00,323.23,0
315.00,330.13,0
247.00,334.62,0
287.00,336.00,0
266.00,334.97,0
276.00,332.16,0
194.00,327.36,0
229.00,320.29,0
145.00,310.88,0
216.00,299.51,0
194.00,287.32,0
253.00,275.63,0
323.00,266.10,0
360.00,260.46,0
187.00,257.75,0
346.00,256.10,0
203.00,255.32,0
379.00,255.64,0
283.00,257.71,0
277.00,260.87,0
287.00,263.94,0
370.00,267.62,0
299.00,272.55,0
293.00,277.70,0
243.00,281.76,0
269.00,284.19,0
245.00,285.11,0
338.00,285.46,0
348.00,286.77,0
189.00,288.40,0
322.00,288.76,0
155.00,287.67,0
238.00,284.52,0
226.00,279.79,0
202.00,274.30,0
159.00,267.60,0
129.00,259.02,0
126.00,248.44,0
140.00,236.50,0
182.00,224.48,0
150.00,213.32,0
249.00,203.82,0
150.00,196.46,0
211.00,190.65,0
183.00,186.17,0
273.00,183.63,0
281.00,183.97,0
385.00,188.22,0
290.00,196.30,0
192.00,205.50,0
184.00,212.79,0
225.00,217.78,0
155.00,220.89,0
248.00,222.43,0
130.00,222.70,0
192.00,221.30,0
246.00,219.21,0
199.00,217.66,0
280.00,216.94,0
313.00,218.07,0
208.00,220.92,0
227.00,223.68,0
134.00,224.95,0
218.00,224.37,0
174.00,222.68,0
174.00,220.14,0
113.00,216.16,0
194.00,210.93,0
127.00,205.18,0
214.00,199.48,0
175.00,194.59,0
153.00,190.36,0
190.00,186.41,0
150.00,182.88,0
188.00,179.76,0
121.00,176.80,0
199.00,173.90,0
136.00,171.36,0
225.00,169.52,0
287.00,169.74,0
138.00,172.04,0
151.00,174.00,0
263.00,175.55,0
122.00,177.52,0
265.00,179.53,0
194.00,182.11,0
312.00,186.03,0
191.00,191.20,0
201.00,196.21,0
225.00,200.29,0
216.00,203.93,0
205.00,207.09,0
275.00,210.08,0
118.00,212.62,0
183.00,213.27,0
138.00,211.83,0
173.00,208.97,0
184.00,205.41,0
173.00,201.81,0
143.00,197.97,0
189.00,193.86,0
245.00,190.65,0
246.00,189.56,0
114.00,189.49,0
146.00,188.28,0
135.00,185.62,0
277.00,183.19,0
177.00,182.44,0
276.00,183.32,0
234.00,185.89,0
143.00,189.03,0
186.00,191.00,0
209.00,192.16,0
239.00,193.66,0
159.00,195.40,0
214.00,196.62,0
316.00,198.52,0
255.00,202.46,0
274.00,207.87,0
216.00,213.53,0
190.00,218.18,0
162.00,220.75,0
150.00,220.90,0
206.00,219.24,0
160.00,216.70,0
194.00,213.55,0
131.00,209.71,0
231.00,205.54,0
119.00,201.45,0
245.00,197.59,0
136.00,194.28,0
286.00,191.97,0
150.00,190.96,0
142.00,189.90,0
256.00,188.51,0
184.00,188.15,0
196.00,188.43,0
172.00,188.60,0
204.00,188.65,0
244.00,189.26,0
231.00,191.09,0
310.00,194.56,0
148.00,199.03,0
199.00,202.50,0
169.00,204.37,0
341.00,206.29,0
250.00,210.02,0
197.00,214.49,0
271.00,218.36,0
184.00,221.71,0
227.00,224.08,0
174.00,225.19,0
220.00,225.17,0
151.00,224.03,0
172.00,221.50,0
116.00,217.30,0
162.00,211.62,0
162.00,205.26,0
129.00,198.73,0
139.00,191.81,0
184.00,185.09,0
224.00,179.91,0
116.00,176.20,0
206.00,173.03,0
101.00,170.10,0
187.00,167.16,0
100.00,164.16,0
219.00,161.46,0
128.00,159.58,0
186.00,158.33,0
131.00,157.37,0
233.00,157.06,0
188.00,158.10,0
344.00,161.54,0
334.00,168.84,0
232.00,179.08,0
258.00,189.68,0
239.00,199.62,0
249.00,208.72,0
255.00,216.94,0
195.00,223.89,0
202.00,228.77,0
155.00,231.15,0
189.00,231.12,0
136.00,228.96,0
220.00,225.37,0
157.00,221.25,0
176.00,216.69,0
117.00,211.24,0
270.00,205.73,0
174.00,201.61,0
280.00,199.24,0
214.00,198.69,0
127.00,198.61,0
216.00,197.64,0
144.00,196.18,0
208.00,194.47,0
237.00,193.33,0
277.00,194.01,0
203.00,196.32,0
220.00,199.06,0
185.00,201.40,0
344.00,204.25,0
165.00,208.24,0
355.00,212.88,0
203.00,218.28,0
274.00,223.73,0
189.00,228.24,0
246.00,231.55,0
176.00,233.49,0
204.00,233.86,0
136.00,232.36,0
173.00,228.87,0
169.00,224.03,0
189.00,218.73,0
146.00,213.18,0
197.00,207.53,0
181.00,202.33,0
148.00,197.53,0
175.00,192.74,0
365.00,189.86,0
133.00,189.99,0
144.00,190.21,0
173.00,189.00,0
292.00,188.28,0
247.00,189.86,0
216.00,193.09,0
198.00,196.41,0
326.00,200.19,0
375.00,206.60,0
277.00,215.81,0
310.00,225.91,0
184.00,235.06,0
314.00,242.43,0
251.00,248.81,0
244.00,254.19,0
223.00,257.83,0
192.00,259.37,0
150.00,258.22,0
213.00,254.62,0
143.00,249.42,0
159.00,242.69,0
211.00,235.11,0
265.00,228.57,0
155.00,223.45,0
206.00,218.63,0
158.00,213.73,0
328.00,209.96,0
218.00,208.68,0
212.00,208.88,0
161.00,208.77,0
169.00,207.60,0
302.00,206.47,0
252.00,207.27,0
200.00,209.33,0
264.00,211.55,0
183.00,213.77,0
278.00,215.90,0
152.00,217.74,0
206.00,218.46,0
182.00,217.95,0
202.00,216.73,0
169.00,214.88,0
283.00,213.18,0
391.00,214.16,0
215.00,218.36,0
163.00,222.46,0
158.00,224.01,0
232.00,223.66,0
139.00,222.28,0
261.00,220.26,0
161.00,218.24,0
153.00,215.57,0
165.00,211.64,0
182.00,207.16,0
174.00,202.72,0
182.00,198.52,0
125.00,194.25,0
140.00,189.30,0
238.00,184.60,0
120.00,181.00,0
262.00,178.39,0
131.00,176.93,0
94.00,175.08,0
160.00,171.85,0
182.00,168.64,0
153.00,166.23,0
195.00,164.54,0
360.00,165.25,0
393.00,171.18,0
222.00,181.32,0
234.00,191.88,0
272.00,201.50,0
172.00,210.01,0
332.00,217.37,0
261.00,224.82,0
175.00,231.56,0
235.00,236.01,0
183.00,238.43,0
206.00,239.06,0
160.00,237.89,0
197.00,235.11,0
160.00,231.13,0
180.00,226.23,0
143.00,220.51,0
184.00,214.26,0
125.00,207.68,0
167.00,200.78,0
211.00,194.44,0
178.00,189.53,0
324.00,186.87,0
180.00,186.98,0
178.00,188.02,0
108.00,187.91,0
186.00,186.42,0
216.00,184.87,0
176.00,184.14,0
261.00,184.34,0
200.00,185.83,0
279.00,188.58,0
204.00,192.38,0
197.00,196.22,0
270.00,199.82,0
170.00,203.44,0
331.00,207.24,0
187.00,211.69,0
337.00,216.69,0
188.00,222.00,0
273.00,226.85,0
225.00,230.95,0
228.00,234.30,0
157.00,236.04,0
182.00,235.55,0
157.00,232.99,0
226.00,229.31,0
244.00,225.98,0
243.00,223.88,0
129.00,221.99,0
191.00,218.94,0
213.00,215.36,0
181.00,212.12,0
224.00,209.25,0
261.00,207.51,0
137.00,206.62,0
294.00,205.96,0
210.00,206.38,0
152.00,207.03,0
226.00,206.80,0
103.00,205.62,0
262.00,203.68,0
188.00,202.20,0
151.00,200.92,0
207.00,199.06,0
193.00,197.34,0
336.00,197.18,0
200.00,199.36,0
221.00,202.33,0
171.00,204.62,0
203.00,205.93,0
230.00,206.78,0
197.00,207.71,0
215.00,208.48,0
155.00,208.63,0
143.00,207.36,0
148.00,204.42,0
171.00,200.47,0
164.00,196.25,0
177.00,192.13,0
123.00,187.95,0
175.00,183.50,0
122.00,178.97,0
288.00,175.45,0
214.00,174.50,0
116.00,174.87,0
145.00,174.25,0
101.00,172.22,0
211.00,169.59,0
253.00,168.41,0
131.00,168.95,0
239.00,170.00,0
176.00,171.67,0
226.00,174.02,0
320.00,177.88,0
191.00,183.67,0
389.00,191.02,0
174.00,199.74,0
184.00,207.37,0
208.00,212.50,0
273.00,216.59,0
158.00,220.08,0
186.00,221.86,0
153.00,221.55,0
201.00,219.69,0
136.00,216.73,0
139.00,212.40,0
124.00,206.51,0
186.00,199.95,0
151.00,193.70,0
196.00,188.20,0
169.00,183.69,0
148.00,179.82,0
162.00,176.12,0
198.00,173.03,0
142.00,170.74,0
267.00,169.54,0
181.00,170.10,0
197.00,171.73,0
131.00,173.14,0
167.00,173.64,0
211.00,173.88,0
152.00,174.43,0
283.00,175.67,0
161.00,178.07,0
264.00,181.19,0
179.00,184.74,0
282.00,188.80,0
300.00,194.27,0
232.00,201.22,0
208.00,207.87,0
233.00,213.33,0
167.00,217.38,0
175.00,219.40,0
148.00,219.21,0
172.00,217.12,0
162.00,213.76,0
170.00,209.65,0
158.00,205.05,0
190.00,200.36,0
239.00,196.59,0
154.00,194.02,0
236.00,192.12,0
159.00,190.82,0
256.00,190.21,0
231.00,190.91,0
248.00,193.12,0
96.00,195.22,0
274.00,196.27,0
103.00,196.75,0
177.00,196.05,0
231.00,194.72,0
327.00,195.25,0
178.00,197.98,0
257.00,201.27,0
195.00,204.45,0
350.00,208.35,0
190.00,213.40,0
247.00,218.26,0
300.00,222.87,0
169.00,227.40,0
148.00,229.83,0
178.00,229.40,0
149.00,226.86,0
206.00,223.06,0
127.00,218.49,0
210.00,213.33,0
124.00,207.92,0
145.00,201.89,0
164.00,195.42,0
120.00,188.94,0
135.00,182.22,0
244.00,176.33,0
110.00,172.09,0
132.00,168.10,0
282.00,164.94,0
139.00,163.98,0
192.00,164.05,0
194.00,164.61,0
148.00,165.61,0
193.00,166.54,0
215.00,167.94,0
301.00,171.09,0
185.00,176.10,0
232.00,181.54,0
192.00,186.63,0
201.00,191.08,0
199.00,194.70,0
218.00,197.76,0
232.00,200.72,0
151.00,203.22,0
187.00,204.34,0
159.00,204.09,0
156.00,202.64,0
137.00,199.86,0
169.00,196.09,0
116.00,191.62,0
162.00,186.55,0
147.00,181.39,0
129.00,176.29,0
206.00,171.64,0
150.00,168.15,0
245.00,166.15,0
187.00,165.96,0
99.00,166.27,0
267.00,166.40,0
96.00,167.02,0
154.00,167.04,0
91.00,165.63,0
139.00,162.99,0
176.00,160.11,0
159.00,158.00,0
312.00,157.82,0
144.00,160.16,0
211.00,163.33,0
137.00,166.16,0
188.00,168.37,0
256.00,170.84,0
164.00,174.21,0
149.00,177.07,0
128.00,178.25,0
107.00,177.49,0
142.00,175.08,0
157.00,171.98,0
127.00,168.76,0
125.00,165.16,0
111.00,161.01,0
95.00,156.16,0
108.00,150.70,0
170.00,145.54,0
130.00,141.59,0
76.00,138.09,0
138.00,134.34,0
109.00,130.86,0
122.00,127.84,0
82.00,124.91,0
91.00,121.67,0
86.00,118.07,0
99.00,114.42,0
69.00,110.79,0
178.00,107.80,0
110.00,106.39,0
129.00,106.16,0
120.00,106.50,0
170.00,107.71,0
158.00,110.18,0
198.00,114.05,0
139.00,118.97,0
141.00,123.88,0
121.00,127.99,0
124.00,131.06,0
140.00,133.28,0
157.00,135.19,0
117.00,136.89,0
103.00,137.74,0
75.00,137.12,0
103.00,135.05,0
64.00,131.85,0
92.00,127.72,0
103.00,123.26,0
190.00,119.83,0
40.00,117.60,0
100.00,115.07,0
102.00,112.17,0
60.00,109.26,0
52.00,105.70,0
115.00,101.81,0
134.00,98.94,0
76.00,97.28,0
124.00,96.19,0
139.00,96.02,0
181.00,97.54,0
144.00,100.80,0
110.00,104.74,0
141.00,108.44,0
131.00,112.00,0
152.00,115.59,0
263.00,120.26,0
138.00,126.57,0
116.00,132.60,0
109.00,136.75,0
124.00,139.17,0
120.00,140.35,0
188.00,141.17,0
96.00,142.02,0
79.00,141.76,0
121.00,139.98,0
45.00,137.02,0
82.00,132.66,0
137.00,127.82,0
58.00,123.33,0
153.00,119.20,0
98.00,115.94,0
40.00,112.85,0
69.00,108.80,0
87.00,104.31,0
85.00,100.16,0
147.00,97.04,0
125.00,95.62,0
208.00,96.37,0
138.00,99.42,0
173.00,103.89,0
128.00,108.91,0
139.00,113.81,0
115.00,118.07,0
152.00,121.72,0
132.00,125.02,0
134.00,127.94,0
130.00,130.31,0
124.00,132.09,0
122.00,133.19,0
118.00,133.65,0
155.00,133.82,0
112.00,133.99,0
96.00,133.62,0
104.00,132.30,0
88.00,130.16,0
123.00,127.57,0
90.00,124.89,0
122.00,122.23,0
80.00,119.59,0
159.00,117.27,0
94.00,115.71,0
67.00,114.11,0
120.00,112.00,0
141.00,110.39,0
116.00,109.79,0
112.00,109.72,0
145.00,110.04,0
122.00,110.98,0
154.00,112.51,0
127.00,114.54,0
142.00,116.86,0
176.00,119.61,0
127.00,122.87,0
126.00,125.89,0
120.00,128.14,0
128.00,129.70,0
138.00,130.84,0
128.00,131.77,0
137.00,132.52,0
97.00,132.83,0
111.00,132.31,0
86.00,130.90,0
91.00,128.59,0
103.00,125.64,0
73.00,122.30,0
116.00,118.73,0
66.00,115.16,0
75.00,111.31,0
40.00,106.83,0
70.00,101.76,0
79.00,96.67,0
82.00,92.17,0
83.00,88.40,0
127.00,85.72,0
102.00,84.47,0
124.00,84.50,0
133.00,85.71,0
122.00,88.03,0
144.00,91.20,0
159.00,95.29,0
180.00,100.57,0
147.00,106.75,0
127.00,112.89,0
127.00,118.18,0
104.00,122.31,0
133.00,125.26,0
111.00,127.35,0
151.00,128.90,0
89.00,129.97,0
109.00,130.10,0
124.00,129.47,0
95.00,128.44,0
102.00,126.85,0
125.00,124.96,0
52.00,122.73,0
51.00,119.30,0
54.00,114.47,0
38.00,108.65,0
108.00,102.59,0
72.00,97.29,0
92.00,92.89,0
145.00,89.80,0
127.00,88.71,0
103.00,89.09,0
118.00,90.16,0
112.00,91.73,0
146.00,93.93,0
136.00,96.95,0
193.00,101.10,0
106.00,106.11,0
139.00,110.90,0
144.00,115.25,0
172.00,119.68,0
153.00,124.38,0
144.00,128.99,0
147.00,133.08,0
109.00,136.32,0
85.00,137.98,0
85.00,137.65,0
93.00,135.74,0
74.00,132.63,0
128.00,128.94,0
63.00,125.12,0
81.00,120.85,0
131.00,116.55,0
82.00,112.93,0
93.00,109.66,0
103.00,106.62,0
70.00,103.83,0
112.00,101.21,0
148.00,99.53,0
115.00,99.30,0
155.00,100.24,0
242.00,103.14,0
87.00,107.96,0
131.00,112.57,0
227.00,117.11,0
142.00,122.69,0
130.00,128.19,0
90.00,132.19,0
134.00,134.54,0
156.00,136.13,0
165.00,137.88,0
142.00,139.85,0
107.00,141.32,0
108.00,141.60,0
97.00,140.61,0
113.00,138.64,0
176.00,136.68,0
77.00,135.16,0
216.00,134.05,0
139.00,134.12,0
76.00,134.46,0
142.00,133.85,0
148.00,133.16,0
56.00,132.32,0
129.00,130.52,0
41.00,127.79,0
67.00,123.80,0
98.00,118.93,0
106.00,114.34,0
118.00,110.62,0
192.00,108.54,0
125.00,108.54,0
195.00,110.22,0
89.00,112.84,0
131.00,115.27,0
144.00,117.39,0
96.00,119.38,0
137.00,120.86,0
118.00,122.02,0
121.00,122.95,0
127.00,123.62,0
197.00,124.76,0
89.00,126.54,0
108.00,127.70,0
94.00,127.66,0
76.00,126.49,0
115.00,124.40,0
76.00,121.86,0
102.00,118.96,0
74.00,115.75,0
131.00,112.63,0
165.00,110.68,0
87.00,110.06,0
44.00,109.13,0
103.00,107.08,0
72.00,104.65,0
105.00,102.25,0
86.00,100.09,0
98.00,98.24,0
106.00,96.79,0
172.00,96.47,0
137.00,97.91,0
88.00,100.16,0
225.00,103.00,0
138.00,107.34,0
155.00,112.52,0
250.00,118.50,0
128.00,125.59,0
121.00,132.01,0
130.00,136.65,0
122.00,139.83,0
187.00,142.26,0
215.00,145.29,0
119.00,148.86,0
83.00,151.09,0
106.00,151.03,0
94.00,149.21,0
111.00,146.24,0
78.00,142.42,0
71.00,137.60,0
73.00,131.80,0
68.00,125.39,0
83.00,118.79,0
148.00,113.01,0
62.00,108.52,0
72.00,104.36,0
96.00,100.25,0
63.00,96.52,0
112.00,93.25,0
70.00,90.63,0
280.00,90.05,0
127.00,92.88,0
200.00,98.02,0
104.00,103.90,0
145.00,109.50,0
113.00,114.33,0
148.00,118.51,0
160.00,122.48,0
139.00,126.45,0
127.00,129.97,0
116.00,132.55,0
132.00,134.17,0
155.00,135.39,0
136.00,136.62,0
137.00,137.70,0
94.00,138.13,0
112.00,137.51,0
89.00,135.86,0
84.00,133.21,0
112.00,129.84,0
106.00,126.41,0
46.00,122.69,0
267.00,119.65,0
46.00,118.55,0
110.00,117.67,0
119.00,116.30,0
73.00,114.89,0
198.00,113.85,0
60.00,113.66,0
95.00,113.17,0
97.00,111.93,0
111.00,110.59,0
145.00,109.75,0
146.00,110.01,0
170.00,111.57,0
199.00,114.72,0
132.00,119.13,0
159.00,123.66,0
141.00,127.91,0
68.00,131.11,0
132.00,132.60,0
127.00,133.13,0
105.00,133.19,0
135.00,132.73,0
106.00,131.98,0
116.00,130.87,0
100.00,129.32,0
108.00,127.36,0
110.00,125.18,0
91.00,122.86,0
99.00,120.26,0
119.00,117.68,0
51.00,115.04,0
98.00,111.87,0
62.00,108.31,0
44.00,104.22,0
273.00,101.16,0
50.00,100.77,0
82.00,100.91,0
241.00,101.44,0
74.00,103.73,0
126.00,106.30,0
122.00,108.44,0
104.00,110.40,0
196.00,112.59,0
229.00,116.53,0
130.00,122.15,0
164.00,127.78,0
115.00,132.57,0
142.00,136.25,0
148.00,139.06,0
134.00,141.33,0
120.00,142.81,0
117.00,143.28,0
156.00,143.11,0
126.00,142.84,0
114.00,142.22,0
106.00,140.86,0
117.00,138.83,0
73.00,136.11,0
75.00,132.34,0
164.00,128.31,0
51.00,124.75,0
54.00,120.56,0
111.00,115.62,0
120.00,111.32,0
47.00,107.67,0
74.00,103.70,0
144.00,100.06,0
67.00,97.53,0
130.00,95.75,0
168.00,95.33,0
127.00,96.75,0
108.00,99.01,0
120.00,101.28,0
232.00,104.45,0
151.00,109.47,0
142.00,115.24,0
140.00,120.56,0
133.00,125.21,0
136.00,129.08,0
143.00,132.28,0
191.00,135.41,0
124.00,138.67,0
128.00,141.25,0
112.00,142.60,0
99.00,142.64,0
94.00,141.30,0
143.00,139.16,0
78.00,136.72,0
105.00,133.68,0
165.00,130.70,0
41.00,128.05,0
49.00,124.25,0
143.00,119.59,0
45.00,115.24,0
119.00,111.03,0
150.00,107.74,0
99.00,105.97,0
98.00,104.81,0
104.00,103.76,0
98.00,102.87,0
102.00,102.12,0
226.00,102.53,0
148.00,105.27,0
154.00,109.46,0
109.00,113.69,0
126.00,117.26,0
151.00,120.33,0
199.00,123.88,0
160.00,128.35,0
122.00,132.80,0
113.00,136.07,0
93.00,137.68,0
132.00,137.92,0
116.00,137.44,0
88.00,136.26,0
92.00,134.04,0
103.00,131.04,0
181.00,128.38,0
86.00,126.68,0
96.00,124.91,0
61.00,122.23,0
45.00,118.31,0
82.00,113.37,0
82.00,108.28,0
69.00,103.43,0
94.00,98.92,0
100.00,95.17,0
102.00,92.45,0
194.00,91.43,0
120.00,92.70,0
164.00,95.51,0
142.00,99.37,0
158.00,104.03,0
155.00,109.20,0
129.00,114.44,0
166.00,119.42,0
137.00,124.21,0
114.00,128.32,0
137.00,131.35,0
126.00,133.56,0
125.00,135.07,0
141.00,136.02,0
103.00,136.47,0
129.00,136.22,0
103.00,135.36,0
88.00,133.75,0
86.00,131.11,0
87.00,127.64,0
138.00,124.07,0
58.00,120.73,0
149.00,117.54,0
78.00,114.81,0
106.00,112.34,0
118.00,110.13,0
139.00,108.78,0
75.00,108.05,0
98.00,107.13,0
75.00,105.75,0
103.00,104.09,0
132.00,102.81,0
136.00,102.59,0
135.00,103.49,0
175.00,105.56,0
185.00,109.17,0
163.00,114.15,0
153.00,119.64,0
166.00,125.12,0
168.00,130.54,0
113.00,135.42,0
141.00,139.08,0
137.00,141.65,0
148.00,143.58,0
127.00,144.93,0
127.00,145.53,0
107.00,145.21,0
69.00,143.55,0
73.00,140.18,0
127.00,135.81,0
133.00,131.80,0
72.00,128.24,0
56.00,124.06,0
56.00,118.77,0
51.00,112.62,0
77.00,106.17,0
95.00,100.24,0
105.00,95.49,0
153.00,92.52,0
126.00,91.63,0
97.00,92.06,0
95.00,92.77,0
144.00,93.81,0
168.00,96.05,0
232.00,100.48,0
144.00,106.93,0
158.00,113.90,0
140.00,120.39,0
127.00,126.00,0
140.00,130.52,0
159.00,134.31,0
144.00,137.73,0
111.00,140.39,0
110.00,141.69,0
110.00,141.66,0
100.00,140.50,0
111.00,138.44,0
92.00,135.73,0
85.00,132.32,0
82.00,128.20,0
161.00,124.22,0
78.00,121.07,0
146.00,118.50,0
74.00,116.30,0
98.00,114.02,0
76.00,111.39,0
250.00,109.83,0
73.00,110.39,0
92.00,111.21,0
132.00,111.36,0
231.00,112.65,0
109.00,115.73,0
175.00,119.40,0
160.00,123.35,0
195.00,127.99,0
181.00,133.32,0
165.00,138.93,0
145.00,144.02,0
100.00,147.71,0
123.00,149.50,0
155.00,150.06,0
247.00,151.14,0
136.00,153.45,0
88.00,155.16,0
127.00,154.95,0
102.00,153.33,0
107.00,150.66,0
153.00,147.52,0
167.00,145.06,0
99.00,143.23,0
189.00,141.69,0
110.00,140.68,0
114.00,139.59,0
186.00,138.47,0
135.00,138.18,0
171.00,138.57,0
213.00,139.99,0
198.00,143.01,0
120.00,146.58,0
251.00,150.15,0
166.00,154.41,0
324.00,160.04,0
184.00,167.27,0
223.00,174.80,0
244.00,181.98,0
264.00,189.46,0
239.00,197.23,0
236.00,204.70,0
126.00,210.53,0
136.00,213.17,0
160.00,212.72,0
158.00,210.42,0
117.00,206.62,0
141.00,201.32,0
110.00,194.83,0
178.00,187.91,0
105.00,181.16,0
170.00,174.66,0
210.00,169.35,0
186.00,166.13,0
235.00,164.94,0
159.00,165.33,0
191.00,166.32,0
216.00,167.81,0
163.00,169.90,0
306.00,172.90,0
315.00,178.45,0
240.00,186.49,0
228.00,194.89,0
210.00,202.32,0
268.00,208.85,0
239.00,215.06,0
298.00,221.28,0
355.00,228.54,0
430.00,238.37,0
214.00,249.80,0
375.00,260.42,0
189.00,269.41,0
172.00,274.98,0
187.00,276.05,0
215.00,274.03,0
165.00,269.93,0
187.00,263.93,0
124.00,256.13,0
155.00,246.61,0
209.00,236.55,0
124.00,226.85,0
91.00,216.51,0
157.00,205.33,0
241.00,195.38,0
136.00,187.77,0
181.00,181.51,0
121.00,175.88,0
254.00,171.37,0
166.00,168.85,0
226.00,168.06,0
134.00,168.11,0
254.00,168.78,0
240.00,171.00,0
218.00,174.89,0
214.00,179.43,0
212.00,184.04,0
237.00,188.69,0
386.00,194.84,0
382.00,204.55,0
323.00,217.33,0
224.00,230.20,0
375.00,241.84,0
186.00,252.28,0
293.00,260.47,0
174.00,265.91,0
165.00,267.86,0
240.00,266.65,0
296.00,264.69,0
243.00,263.33,0
308.00,262.61,0
214.00,262.24,0
202.00,261.05,0
227.00,258.47,0
251.00,255.46,0
219.00,252.56,0
188.00,249.26,0
198.00,245.07,0
193.00,240.21,0
378.00,236.53,0
377.00,236.90,0
224.00,240.55,0
286.00,244.55,0
315.00,248.69,0
316.00,253.80,0
341.00,259.94,0
277.00,266.54,0
390.00,273.38,0
247.00,280.31,0
383.00,286.78,0
254.00,292.69,0
408.00,298.24,0
245.00,303.47,0
277.00,307.14,0
247.00,308.38,0
250.00,307.55,0
232.00,304.87,0
225.00,300.50,0
242.00,294.89,0
290.00,289.12,0
250.00,284.05,0
216.00,279.10,0
335.00,274.52,0
286.00,271.65,0
295.00,270.43,0
361.00,270.80,0
300.00,273.01,0
208.00,275.33,0
444.00,277.57,0
250.00,281.22,0
413.00,285.93,0
287.00,291.31,0
375.00,297.02,0
254.00,302.22,0
409.00,306.85,0
338.00,311.89,0
326.00,317.06,0
370.00,321.75,0
289.00,325.88,0
343.00,328.91,0
392.00,331.64,0
221.00,333.88,0
308.00,334.00,0
205.00,331.69,0
236.00,326.86,0
213.00,319.69,0
219.00,310.96,0
234.00,301.36,0
210.00,291.52,0
216.00,281.61,0
183.00,271.58,0
204.00,261.47,0
350.00,252.92,0
382.00,248.72,0
385.00,249.73,0
188.00,253.31,0
404.00,257.28,0
217.00,261.81,0
347.00,266.40,0
358.00,271.58,0
255.00,277.44,0
287.00,282.27,0
280.00,285.76,0
168.00,287.37,0
374.00,287.29,0
352.00,288.22,0
371.00,291.37,0
286.00,295.53,0
421.00,300.21,0
214.00,304.93,0
243.00,307.46,0
175.00,306.43,0
153.00,301.65,0
160.00,293.35,0
159.00,282.58,0
242.00,270.99,0
168.00,259.93,0
153.00,248.98,0
153.00,237.61,0
185.00,226.43,0
241.00,216.76,0
359.00,210.69,0
247.00,209.07,0
391.00,211.20,0
123.00,215.38,0
323.00,219.36,0
318.00,224.14,0
163.00,229.62,0
317.00,234.14,0
278.00,238.72,0
178.00,243.01,0
406.00,246.82,0
195.00,251.35,0
198.00,254.69,0
477.00,257.63,0
181.00,262.38,0
264.00,266.43,0
187.00,268.10,0
353.00,268.69,0
283.00,269.98,0
162.00,270.98,0
172.00,269.19,0
153.00,264.39,0
149.00,257.19,0
258.00,249.08,0
240.00,242.17,0
259.00,237.16,0
146.00,232.98,0
153.00,227.93,0
165.00,221.66,0
217.00,215.34,0
150.00,209.62,0
197.00,204.23,0
91.00,198.63,0
172.00,192.35,0
280.00,187.12,0
245.00,185.09,0
209.00,185.51,0
377.00,188.25,0
168.00,193.49,0
224.00,198.82,0
285.00,203.75,0
256.00,209.43,0
265.00,215.61,0
456.00,223.44,0
234.00,233.69,0
399.00,244.66,0
269.00,255.66,0
193.00,264.90,0
222.00,270.42,0
193.00,272.51,0
268.00,272.34,0
174.00,270.67,0
256.00,267.64,0
228.00,264.04,0
213.00,260.22,0
154.00,255.40,0
205.00,249.28,0
416.00,244.48,0
232.00,243.23,0
340.00,244.35,0
256.00,246.78,0
248.00,249.56,0
304.00,252.15,0
257.00,254.97,0
381.00,258.61,0
218.00,263.05,0
212.00,266.22,0
395.00,268.41,0
337.00,272.25,0
325.00,277.69,0
209.00,282.53,0
314.00,285.60,0
356.00,288.36,0
369.00,292.46,0
304.00,297.46,0
272.00,301.75,0
186.00,303.54,0
196.00,301.86,0
149.00,296.58,0
154.00,288.13,0
194.00,277.57,0
146.00,266.04,0
138.00,253.64,0
189.00,240.85,0
163.00,228.78,0
293.00,218.73,0
273.00,212.34,0
294.00,209.86,0
292.00,210.56,0
276.00,213.66,0
299.00,218.41,0
368.00,225.06,0
173.00,232.65,0
205.00,238.32,0
265.00,241.76,0
253.00,244.55,0
324.00,247.63,0
317.00,251.85,0
343.00,257.47,0
251.00,263.60,0
454.00,270.28,0
259.00,278.14,0
465.00,286.79,0
331.00,296.46,0
235.00,305.27,0
243.00,310.51,0
225.00,312.05,0
164.00,310.00,0
204.00,304.46,0
210.00,296.62,0
173.00,287.46,0
147.00,276.81,0
237.00,265.36,0
182.00,254.53,0
341.00,245.68,0
356.00,240.87,0
271.00,240.18,0
325.00,241.82,0
150.00,243.94,0
145.00,243.85,0
96.00,240.17,0
120.00,233.17,0
47.00,223.33,0
79.00,210.89,0
117.00,197.14,0
96.00,183.53,0
63.00,170.19,0
114.00,157.21,0
108.00,145.44,0
123.00,135.44,0
241.00,128.27,0
94.00,124.35,0
111.00,121.73,0
102.00,119.17,0
111.00,116.81,0
134.00,114.94,0
182.00,114.35,0
144.00,115.44,0
112.00,117.29,0
108.00,118.74,0
112.00,119.56,0
125.00,120.00,0
99.00,120.18,0
108.00,119.90,0
133.00,119.42,0
86.00,118.92,0
39.00,117.46,0
107.00,114.71,0
38.00,111.24,0
36.00,106.72,0
108.00,101.57,0
82.00,97.05,0
67.00,93.21,0
186.00,90.54,0
97.00,89.93,0
102.00,90.49,0
104.00,91.28,0
127.00,92.46,0
101.00,94.11,0
217.00,96.75,0
103.00,100.85,0
119.00,105.11,0
107.00,108.57,0
127.00,111.42,0
127.00,113.93,0
204.00,116.90,0
108.00,120.62,0
129.00,124.00,0
112.00,126.41,0
97.00,127.80,0
99.00,127.98,0
86.00,127.03,0
102.00,125.19,0
72.00,122.64,0
95.00,119.46,0
64.00,115.80,0
80.00,111.70,0
46.00,107.11,0
52.00,101.93,0
57.00,96.34,0
112.00,91.19,0
72.00,87.18,0
43.00,83.73,0
105.00,80.51,0
115.00,78.45,0
110.00,77.96,0
174.00,79.21,0
126.00,82.39,0
139.00,86.75,0
111.00,91.45,0
137.00,96.11,0
141.00,100.83,0
243.00,106.54,0
110.00,113.47,0
151.00,120.06,0
110.00,125.41,0
115.00,129.35,0
135.00,131.99,0
170.00,134.23,0
112.00,136.34,0
74.00,137.30,0
113.00,136.57,0
92.00,134.75,0
36.00,131.67,0
86.00,127.03,0
39.00,121.34,0
36.00,114.65,0
114.00,107.64,0
47.00,101.32,0
43.00,95.25,0
123.00,89.60,0
55.00,85.19,0
92.00,81.71,0
200.00,79.99,0
112.00,81.05,0
107.00,83.58,0
104.00,86.29,0
94.00,88.87,0
112.00,91.24,0
109.00,93.56,0
134.00,96.05,0
140.00,99.04,0
146.00,102.68,0
108.00,106.52,0
119.00,109.89,0
135.00,112.79,0
135.00,115.60,0
116.00,118.21,0
104.00,120.18,0
105.00,121.26,0
97.00,121.46,0
68.00,120.63,0
68.00,118.47,0
48.00,115.01,0
58.00,110.42,0
59.00,105.12,0
46.00,99.45,0
64.00,93.65,0
42.00,87.93,0
60.00,82.39,0
95.00,77.58,0
73.00,74.03,0
77.00,71.50,0
102.00,69.95,0
92.00,69.54,0
120.00,70.28,0
114.00,72.23,0
138.00,75.33,0
166.00,79.79,0
152.00,85.68,0
123.00,92.22,0
126.00,98.47,0
134.00,104.18,0
169.00,109.72,0
146.00,115.43,0
129.00,120.82,0
108.00,125.16,0
108.00,128.07,0
89.00,129.45,0
94.00,129.35,0
136.00,128.42,0
83.00,127.17,0
75.00,125.13,0
76.00,122.01,0
51.00,117.90,0
36.00,112.64,0
50.00,106.31,0
34.00,99.41,0
76.00,92.48,0
118.00,86.67,0
87.00,82.69,0
124.00,80.36,0
98.00,79.52,0
108.00,79.80,0
99.00,80.79,0
101.00,82.24,0
129.00,84.18,0
191.00,87.41,0
123.00,92.23,0
123.00,97.48,0
122.00,102.31,0
93.00,106.40,0
127.00,109.57,0
169.00,112.62,0
93.00,115.84,0
96.00,118.18,0
141.00,119.56,0
88.00,120.52,0
44.00,120.23,0
58.00,117.96,0
44.00,114.02,0
75.00,109.08,0
50.00,103.73,0
44.00,98.04,0
156.00,92.91,0
72.00,89.47,0
90.00,87.13,0
101.00,85.40,0
86.00,84.38,0
121.00,84.09,0
117.00,84.76,0
96.00,86.19,0
119.00,87.98,0
142.00,90.36,0
115.00,93.47,0
139.00,96.96,0
124.00,100.68,0
161.00,104.71,0
122.00,109.01,0
151.00,113.27,0
144.00,117.46,0
116.00,121.35,0
116.00,124.36,0
122.00,126.41,0
255.00,128.87,0
88.00,132.43,0
55.00,134.75,0
94.00,134.49,0
42.00,132.20,0
60.00,128.02,0
61.00,122.46,0
39.00,116.00,0
53.00,108.84,0
73.00,101.61,0
64.00,94.94,0
72.00,88.98,0
129.00,84.29,0
74.00,81.28,0
94.00,79.38,0
143.00,78.65,0
116.00,79.59,0
116.00,81.73,0
116.00,84.49,0
125.00,87.70,0
161.00,91.60,0
137.00,96.36,0
120.00,101.39,0
130.00,106.05,0
144.00,110.42,0
123.00,114.56,0
116.00,118.10,0
157.00,121.11,0
110.00,123.87,0
84.00,125.67,0
94.00,125.96,0
68.00,124.83,0
53.00,122.17,0
58.00,118.02,0
47.00,112.75,0
38.00,106.59,0
69.00,99.97,0
44.00,93.45,0
36.00,87.00,0
78.00,80.83,0
66.00,75.60,0
95.00,71.65,0
97.00,69.20,0
83.00,68.14,0
108.00,68.16,0
114.00,69.33,0
137.00,71.86,0
115.00,75.57,0
122.00,79.92,0
132.00,84.65,0
236.00,90.59,0
141.00,98.25,0
137.00,106.25,0
131.00,113.33,0
115.00,119.21,0
104.00,123.58,0
116.00,126.43,0
89.00,127.93,0
88.00,128.00,0
110.00,126.93,0
64.00,124.98,0
66.00,121.87,0
74.00,117.70,0
62.00,112.90,0
95.00,107.94,0
45.00,103.05,0
67.00,98.01,0
84.00,93.11,0
74.00,88.87,0
79.00,85.27,0
92.00,82.40,0
88.00,80.39,0
128.00,79.48,0
128.00,80.07,0
124.00,82.07,0
134.00,85.10,0
121.00,88.85,0
132.00,92.95,0
129.00,97.24,0
127.00,101.55,0
150.00,105.88,0
158.00,110.50,0
112.00,115.13,0
86.00,118.71,0
124.00,120.88,0
127.00,122.34,0
79.00,123.19,0
113.00,123.04,0
87.00,122.10,0
68.00,120.28,0
55.00,117.19,0
50.00,112.87,0
41.00,107.49,0
37.00,101.24,0
64.00,94.62,0
64.00,88.36,0
55.00,82.71,0
50.00,77.54,0
93.00,73.09,0
62.00,69.77,0
120.00,67.70,0
116.00,67.35,0
122.00,68.78,0
91.00,71.31,0
108.00,74.28,0
119.00,77.61,0
175.00,81.87,0
131.00,87.35,0
119.00,93.24,0
127.00,98.72,0
130.00,103.79,0
161.00,108.74,0
174.00,114.07,0
130.00,119.64,0
104.00,124.36,0
105.00,127.49,0
75.00,128.87,0
84.00,128.46,0
72.00,126.50,0
86.00,123.41,0
59.00,119.49,0
65.00,114.79,0
36.00,109.27,0
50.00,103.01,0
60.00,96.48,0
42.00,90.06,0
33.00,83.67,0
74.00,77.55,0
124.00,72.86,0
108.00,70.45,0
104.00,69.96,0
105.00,70.75,0
116.00,72.58,0
118.00,75.32,0
136.00,78.96,0
201.00,84.01,0
130.00,90.58,0
139.00,97.53,0
122.00,103.96,0
142.00,109.76,0
139.00,115.04,0
183.00,120.23,0
137.00,125.50,0
87.00,129.86,0
109.00,132.36,0
70.00,132.98,0
109.00,132.01,0
151.00,130.52,0
72.00,129.07,0
75.00,126.74,0
120.00,123.63,0
39.00,120.09,0
35.00,115.36,0
89.00,109.58,0
85.00,104.02,0
39.00,98.83,0
123.00,93.97,0
92.00,90.29,0
98.00,87.86,0
108.00,86.37,0
91.00,85.74,0
99.00,85.63,0
222.00,86.94,0
124.00,90.62,0
127.00,95.35,0
120.00,99.91,0
141.00,104.27,0
154.00,108.74,0
218.00,114.03,0
158.00,120.50,0
93.00,126.62,0
112.00,130.86,0
83.00,133.06,0
87.00,133.34,0
102.00,132.11,0
132.00,130.31,0
105.00,128.53,0
51.00,126.17,0
44.00,122.28,0
73.00,117.05,0
50.00,111.15,0
42.00,104.78,0
40.00,97.92,0
86.00,91.20,0
81.00,85.49,0
64.00,80.91,0
120.00,77.47,0
84.00,75.51,0
84.00,74.60,0
100.00,74.35,0
126.00,75.09,0
126.00,77.14,0
139.00,80.43,0
134.00,84.73,0
127.00,89.60,0
127.00,94.60,0
141.00,99.58,0
230.00,105.37,0
130.00,112.34,0
126.00,119.01,0
150.00,124.55,0
106.00,129.03,0
144.00,132.36,0
190.00,135.33,0
68.00,138.01,0
106.00,139.06,0
104.00,138.44,0
50.00,136.41,0
50.00,132.43,0
154.00,127.56,0
36.00,122.90,0
57.00,117.63,0
87.00,111.69,0
64.00,105.92,0
48.00,100.20,0
104.00,94.72,0
90.00,90.29,0
108.00,87.17,0
119.00,85.43,0
103.00,84.99,0
114.00,85.47,0
154.00,87.03,0
148.00,90.03,0
127.00,94.11,0
139.00,98.56,0
128.00,103.10,0
125.00,107.45,0
154.00,111.59,0
126.00,115.67,0
114.00,119.25,0
110.00,121.86,0
133.00,123.68,0
91.00,124.83,0
113.00,125.12,0
93.00,124.60,0
63.00,123.05,0
50.00,120.04,0
56.00,115.58,0
39.00,110.03,0
47.00,103.66,0
38.00,96.81,0
67.00,89.98,0
75.00,83.85,0
50.00,78.63,0
96.00,74.31,0
98.00,71.36,0
113.00,70.14,0
91.00,70.31,0
137.00,71.69,0
155.00,74.68,0
127.00,79.22,0
131.00,84.51,0
132.00,90.04,0
159.00,95.85,0
140.00,101.97,0
126.00,107.92,0
127.00,113.16,0
126.00,117.59,0
136.00,121.32,0
127.00,124.48,0
140.00,127.15,0
65.00,128.88,0
71.00,128.76,0
105.00,126.99,0
67.00,124.33,0
93.00,120.94,0
72.00,117.05,0
38.00,112.49,0
37.00,106.83,0
59.00,100.42,0
35.00,93.80,0
52.00,87.16,0
106.00,81.26,0
77.00,76.90,0
86.00,73.91,0
84.00,71.95,0
88.00,70.91,0
113.00,70.86,0
106.00,71.95,0
124.00,74.10,0
116.00,77.17,0
146.00,81.11,0
107.00,85.68,0
156.00,90.58,0
123.00,95.79,0
167.00,101.29,0
127.00,106.94,0
124.00,112.21,0
107.00,116.48,0
92.00,119.43,0
102.00,120.98,0
109.00,121.48,0
194.00,122.10,0
42.00,122.99,0
59.00,122.37,0
78.00,119.83,0
38.00,116.02,0
49.00,110.97,0
57.00,105.04,0
59.00,98.91,0
56.00,92.88,0
61.00,87.13,0
101.00,82.19,0
105.00,78.76,0
118.00,77.09,0
127.00,77.14,0
112.00,78.62,0
122.00,81.05,0
125.00,84.20,0
123.00,87.90,0
126.00,91.91,0
137.00,96.14,0
128.00,100.56,0
143.00,105.01,0
170.00,109.76,0
109.00,114.63,0
133.00,118.85,0
133.00,122.32,0
121.00,125.22,0
81.00,127.05,0
87.00,127.30,0
85.00,126.11,0
88.00,123.87,0
80.00,120.89,0
52.00,117.13,0
69.00,112.49,0
59.00,107.30,0
36.00,101.66,0
72.00,95.70,0
66.00,90.03,0
38.00,84.75,0
76.00,79.74,0
81.00,75.54,0
100.00,72.64,0
131.00,71.44,0
87.00,71.88,0
110.00,73.26,0
105.00,75.29,0
100.00,77.81,0
178.00,81.14,0
237.00,86.74,0
146.00,94.71,0
146.00,103.22,0
106.00,110.76,0
142.00,116.96,0
151.00,122.27,0
242.00,127.92,0
103.00,134.10,0
93.00,138.83,0
109.00,141.13,0
78.00,141.44,0
65.00,139.70,0
156.00,136.78,0
63.00,133.67,0
82.00,129.91,0
39.00,124.95,0
68.00,118.95,0
39.00,112.24,0
60.00,105.12,0
59.00,98.05,0
49.00,91.30,0
37.00,84.77,0
80.00,78.68,0
98.00,73.88,0
96.00,70.87,0
130.00,69.70,0
158.00,70.76,0
127.00,73.94,0
110.00,78.22,0
131.00,82.84,0
107.00,87.58,0
282.00,93.44,0
127.00,101.42,0
142.00,109.73,0
113.00,116.76,0
136.00,122.39,0
132.00,126.90,0
212.00,131.19,0
127.00,135.76,0
127.00,139.64,0
111.00,142.04,0
104.00,142.92,0
110.00,142.40,0
51.00,140.40,0
90.00,136.72,0
47.00,131.71,0
106.00,125.93,0
39.00,119.85,0
49.00,113.19,0
42.00,105.88,0
77.00,98.56,0
67.00,91.91,0
64.00,86.09,0
73.00,81.04,0
83.00,76.94,0
88.00,73.98,0
148.00,72.64,0
104.00,73.24,0
100.00,75.04,0
114.00,77.38,0
102.00,80.15,0
128.00,83.30,0
205.00,87.59,0
142.00,93.55,0
135.00,100.14,0
132.00,106.33,0
123.00,111.84,0
104.00,116.31,0
146.00,119.80,0
132.00,122.86,0
84.00,125.20,0
108.00,126.22,0
109.00,126.22,0
107.00,125.61,0
127.00,124.71,0
68.00,123.45,0
64.00,121.13,0
84.00,117.67,0
38.00,113.37,0
38.00,108.00,0
120.00,102.28,0
39.00,97.16,0
63.00,92.23,0
96.00,87.58,0
108.00,84.16,0
101.00,82.17,0
109.00,81.41,0
128.00,81.84,0
110.00,83.38,0
117.00,85.63,0
163.00,88.70,0
110.00,92.68,0
103.00,96.66,0
184.00,100.62,0
137.00,105.32,0
136.00,110.33,0
145.00,115.06,0
109.00,119.28,0
113.00,122.47,0
153.00,124.88,0
101.00,126.88,0
71.00,127.73,0
96.00,126.94,0
95.00,125.11,0
71.00,122.54,0
61.00,118.98,0
66.00,114.49,0
55.00,109.35,0
68.00,103.84,0
61.00,98.30,0
47.00,92.80,0
80.00,87.51,0
52.00,82.73,0
56.00,78.35,0
136.00,74.90,0
109.00,73.42,0
91.00,73.55,0
110.00,74.52,0
114.00,76.32,0
127.00,79.01,0
182.00,82.99,0
116.00,88.28,0
108.00,93.69,0
102.00,98.29,0
108.00,102.01,0
124.00,105.12,0
155.00,108.23,0
126.00,111.65,0
115.00,114.88,0
136.00,117.59,0
104.00,119.83,0
94.00,121.18,0
116.00,121.59,0
50.00,120.97,0
68.00,118.85,0
77.00,115.49,0
69.00,111.53,0
44.00,106.96,0
53.00,101.69,0
36.00,95.87,0
41.00,89.64,0
94.00,83.70,0
59.00,78.79,0
84.00,74.91,0
91.00,72.11,0
92.00,70.56,0
96.00,70.11,0
179.00,71.28,0
116.00,74.51,0
73.00,78.50,0
103.00,81.95,0
143.00,85.36,0
114.00,89.28,0
206.00,94.06,0
122.00,99.93,0
148.00,106.04,0
118.00,111.60,0
146.00,116.52,0
139.00,120.95,0
167.00,125.20,0
127.00,129.24,0
91.00,132.28,0
115.00,133.71,0
55.00,133.48,0
71.00,131.33,0
163.00,128.32,0
70.00,125.65,0
43.00,122.33,0
78.00,117.70,0
44.00,112.29,0
64.00,106.36,0
98.00,100.56,0
84.00,95.67,0
72.00,91.59,0
55.00,87.80,0
132.00,84.61,0
177.00,83.47,0
90.00,84.62,0
103.00,86.50,0
106.00,88.40,0
132.00,90.61,0
123.00,93.37,0
218.00,97.32,0
131.00,102.80,0
123.00,108.54,0
105.00,113.31,0
127.00,116.98,0
127.00,119.92,0
207.00,123.05,0
99.00,126.65,0
91.00,129.31,0
118.00,130.35,0
59.00,130.01,0
70.00,127.98,0
78.00,124.49,0
54.00,120.01,0
55.00,114.64,0
53.00,108.56,0
52.00,102.12,0
64.00,95.68,0
98.00,89.92,0
68.00,85.28,0
56.00,81.33,0
132.00,78.22,0
108.00,76.82,0
115.00,77.05,0
135.00,78.59,0
127.00,81.40,0
89.00,84.79,0
175.00,88.53,0
123.00,93.09,0
143.00,98.14,0
123.00,103.13,0
96.00,107.52,0
142.00,111.08,0
182.00,114.75,0
94.00,118.72,0
112.00,121.79,0
107.00,123.61,0
105.00,124.48,0
103.00,124.48,0
117.00,123.91,0
74.00,122.78,0
75.00,120.68,0
122.00,117.95,0
41.00,114.95,0
35.00,110.86,0
108.00,105.89,0
72.00,101.29,0
42.00,96.87,0
76.00,92.24,0
74.00,87.88,0
73.00,84.11,0
92.00,81.05,0
100.00,78.98,0
82.00,77.90,0
123.00,77.70,0
118.00,78.64,0
118.00,80.73,0
124.00,83.59,0
129.00,87.10,0
134.00,91.14,0
96.00,95.28,0
134.00,99.07,0
118.00,102.67,0
148.00,106.29,0
135.00,110.06,0
126.00,113.78,0
126.00,117.09,0
106.00,119.73,0
108.00,121.47,0
80.00,122.11,0
80.00,121.42,0
75.00,119.50,0
53.00,116.44,0
62.00,112.26,0
35.00,107.12,0
36.00,101.06,0
64.00,94.53,0
35.00,88.09,0
81.00,82.07,0
112.00,77.33,0
84.00,74.38,0
74.00,72.61,0
98.00,71.60,0
89.00,71.42,0
90.00,71.94,0
152.00,73.45,0
135.00,76.53,0
103.00,80.68,0
117.00,84.94,0
149.00,89.40,0
133.00,94.35,0
218.00,100.23,0
151.00,107.36,0
130.00,114.59,0
120.00,120.69,0
123.00,125.41,0
130.00,128.95,0
218.00,132.34,0
106.00,136.09,0
78.00,138.64,0
99.00,139.00,0
71.00,137.53,0
41.00,134.23,0
139.00,129.68,0
45.00,124.94,0
38.00,119.44,0
124.00,113.32,0
81.00,107.95,0
45.00,103.05,0
58.00,97.80,0
84.00,92.61,0
79.00,88.12,0
100.00,84.62,0
82.00,82.14,0
83.00,80.41,0
103.00,79.34,0
104.00,79.15,0
161.00,80.30,0
112.00,82.96,0
136.00,86.54,0
134.00,90.68,0
140.00,95.32,0
146.00,100.32,0
127.00,105.42,0
102.00,109.96,0
113.00,113.44,0
109.00,115.96,0
122.00,117.77,0
175.00,119.63,0
97.00,121.77,0
82.00,123.11,0
87.00,122.94,0
77.00,121.50,0
85.00,119.08,0
144.00,116.54,0
51.00,114.27,0
40.00,111.13,0
36.00,106.45,0
54.00,100.76,0
60.00,94.79,0
60.00,89.05,0
77.00,83.88,0
90.00,79.68,0
74.00,76.60,0
96.00,74.48,0
91.00,73.36,0
152.00,73.62,0
151.00,75.93,0
104.00,79.79,0
127.00,84.09,0
132.00,88.63,0
130.00,93.46,0
141.00,98.43,0
228.00,104.25,0
127.00,111.20,0
119.00,117.77,0
111.00,122.80,0
130.00,126.45,0
122.00,129.12,0
146.00,131.17,0
70.00,132.40,0
86.00,132.02,0
111.00,130.29,0
62.00,127.73,0
70.00,124.10,0
122.00,119.92,0
50.00,115.79,0
59.00,111.13,0
126.00,106.35,0
79.00,102.41,0
53.00,98.82,0
95.00,95.14,0
75.00,91.83,0
92.00,89.06,0
74.00,86.77,0
120.00,85.13,0
74.00,84.29,0
109.00,83.97,0
87.00,84.09,0
130.00,84.82,0
207.00,87.14,0
145.00,91.71,0
177.00,97.74,0
111.00,104.12,0
155.00,110.10,0
143.00,115.66,0
154.00,120.98,0
104.00,125.62,0
118.00,128.94,0
109.00,130.91,0
91.00,131.62,0
104.00,131.07,0
110.00,129.70,0
79.00,127.69,0
58.00,124.65,0
105.00,120.71,0
57.00,116.41,0
37.00,111.40,0
72.00,105.59,0
48.00,99.58,0
52.00,93.54,0
128.00,88.18,0
108.00,84.62,0
73.00,82.56,0
109.00,81.26,0
79.00,80.65,0
127.00,80.77,0
89.00,81.69,0
108.00,83.09,0
127.00,84.98,0
112.00,87.53,0
154.00,90.75,0
131.00,94.73,0
130.00,99.15,0
138.00,103.60,0
147.00,108.12,0
135.00,112.67,0
133.00,116.94,0
131.00,120.72,0
87.00,123.59,0
79.00,124.86,0
78.00,124.37,0
89.00,122.56,0
106.00,120.12,0
56.00,117.26,0
67.00,113.57,0
116.00,109.54,0
59.00,105.81,0
37.00,101.73,0
113.00,97.29,0
59.00,93.36,0
61.00,89.70,0
123.00,86.46,0
58.00,84.18,0
98.00,82.44,0
107.00,81.37,0
120.00,81.46,0
117.00,82.67,0
165.00,85.13,0
127.00,88.97,0
127.00,93.47,0
121.00,97.94,0
127.00,102.21,0
121.00,106.17,0
147.00,109.94,0
110.00,113.51,0
218.00,117.31,0
106.00,121.71,0
100.00,125.41,0
93.00,127.38,0
93.00,127.80,0
109.00,127.10,0
212.00,126.69,0
87.00,127.33,0
60.00,127.28,0
126.00,125.81,0
54.00,123.54,0
85.00,120.36,0
60.00,116.31,0
58.00,111.57,0
90.00,106.47,0
111.00,101.95,0
106.00,98.61,0
81.00,96.16,0
106.00,94.20,0
124.00,93.04,0
117.00,92.99,0
140.00,93.99,0
132.00,96.02,0
130.00,98.80,0
145.00,102.09,0
110.00,105.60,0
142.00,108.96,0
166.00,112.54,0
153.00,116.74,0
127.00,121.02,0
160.00,124.96,0
98.00,128.33,0
126.00,130.63,0
84.00,131.63,0
82.00,131.14,0
130.00,129.56,0
76.00,127.53,0
78.00,124.75,0
99.00,121.25,0
45.00,117.24,0
41.00,112.21,0
85.00,106.41,0
49.00,100.64,0
68.00,95.00,0
108.00,89.99,0
74.00,86.17,0
95.00,83.32,0
112.00,81.51,0
107.00,80.96,0
111.00,81.48,0
139.00,83.04,0
128.00,85.77,0
127.00,89.31,0
120.00,93.20,0
114.00,97.06,0
129.00,100.72,0
125.00,104.29,0
127.00,107.73,0
140.00,111.07,0
109.00,114.20,0
109.00,116.66,0
107.00,118.26,0
117.00,119.20,0
86.00,119.51,0
61.00,118.69,0
96.00,116.64,0
80.00,113.98,0
56.00,110.76,0
45.00,106.61,0
36.00,101.42,0
42.00,95.44,0
55.00,89.18,0
67.00,83.28,0
94.00,78.39,0
97.00,74.99,0
95.00,73.10,0
106.00,72.49,0
119.00,73.15,0
108.00,74.99,0
202.00,78.34,0
126.00,83.59,0
114.00,89.53,0
116.00,94.96,0
134.00,99.91,0
122.00,104.57,0
121.00,108.77,0
124.00,112.40,0
135.00,115.61,0
110.00,118.39,0
103.00,120.38,0
96.00,121.31,0
74.00,121.04,0
79.00,119.50,0
123.00,117.29,0
60.00,114.92,0
82.00,111.99,0
39.00,108.22,0
35.00,103.38,0
88.00,97.90,0
75.00,92.86,0
58.00,88.41,0
47.00,84.07,0
59.00,79.73,0
116.00,76.12,0
81.00,73.95,0
72.00,72.75,0
110.00,72.21,0
102.00,72.67,0
108.00,74.12,0
79.00,76.04,0
100.00,78.02,0
103.00,80.11,0
111.00,82.50,0
117.00,85.25,0
127.00,88.43,0
126.00,92.04,0
140.00,96.04,0
110.00,100.18,0
70.00,103.56,0
81.00,105.43,0
62.00,105.80,0
73.00,104.87,0
50.00,102.82,0
40.00,99.62,0
137.00,96.08,0
39.00,93.13,0
57.00,90.06,0
56.00,86.46,0
76.00,82.90,0
67.00,79.72,0
80.00,77.07,0
98.00,75.20,0
127.00,74.62,0
106.00,75.55,0
121.00,77.55,0
127.00,80.44,0
122.00,84.11,0
93.00,87.95,0
118.00,91.48,0
89.00,94.60,0
129.00,97.35,0
108.00,99.99,0
134.00,102.65,0
79.00,105.04,0
82.00,106.47,0
190.00,107.62,0
76.00,109.38,0
36.00,110.23,0
61.00,108.91,0
45.00,105.98,0
70.00,102.06,0
56.00,97.68,0
36.00,92.92,0
85.00,87.99,0
44.00,83.40,0
81.00,79.26,0
71.00,75.78,0
72.00,73.07,0
73.00,70.97,0
97.00,69.64,0
76.00,69.17,0
103.00,69.44,0
69.00,70.25,0
85.00,71.24,0
188.00,73.17,0
89.00,76.75,0
76.00,80.60,0
83.00,83.53,0
79.00,85.64,0
89.00,87.15,0
90.00,88.27,0
59.00,88.92,0
153.00,89.46,0
50.00,90.35,0
50.00,90.54,0
65.00,89.48,0
36.00,87.47,0
37.00,84.49,0
43.00,80.70,0
44.00,76.51,0
47.00,72.27,0
54.00,68.25,0
72.00,64.81,0
116.00,62.65,0
59.00,61.95,0
38.00,61.62,0
78.00,61.09,0
75.00,60.89,0
58.00,61.10,0
71.00,61.40,0
64.00,61.78,0
88.00,62.40,0
65.00,63.34,0
76.00,64.39,0
70.00,65.43,0
80.00,66.50,0
38.00,67.34,0
60.00,67.53,0
51.00,67.16,0
87.00,66.72,0
41.00,66.38,0
