70.00,92.70,1
46.00,90.98,1
127.00,89.04,1
105.00,87.99,1
48.00,87.46,1
39.00,86.14,1
110.00,84.25,1
51.00,82.58,1
68.00,80.90,1
52.00,78.92,1
54.00,76.67,1
42.00,74.09,1
90.00,71.56,1
206.00,70.82,1
154.00,73.31,1
123.00,78.09,1
112.00,83.36,1
49.00,87.88,1
44.00,90.51,1
67.00,91.19,1
166.00,91.54,1
106.00,92.96,1
75.00,94.72,1
119.00,96.02,1
105.00,97.29,1
46.00,98.14,1
67.00,97.72,1
50.00,96.06,1
89.00,93.74,1
225.00,92.62,1
87.00,93.89,1
88.00,95.78,1
49.00,96.62,1
178.00,97.07,1
87.00,98.28,1
45.00,99.23,1
36.00,98.41,1
182.00,97.02,1
47.00,96.44,1
186.00,96.64,1
81.00,97.72,1
47.00,98.57,1
45.00,97.77,1
211.00,96.81,1
81.00,97.41,1
246.00,99.80,1
134.00,104.14,1
77.00,108.88,1
132.00,112.36,1
70.00,114.68,1
84.00,115.59,1
195.00,116.04,1
42.00,116.81,1
122.00,116.85,1
66.00,115.93,1
115.00,114.42,1
91.00,112.69,1
76.00,110.74,1
77.00,108.22,1
80.00,105.29,1
158.00,102.85,1
38.00,101.19,1
64.00,99.05,1
118.00,96.49,1
168.00,95.24,1
53.00,95.34,1
105.00,95.39,1
88.00,95.17,1
201.00,95.84,1
146.00,98.46,1
51.00,101.69,1
127.00,103.89,1
135.00,105.76,1
78.00,107.61,1
259.00,110.01,1
97.00,113.94,1
81.00,117.57,1
42.00,118.93,1
93.00,118.16,1
109.00,116.46,1
78.00,114.52,1
261.00,113.62,1
107.00,115.04,1
77.00,116.87,1
63.00,117.06,1
64.00,115.53,1
116.00,113.08,1
232.00,111.85,1
48.00,112.43,1
80.00,112.51,1
109.00,111.48,1
165.00,110.84,1
183.00,111.84,1
108.00,114.20,1
84.00,116.21,1
69.00,116.75,1
60.00,115.63,1
74.00,113.11,1
67.00,109.73,1
75.00,105.88,1
112.00,102.17,1
61.00,98.95,1
99.00,95.99,1
78.00,93.34,1
60.00,90.85,1
59.00,88.08,1
50.00,84.94,1
61.00,81.55,1
58.00,78.18,1
183.00,76.02,1
62.00,75.88,1
87.00,76.53,1
213.00,78.21,1
54.00,81.57,1
85.00,84.78,1
61.00,86.77,1
42.00,87.47,1
109.00,87.20,1
115.00,87.22,1
79.00,87.80,1
66.00,88.14,1
146.00,88.44,1
44.00,89.06,1
64.00,89.05,1
55.00,87.97,1
63.00,86.20,1
66.00,84.04,1
131.00,82.31,1
42.00,81.34,1
74.00,80.30,1
80.00,79.08,1
139.00,78.62,1
68.00,79.21,1
44.00,79.68,1
53.00,79.12,1
68.00,77.87,1
76.00,76.54,1
121.00,75.81,1
109.00,76.30,1
177.00,78.42,1
66.00,81.81,1
63.00,84.75,1
55.00,86.21,1
125.00,86.94,1
61.00,87.65,1
97.00,88.13,1
50.00,88.09,1
39.00,87.10,1
87.00,85.23,1
162.00,84.09,1
66.00,84.41,1
50.00,84.70,1
138.00,84.64,1
107.00,85.37,1
126.00,87.07,1
41.00,88.79,1
112.00,89.80,1
91.00,90.55,1
80.00,91.21,1
126.00,91.81,1
99.00,92.80,1
245.00,95.19,1
99.00,99.54,1
93.00,104.00,1
69.00,106.87,1
38.00,107.73,1
72.00,106.58,1
87.00,104.41,1
78.00,101.99,1
107.00,99.67,1
58.00,97.51,1
59.00,94.97,1
37.00,91.66,1
123.00,88.22,1
350.00,87.92,1
53.00,92.07,1
128.00,97.02,1
65.00,100.66,1
112.00,103.16,1
98.00,104.85,1
94.00,105.99,1
75.00,106.33,1
73.00,105.69,1
92.00,104.29,1
218.00,103.71,1
37.00,104.51,1
46.00,104.44,1
46.00,102.38,1
78.00,99.22,1
77.00,95.83,1
94.00,92.77,1
50.00,89.99,1
58.00,86.97,1
83.00,83.86,1
38.00,80.89,1
145.00,78.47,1
194.00,78.35,1
81.00,80.77,1
65.00,83.42,1
36.00,84.72,1
60.00,84.52,1
139.00,84.01,1
70.00,84.23,1
97.00,84.71,1
83.00,85.15,1
304.00,87.34,1
145.00,93.02,1
109.00,100.06,1
79.00,105.75,1
164.00,110.14,1
84.00,113.90,1
96.00,116.51,1
45.00,117.30,1
74.00,116.16,1
43.00,113.37,1
113.00,109.77,1
69.00,106.20,1
48.00,102.44,1
72.00,98.15,1
84.00,93.92,1
80.00,90.25,1
54.00,86.93,1
74.00,83.71,1
44.00,80.52,1
59.00,77.25,1
192.00,75.14,1
94.00,75.50,1
54.00,76.90,1
296.00,79.54,1
101.00,85.09,1
145.00,91.84,1
39.00,97.49,1
109.00,101.29,1
68.00,103.51,1
88.00,104.54,1
101.00,104.70,1
84.00,104.46,1
44.00,103.39,1
70.00,101.14,1
127.00,98.65,1
65.00,96.71,1
48.00,94.56,1
50.00,91.54,1
42.00,87.77,1
127.00,84.17,1
56.00,81.56,1
106.00,79.74,1
43.00,78.30,1
148.00,77.43,1
38.00,77.33,1
55.00,77.00,1
241.00,77.44,1
60.00,80.17,1
118.00,83.56,1
43.00,86.18,1
99.00,87.81,1
159.00,89.46,1
106.00,92.10,1
85.00,94.83,1
233.00,97.99,1
102.00,102.58,1
227.00,108.16,1
163.00,114.81,1
83.00,121.33,1
67.00,125.53,1
39.00,126.64,1
47.00,124.87,1
73.00,121.08,1
93.00,116.54,1
114.00,112.32,1
63.00,108.57,1
100.00,104.94,1
77.00,101.53,1
91.00,98.42,1
139.00,96.10,1
156.00,95.51,1
40.00,95.97,1
44.00,95.45,1
114.00,93.90,1
72.00,92.46,1
42.00,90.79,1
64.00,88.32,1
65.00,85.47,1
38.00,82.39,1
136.00,79.62,1
102.00,78.29,1
76.00,78.14,1
65.00,78.07,1
70.00,77.72,1
102.00,77.42,1
51.00,77.33,1
77.00,77.01,1
116.00,76.89,1
218.00,78.61,1
160.00,83.24,1
47.00,88.85,1
139.00,93.42,1
42.00,96.83,1
80.00,98.73,1
76.00,99.20,1
91.00,98.95,1
104.00,98.48,1
68.00,97.90,1
51.00,96.62,1
47.00,94.25,1
157.00,91.83,1
59.00,90.43,1
106.00,89.53,1
53.00,88.56,1
88.00,87.38,1
39.00,85.80,1
45.00,83.50,1
74.00,80.67,1
96.00,78.24,1
50.00,76.42,1
41.00,74.47,1
192.00,73.21,1
41.00,73.70,1
98.00,74.72,1
88.00,75.70,1
63.00,76.74,1
107.00,77.64,1
51.00,78.47,1
73.00,78.83,1
81.00,78.79,1
122.00,79.11,1
119.00,80.42,1
142.00,82.90,1
60.00,85.88,1
73.00,88.06,1
55.00,88.96,1
139.00,89.36,1
163.00,90.83,1
46.00,93.17,1
44.00,94.34,1
91.00,93.97,1
124.00,93.47,1
67.00,93.36,1
329.00,95.04,1
176.00,100.66,1
42.00,107.57,1
48.00,111.82,1
66.00,113.00,1
137.00,112.77,1
38.00,111.99,1
106.00,110.32,1
133.00,108.57,1
64.00,107.25,1
146.00,106.07,1
261.00,106.76,1
234.00,111.22,1
92.00,117.78,1
49.00,122.73,1
41.00,124.34,1
98.00,123.34,1
112.00,121.36,1
36.00,118.80,1
87.00,115.16,1
71.00,110.90,1
39.00,106.20,1
48.00,100.73,1
143.00,95.54,1
144.00,92.38,1
84.00,91.20,1
82.00,90.55,1
198.00,90.75,1
130.00,92.93,1
79.00,95.98,1
53.00,97.94,1
48.00,98.11,1
91.00,96.97,1
65.00,95.33,1
49.00,93.16,1
195.00,91.39,1
39.00,90.99,1
71.00,90.52,1
47.00,89.04,1
126.00,87.38,1
98.00,86.51,1
52.00,86.07,1
42.00,84.90,1
72.00,82.92,1
129.00,81.28,1
173.00,81.51,1
86.00,83.63,1
41.00,85.67,1
54.00,86.21,1
100.00,85.83,1
62.00,85.31,1
63.00,84.47,1
80.00,83.26,1
35.00,81.71,1
63.00,79.59,1
44.00,77.03,1
63.00,74.31,1
78.00,71.83,1
80.00,70.05,1
38.00,68.66,1
182.00,68.13,1
38.00,69.13,1
63.00,70.27,1
176.00,71.62,1
134.00,74.85,1
44.00,78.87,1
62.00,81.67,1
164.00,83.84,1
101.00,86.79,1
89.00,89.93,1
37.00,91.95,1
97.00,92.59,1
108.00,92.82,1
46.00,92.89,1
50.00,91.92,1
72.00,89.93,1
144.00,88.24,1
97.00,87.84,1
96.00,88.21,1
202.00,89.63,1
144.00,93.11,1
36.00,97.02,1
88.00,99.29,1
57.00,99.93,1
95.00,99.57,1
64.00,98.56,1
115.00,97.33,1
336.00,98.38,1
50.00,102.86,1
83.00,107.16,1
63.00,109.19,1
84.00,109.54,1
199.00,109.74,1
124.00,111.27,1
53.00,112.89,1
107.00,113.16,1
145.00,113.03,1
79.00,113.13,1
131.00,113.06,1
84.00,112.77,1
128.00,112.36,1
149.00,112.37,1
158.00,113.51,1
38.00,114.78,1
59.00,114.37,1
56.00,112.03,1
251.00,110.04,1
70.00,110.08,1
164.00,111.07,1
133.00,112.55,1
102.00,114.35,1
41.00,115.06,1
108.00,114.21,1
66.00,112.47,1
85.00,110.10,1
153.00,107.88,1
112.00,106.79,1
61.00,106.06,1
46.00,104.30,1
102.00,101.63,1
158.00,99.61,1
168.00,99.63,1
73.00,101.04,1
131.00,102.46,1
116.00,103.87,1
55.00,104.97,1
210.00,105.93,1
77.00,107.73,1
86.00,109.25,1
134.00,109.96,1
349.00,112.68,1
55.00,118.37,1
65.00,123.11,1
90.00,124.91,1
39.00,124.49,1
70.00,122.02,1
113.00,118.51,1
110.00,115.29,1
55.00,112.24,1
40.00,108.34,1
160.00,104.22,1
88.00,101.35,1
49.00,99.00,1
63.00,96.00,1
81.00,92.66,1
97.00,89.72,1
91.00,87.54,1
146.00,86.51,1
111.00,86.96,1
91.00,88.22,1
39.00,89.00,1
52.00,88.46,1
137.00,87.44,1
104.00,87.33,1
176.00,88.67,1
115.00,91.48,1
88.00,94.67,1
178.00,97.85,1
127.00,101.76,1
89.00,105.67,1
88.00,108.40,1
43.00,109.43,1
153.00,109.29,1
76.00,109.09,1
118.00,108.82,1
92.00,108.36,1
132.00,108.01,1
112.00,108.05,1
36.00,107.74,1
103.00,106.32,1
129.00,104.80,1
74.00,103.77,1
44.00,102.20,1
52.00,99.39,1
127.00,96.23,1
105.00,94.04,1
69.00,92.63,1
146.00,91.70,1
87.00,91.68,1
103.00,92.14,1
53.00,92.29,1
155.00,92.37,1
36.00,92.67,1
84.00,92.41,1
61.00,91.33,1
45.00,89.56,1
55.00,86.96,1
49.00,83.79,1
141.00,81.03,1
92.00,79.75,1
102.00,79.68,1
73.00,80.04,1
42.00,80.07,1
67.00,79.28,1
68.00,78.08,1
46.00,76.64,1
39.00,74.67,1
204.00,73.41,1
203.00,75.40,1
44.00,79.83,1
57.00,83.44,1
85.00,85.41,1
83.00,86.65,1
78.00,87.45,1
118.00,88.11,1
57.00,88.77,1
93.00,89.01,1
45.00,88.63,1
69.00,87.49,1
125.00,86.28,1
97.00,85.96,1
144.00,86.69,1
118.00,88.55,1
113.00,91.13,1
41.00,93.26,1
94.00,94.18,1
103.00,94.50,1
127.00,95.15,1
56.00,95.91,1
64.00,95.82,1
190.00,95.68,1
38.00,96.39,1
54.00,96.39,1
86.00,95.10,1
43.00,93.19,1
95.00,90.87,1
115.00,88.98,1
156.00,88.58,1
113.00,89.82,1
123.00,91.99,1
52.00,93.99,1
44.00,94.66,1
67.00,93.74,1
88.00,92.14,1
133.00,90.99,1
182.00,91.54,1
59.00,93.55,1
137.00,95.59,1
46.00,97.12,1
75.00,97.57,1
83.00,96.99,1
72.00,95.92,1
39.00,94.15,1
40.00,91.25,1
77.00,87.65,1
136.00,84.74,1
49.00,83.03,1
103.00,81.78,1
39.00,80.55,1
72.00,79.03,1
55.00,77.24,1
38.00,75.14,1
92.00,72.89,1
56.00,71.07,1
120.00,70.02,1
90.00,70.11,1
86.00,71.06,1
147.00,72.81,1
189.00,76.48,1
68.00,81.64,1
103.00,86.40,1
99.00,90.24,1
54.00,93.11,1
163.00,95.26,1
45.00,97.27,1
78.00,98.31,1
127.00,98.56,1
136.00,99.36,1
65.00,100.51,1
123.00,101.28,1
62.00,101.61,1
103.00,101.38,1
71.00,100.66,1
106.00,99.68,1
66.00,98.52,1
156.00,97.65,1
127.00,97.93,1
69.00,98.87,1
84.00,99.19,1
67.00,98.66,1
41.00,97.11,1
102.00,94.79,1
277.00,94.21,1
109.00,96.99,1
114.00,100.95,1
93.00,104.17,1
68.00,106.21,1
118.00,107.10,1
165.00,108.12,1
79.00,109.67,1
184.00,111.42,1
84.00,113.46,1
42.00,114.51,1
120.00,113.89,1
59.00,112.48,1
49.00,110.06,1
140.00,107.03,1
62.00,104.42,1
51.00,101.59,1
79.00,98.08,1
73.00,94.50,1
36.00,90.81,1
96.00,86.99,1
72.00,83.70,1
80.00,81.07,1
59.00,78.80,1
87.00,76.83,1
92.00,75.48,1
72.00,74.80,1
149.00,74.99,1
153.00,77.01,1
67.00,80.34,1
163.00,83.94,1
86.00,87.87,1
79.00,91.37,1
41.00,93.36,1
133.00,94.22,1
124.00,95.31,1
80.00,96.81,1
65.00,97.63,1
94.00,97.54,1
36.00,96.63,1
100.00,94.94,1
70.00,93.04,1
48.00,90.89,1
127.00,88.68,1
50.00,86.97,1
249.00,86.75,1
71.00,88.84,1
69.00,91.29,1
46.00,92.23,1
71.00,91.81,1
83.00,90.70,1
67.00,89.36,1
85.00,87.88,1
43.00,86.18,1
88.00,84.17,1
119.00,82.65,1
57.00,81.94,1
108.00,81.50,1
135.00,81.85,1
87.00,83.26,1
86.00,84.85,1
79.00,86.04,1
55.00,86.57,1
90.00,86.41,1
61.00,85.88,1
110.00,85.30,1
114.00,85.30,1
103.00,86.14,1
93.00,87.34,1
76.00,88.38,1
58.00,88.75,1
99.00,88.51,1
63.00,88.03,1
61.00,87.12,1
45.00,85.44,1
57.00,83.05,1
143.00,80.98,1
91.00,80.33,1
112.00,80.81,1
119.00,82.08,1
83.00,83.91,1
56.00,85.35,1
148.00,86.45,1
109.00,88.24,1
142.00,90.90,1
79.00,93.82,1
77.00,96.05,1
160.00,97.82,1
89.00,99.95,1
47.00,101.44,1
112.00,101.65,1
87.00,101.41,1
112.00,101.16,1
84.00,100.89,1
86.00,100.37,1
38.00,99.09,1
120.00,97.16,1
116.00,95.75,1
96.00,95.20,1
64.00,94.72,1
43.00,93.42,1
55.00,91.04,1
93.00,88.26,1
84.00,85.91,1
91.00,84.20,1
93.00,83.08,1
168.00,83.17,1
101.00,84.87,1
155.00,87.69,1
100.00,91.16,1
50.00,94.14,1
132.00,96.02,1
100.00,97.71,1
158.00,99.81,1
48.00,101.94,1
107.00,103.17,1
82.00,103.54,1
82.00,103.31,1
52.00,102.19,1
100.00,100.31,1
110.00,98.55,1
51.00,97.03,1
77.00,95.05,1
59.00,92.58,1
41.00,89.59,1
95.00,86.31,1
72.00,83.46,1
103.00,81.37,1
83.00,80.09,1
73.00,79.29,1
75.00,78.57,1
140.00,78.43,1
73.00,79.28,1
138.00,80.82,1
78.00,82.85,1
181.00,85.58,1
125.00,89.53,1
152.00,94.40,1
90.00,99.26,1
105.00,103.29,1
43.00,105.76,1
180.00,107.21,1
113.00,109.04,1
46.00,110.56,1
78.00,110.41,1
60.00,108.80,1
45.00,105.99,1
89.00,102.33,1
93.00,98.77,1
121.00,96.08,1
82.00,94.31,1
53.00,92.63,1
52.00,90.28,1
90.00,87.55,1
62.00,85.01,1
106.00,82.92,1
142.00,82.04,1
59.00,82.38,1
186.00,83.60,1
45.00,85.71,1
59.00,87.24,1
83.00,87.56,1
79.00,87.42,1
35.00,86.70,1
82.00,85.20,1
173.00,84.32,1
131.00,85.47,1
76.00,87.74,1
80.00,89.57,1
151.00,91.19,1
44.00,92.93,1
81.00,93.83,1
93.00,93.87,1
112.00,93.94,1
96.00,94.29,1
110.00,94.87,1
55.00,95.23,1
116.00,95.14,1
104.00,95.15,1
51.00,95.12,1
102.00,94.49,1
52.00,93.42,1
54.00,91.66,1
62.00,89.13,1
50.00,86.15,1
48.00,82.76,1
69.00,79.22,1
46.00,75.83,1
48.00,72.48,1
145.00,69.90,1
73.00,69.04,1
62.00,69.02,1
71.00,68.94,1
56.00,68.75,1
39.00,68.16,1
78.00,67.21,1
63.00,66.39,1
51.00,65.69,1
102.00,65.19,1
41.00,65.10,1
70.00,64.98,1
52.00,64.66,1
41.00,64.06,1
76.00,63.22,1
88.00,62.81,1
74.00,63.11,1
142.00,64.39,1
76.00,66.83,1
90.00,69.66,1
176.00,73.08,1
38.00,77.23,1
79.00,80.57,1
68.00,82.61,1
66.00,83.75,1
73.00,84.09,1
42.00,83.67,1
85.00,82.58,1
80.00,81.43,1
51.00,80.31,1
60.00,78.80,1
55.00,76.91,1
122.00,75.34,1
98.00,74.94,1
153.00,76.08,1
97.00,78.57,1
111.00,81.66,1
35.00,84.24,1
113.00,85.84,1
104.00,87.23,1
111.00,88.99,1
254.00,92.19,1
46.00,97.08,1
103.00,101.30,1
65.00,103.77,1
51.00,104.57,1
42.00,103.42,1
37.00,100.55,1
36.00,96.30,1
170.00,92.20,1
43.00,89.49,1
48.00,86.99,1
76.00,83.98,1
49.00,80.98,1
156.00,78.75,1
78.00,78.08,1
36.00,77.87,1
78.00,77.03,1
78.00,76.07,1
127.00,75.82,1
166.00,77.23,1
106.00,80.44,1
186.00,84.91,1
111.00,90.37,1
110.00,95.82,1
133.00,100.63,1
125.00,105.09,1
174.00,109.62,1
46.00,113.73,1
74.00,115.89,1
66.00,115.83,1
110.00,114.56,1
113.00,113.10,1
62.00,111.55,1
53.00,109.07,1
52.00,105.38,1
74.00,101.00,1
68.00,96.54,1
50.00,92.11,1
111.00,88.00,1
44.00,84.58,1
55.00,81.29,1
234.00,79.32,1
145.00,80.73,1
37.00,83.77,1
148.00,86.34,1
47.00,88.58,1
113.00,90.28,1
131.00,91.94,1
68.00,93.81,1
172.00,95.77,1
146.00,98.70,1
175.00,102.95,1
156.00,108.17,1
103.00,113.44,1
56.00,117.13,1
79.00,118.49,1
85.00,118.08,1
129.00,116.99,1
105.00,115.99,1
92.00,114.96,1
98.00,113.58,1
64.00,111.67,1
110.00,109.30,1
59.00,106.72,1
66.00,103.64,1
69.00,100.02,1
146.00,96.85,1
60.00,94.72,1
119.00,93.16,1
116.00,92.32,1
42.00,91.87,1
49.00,90.56,1
132.00,88.81,1
49.00,87.54,1
85.00,86.29,1
112.00,85.22,1
147.00,85.36,1
52.00,86.45,1
90.00,87.23,1
157.00,88.16,1
73.00,89.90,1
56.00,91.22,1
115.00,91.68,1
121.00,92.37,1
98.00,93.59,1
38.00,94.37,1
76.00,93.89,1
39.00,92.31,1
62.00,89.84,1
44.00,86.69,1
42.00,83.02,1
69.00,79.10,1
67.00,75.56,1
66.00,72.58,1
100.00,70.40,1
66.00,69.15,1
58.00,68.32,1
75.00,67.55,1
62.00,66.96,1
76.00,66.58,1
75.00,66.48,1
39.00,66.39,1
133.00,66.50,1
88.00,67.62,1
128.00,69.84,1
155.00,73.36,1
43.00,77.59,1
67.00,80.79,1
104.00,82.87,1
47.00,84.36,1
42.00,84.69,1
69.00,83.79,1
39.00,82.13,1
40.00,79.69,1
81.00,76.84,1
161.00,75.15,1
144.00,75.89,1
58.00,78.15,1
92.00,80.19,1
85.00,81.79,1
38.00,82.78,1
38.00,82.42,1
140.00,81.52,1
120.00,81.76,1
77.00,83.04,1
71.00,84.11,1
45.00,84.32,1
158.00,84.33,1
132.00,85.64,1
172.00,88.72,1
92.00,92.82,1
123.00,96.84,1
43.00,99.83,1
111.00,101.45,1
174.00,102.95,1
178.00,105.96,1
163.00,110.47,1
50.00,114.84,1
75.00,117.15,1
41.00,117.03,1
94.00,115.12,1
59.00,112.25,1
63.00,108.61,1
63.00,104.29,1
45.00,99.49,1
92.00,94.57,1
106.00,90.48,1
41.00,87.24,1
60.00,83.93,1
85.00,80.68,1
80.00,78.11,1
48.00,75.99,1
72.00,73.92,1
51.00,71.91,1
78.00,70.09,1
53.00,68.53,1
230.00,68.54,1
78.00,71.16,1
42.00,74.35,1
163.00,77.00,1
75.00,80.13,1
42.00,82.80,1
110.00,84.31,1
104.00,85.69,1
67.00,87.10,1
82.00,87.93,1
90.00,88.31,1
127.00,88.89,1
72.00,89.83,1
40.00,90.14,1
113.00,89.58,1
74.00,89.01,1
64.00,88.31,1
53.00,86.97,1
88.00,85.20,1
101.00,83.77,1
43.00,82.67,1
53.00,81.09,1
37.00,78.73,1
40.00,75.71,1
59.00,72.36,1
95.00,69.52,1
106.00,68.01,1
117.00,68.12,1
146.00,69.99,1
111.00,73.42,1
66.00,77.18,1
86.00,80.20,1
113.00,82.75,1
100.00,85.35,1
81.00,87.77,1
38.00,89.17,1
73.00,89.18,1
125.00,88.80,1
105.00,89.11,1
74.00,89.79,1
75.00,90.04,1
72.00,89.70,1
180.00,89.77,1
110.00,91.34,1
85.00,93.53,1
79.00,95.06,1
54.00,95.53,1
196.00,95.89,1
171.00,98.11,1
42.00,101.35,1
107.00,103.46,1
67.00,104.31,1
50.00,103.90,1
48.00,101.93,1
105.00,99.12,1
119.00,96.83,1
99.00,95.54,1
92.00,94.78,1
148.00,94.64,1
73.00,95.21,1
67.00,95.48,1
112.00,95.17,1
134.00,95.29,1
108.00,96.27,1
160.00,98.06,1
113.00,100.64,1
90.00,103.22,1
87.00,104.90,1
168.00,106.28,1
90.00,108.06,1
104.00,109.57,1
75.00,110.18,1
157.00,110.40,1
79.00,110.78,1
44.00,110.37,1
50.00,108.20,1
71.00,104.75,1
44.00,100.60,1
44.00,95.79,1
54.00,90.51,1
64.00,85.28,1
99.00,80.81,1
44.00,77.27,1
124.00,74.60,1
52.00,72.95,1
156.00,72.47,1
77.00,73.38,1
88.00,74.93,1
39.00,76.04,1
70.00,76.33,1
70.00,76.08,1
86.00,75.82,1
92.00,75.88,1
129.00,76.72,1
68.00,78.29,1
110.00,79.99,1
49.00,81.42,1
76.00,82.16,1
84.00,82.36,1
106.00,82.68,1
95.00,83.42,1
86.00,84.39,1
50.00,84.95,1
82.00,84.78,1
72.00,84.21,1
41.00,83.20,1
42.00,81.29,1
66.00,78.74,1
122.00,76.64,1
39.00,75.40,1
143.00,74.80,1
55.00,75.02,1
103.00,75.65,1
78.00,76.43,1
40.00,76.97,1
84.00,76.84,1
42.00,76.26,1
98.00,75.50,1
116.00,75.35,1
65.00,76.02,1
125.00,77.09,1
86.00,78.66,1
43.00,80.07,1
62.00,80.41,1
143.00,80.58,1
89.00,81.65,1
90.00,83.17,1
103.00,84.65,1
74.00,86.03,1
62.00,86.82,1
45.00,86.55,1
40.00,85.07,1
85.00,82.85,1
183.00,81.69,1
45.00,82.20,1
127.00,83.19,1
50.00,84.08,1
41.00,84.18,1
108.00,83.44,1
42.00,82.60,1
83.00,81.50,1
112.00,80.61,1
74.00,80.42,1
115.00,80.72,1
99.00,81.60,1
88.00,82.89,1
83.00,84.09,1
116.00,85.28,1
153.00,87.25,1
81.00,90.02,1
125.00,92.79,1
54.00,95.00,1
90.00,96.21,1
111.00,96.80,1
63.00,97.14,1
46.00,96.52,1
80.00,94.79,1
162.00,93.39,1
97.00,93.39,1
62.00,93.76,1
76.00,93.40,1
96.00,92.59,1
51.00,91.55,1
118.00,90.34,1
35.00,89.10,1
57.00,87.23,1
86.00,84.86,1
45.00,82.52,1
156.00,80.76,1
84.00,80.40,1
95.00,80.94,1
86.00,81.65,1
57.00,82.17,1
126.00,82.54,1
47.00,83.04,1
143.00,83.68,1
40.00,84.47,1
112.00,85.05,1
59.00,85.35,1
90.00,85.40,1
78.00,85.24,1
127.00,85.38,1
66.00,85.95,1
73.00,86.29,1
104.00,86.30,1
91.00,86.53,1
120.00,87.21,1
74.00,88.19,1
152.00,89.49,1
59.00,91.14,1
51.00,92.03,1
65.00,91.52,1
54.00,90.04,1
138.00,88.51,1
111.00,88.08,1
40.00,88.15,1
81.00,87.54,1
143.00,87.03,1
170.00,88.21,1
153.00,91.45,1
56.00,95.30,1
69.00,97.84,1
130.00,99.20,1
61.00,100.18,1
93.00,100.46,1
44.00,99.75,1
106.00,98.27,1
54.00,96.47,1
87.00,94.39,1
298.00,94.06,1
99.00,97.20,1
72.00,101.06,1
70.00,103.23,1
38.00,103.52,1
108.00,102.40,1
54.00,100.71,1
40.00,98.20,1
138.00,95.29,1
40.00,92.87,1
54.00,90.21,1
63.00,86.94,1
73.00,83.66,1
85.00,80.84,1
48.00,78.42,1
138.00,76.63,1
72.00,76.01,1
77.00,75.99,1
122.00,76.34,1
68.00,77.30,1
65.00,78.14,1
127.00,78.89,1
70.00,80.07,1
104.00,81.39,1
114.00,82.94,1
96.00,84.93,1
100.00,86.99,1
127.00,89.18,1
138.00,91.97,1
44.00,94.74,1
77.00,96.22,1
51.00,96.20,1
58.00,94.96,1
71.00,92.83,1
41.00,90.13,1
55.00,86.82,1
74.00,83.28,1
116.00,80.48,1
106.00,79.10,1
78.00,78.81,1
49.00,78.54,1
70.00,77.78,1
82.00,76.86,1
63.00,76.08,1
42.00,75.03,1
39.00,73.29,1
109.00,71.43,1
165.00,71.16,1
105.00,73.11,1
98.00,76.10,1
179.00,79.83,1
71.00,84.38,1
120.00,88.70,1
132.00,92.71,1
94.00,96.65,1
62.00,99.59,1
85.00,101.03,1
100.00,101.53,1
90.00,101.66,1
91.00,101.45,1
38.00,100.51,1
39.00,98.16,1
72.00,94.67,1
78.00,91.04,1
77.00,87.79,1
157.00,85.65,1
49.00,84.84,1
92.00,84.28,1
157.00,84.31,1
40.00,85.23,1
93.00,85.84,1
65.00,85.87,1
38.00,85.20,1
60.00,83.54,1
82.00,81.50,1
99.00,79.92,1
129.00,79.46,1
49.00,79.86,1
127.00,80.45,1
80.00,81.41,1
58.00,82.30,1
210.00,83.61,1
146.00,87.02,1
176.00,92.34,1
40.00,97.79,1
47.00,101.19,1
66.00,102.05,1
186.00,102.34,1
64.00,103.34,1
85.00,103.97,1
48.00,103.34,1
76.00,101.56,1
41.00,98.83,1
75.00,95.40,1
151.00,92.48,1
80.00,90.97,1
134.00,90.51,1
54.00,90.49,1
163.00,90.84,1
50.00,91.65,1
138.00,92.56,1
122.00,93.89,1
127.00,96.01,1
127.00,98.61,1
234.00,102.42,1
84.00,107.55,1
53.00,111.66,1
46.00,113.03,1
109.00,112.44,1
76.00,111.08,1
58.00,109.00,1
76.00,106.05,1
43.00,102.37,1
73.00,98.14,1
169.00,94.64,1
41.00,92.58,1
62.00,90.55,1
39.00,87.69,1
63.00,84.29,1
96.00,81.08,1
59.00,78.55,1
127.00,76.85,1
84.00,76.31,1
160.00,77.13,1
52.00,78.98,1
142.00,81.14,1
76.00,83.51,1
122.00,85.98,1
83.00,88.35,1
44.00,89.96,1
92.00,90.40,1
74.00,90.24,1
135.00,90.24,1
68.00,90.66,1
108.00,91.11,1
73.00,91.40,1
67.00,91.24,1
50.00,90.23,1
127.00,88.90,1
83.00,88.16,1
122.00,88.12,1
76.00,88.51,1
50.00,88.55,1
81.00,87.77,1
44.00,86.38,1
54.00,84.30,1
51.00,81.60,1
161.00,79.47,1
67.00,78.86,1
36.00,78.53,1
85.00,77.53,1
100.00,76.74,1
89.00,76.70,1
74.00,77.04,1
131.00,77.80,1
77.00,79.23,1
94.00,80.83,1
47.00,81.94,1
72.00,82.23,1
119.00,82.29,1
57.00,82.65,1
41.00,82.46,1
38.00,81.05,1
99.00,79.07,1
121.00,77.90,1
118.00,78.24,1
109.00,79.78,1
44.00,81.45,1
38.00,81.96,1
106.00,81.50,1
72.00,81.12,1
68.00,80.77,1
38.00,79.87,1
116.00,78.69,1
79.00,78.07,1
46.00,77.67,1
90.00,76.94,1
71.00,76.30,1
52.00,75.64,1
118.00,75.06,1
70.00,75.10,1
70.00,75.36,1
216.00,76.59,1
176.00,80.59,1
127.00,86.74,1
124.00,93.13,1
146.00,99.21,1
61.00,104.50,1
156.00,108.57,1
136.00,112.28,1
109.00,115.83,1
82.00,118.31,1
40.00,118.85,1
69.00,117.23,1
63.00,114.10,1
80.00,110.21,1
105.00,106.32,1
52.00,102.67,1
60.00,98.71,1
105.00,94.73,1
111.00,91.73,1
61.00,89.63,1
127.00,88.05,1
51.00,86.96,1
40.00,85.48,1
69.00,83.17,1
127.00,81.19,1
70.00,80.25,1
37.00,79.40,1
58.00,77.79,1
62.00,75.76,1
562.00,77.92,1
41.00,87.16,1
142.00,97.80,1
55.00,105.79,1
178.00,111.91,1
129.00,117.33,1
79.00,121.83,1
53.00,124.02,1
65.00,123.66,1
101.00,121.62,1
65.00,118.79,1
42.00,114.96,1
97.00,110.28,1
66.00,105.56,1
146.00,101.59,1
45.00,98.54,1
117.00,95.89,1
126.00,94.05,1
55.00,93.05,1
115.00,92.12,1
52.00,91.15,1
103.00,90.06,1
119.00,89.37,1
39.00,89.03,1
48.00,87.86,1
75.00,85.79,1
52.00,83.44,1
78.00,81.02,1
99.00,79.04,1
49.00,77.61,1
81.00,76.26,1
154.00,75.73,1
42.00,76.39,1
103.00,77.18,1
215.00,79.07,1
72.00,82.90,1
52.00,86.46,1
84.00,88.46,1
200.00,90.53,1
154.00,94.41,1
77.00,99.08,1
73.00,102.50,1
110.00,104.45,1
67.00,105.45,1
91.00,105.49,1
136.00,105.20,1
96.00,105.31,1
40.00,104.94,1
40.00,102.97,1
122.00,100.06,1
134.00,98.00,1
117.00,97.39,1
95.00,97.54,1
168.00,98.36,1
108.00,100.20,1
107.00,102.34,1
60.00,103.74,1
74.00,103.86,1
50.00,102.65,1
181.00,101.26,1
141.00,101.45,1
143.00,103.25,1
82.00,105.42,1
53.00,106.55,1
53.00,105.88,1
121.00,104.19,1
40.00,102.22,1
188.00,100.57,1
64.00,99.95,1
57.00,99.26,1
135.00,98.03,1
270.00,98.80,1
38.00,102.04,1
156.00,105.27,1
128.00,108.20,1
89.00,111.00,1
111.00,112.89,1
97.00,113.96,1
65.00,114.07,1
44.00,112.60,1
62.00,109.53,1
77.00,105.59,1
42.00,101.24,1
78.00,96.56,1
78.00,92.10,1
115.00,88.55,1
151.00,86.73,1
70.00,86.51,1
92.00,86.65,1
106.00,86.87,1
91.00,87.43,1
85.00,88.05,1
67.00,88.31,1
66.00,87.95,1
90.00,87.15,1
71.00,86.28,1
85.00,85.39,1
70.00,84.45,1
64.00,83.34,1
78.00,82.02,1
58.00,80.60,1
57.00,78.93,1
38.00,76.78,1
133.00,74.81,1
117.00,74.32,1
103.00,75.40,1
70.00,76.97,1
99.00,78.45,1
103.00,80.05,1
125.00,82.17,1
58.00,84.47,1
61.00,85.91,1
133.00,86.76,1
87.00,87.96,1
123.00,89.51,1
51.00,90.91,1
93.00,91.59,1
71.00,91.63,1
71.00,91.16,1
39.00,89.88,1
78.00,87.80,1
38.00,85.23,1
93.00,82.51,1
95.00,80.35,1
158.00,79.70,1
54.00,80.43,1
60.00,81.02,1
117.00,81.19,1
80.00,81.73,1
105.00,82.60,1
52.00,83.36,1
75.00,83.52,1
176.00,84.00,1
38.00,85.44,1
96.00,86.59,1
108.00,87.39,1
90.00,88.44,1
78.00,89.33,1
110.00,90.00,1
171.00,91.41,1
244.00,95.21,1
72.00,101.03,1
62.00,105.82,1
96.00,108.38,1
64.00,109.35,1
43.00,108.68,1
141.00,106.98,1
74.00,105.44,1
83.00,103.86,1
100.00,102.03,1
96.00,100.40,1
80.00,98.92,1
87.00,97.35,1
76.00,95.67,1
61.00,93.70,1
122.00,91.76,1
80.00,90.43,1
106.00,89.64,1
36.00,88.79,1
100.00,87.50,1
207.00,87.30,1
39.00,88.84,1
65.00,89.96,1
110.00,90.13,1
74.00,90.25,1
126.00,90.53,1
66.00,90.99,1
226.00,92.34,1
152.00,95.86,1
75.00,100.40,1
65.00,103.57,1
115.00,105.19,1
97.00,106.17,1
99.00,106.77,1
68.00,106.70,1
85.00,105.76,1
51.00,103.94,1
76.00,101.30,1
76.00,98.24,1
60.00,95.05,1
40.00,91.43,1
61.00,87.31,1
58.00,83.11,1
68.00,79.18,1
166.00,76.56,1
66.00,75.91,1
55.00,75.82,1
153.00,75.97,1
74.00,77.18,1
78.00,78.68,1
57.00,79.59,1
109.00,80.13,1
47.00,80.55,1
64.00,80.42,1
40.00,79.42,1
128.00,78.28,1
150.00,78.52,1
129.00,80.70,1
82.00,83.76,1
96.00,86.52,1
210.00,89.77,1
120.00,94.55,1
61.00,99.28,1
79.00,102.26,1
136.00,104.05,1
52.00,105.31,1
215.00,106.54,1
47.00,108.35,1
66.00,109.23,1
38.00,108.07,1
53.00,105.19,1
40.00,101.03,1
135.00,96.74,1
91.00,93.60,1
176.00,92.19,1
136.00,92.87,1
132.00,95.11,1
69.00,97.55,1
55.00,98.87,1
94.00,98.86,1
123.00,98.61,1
102.00,98.81,1
105.00,99.28,1
102.00,99.77,1
76.00,100.02,1
89.00,99.74,1
131.00,99.41,1
208.00,100.49,1
103.00,103.37,1
87.00,106.29,1
80.00,107.94,1
40.00,108.00,1
53.00,106.24,1
80.00,103.26,1
50.00,99.75,1
35.00,95.55,1
55.00,90.63,1
66.00,85.65,1
182.00,82.07,1
62.00,80.74,1
42.00,79.93,1
81.00,78.55,1
80.00,77.25,1
108.00,76.59,1
171.00,77.41,1
56.00,79.67,1
177.00,82.56,1
122.00,86.41,1
146.00,91.17,1
113.00,96.14,1
186.00,101.36,1
134.00,107.10,1
62.00,112.18,1
79.00,115.12,1
55.00,115.81,1
144.00,115.26,1
166.00,115.24,1
68.00,115.91,1
52.00,115.51,1
44.00,113.17,1
64.00,109.31,1
44.00,104.54,1
73.00,99.31,1
230.00,95.53,1
82.00,94.57,1
77.00,94.62,1
68.00,94.04,1
52.00,92.69,1
37.00,90.29,1
118.00,87.50,1
32.00,85.00,1
170.00,83.21,1
46.00,82.56,1
70.00,82.09,1
153.00,81.81,1
62.00,82.52,1
66.00,83.17,1
150.00,83.75,1
75.00,85.08,1
45.00,86.12,1
48.00,85.82,1
48.00,84.30,1
117.00,82.52,1
145.00,81.99,1
104.00,83.11,1
44.00,84.50,1
103.00,85.19,1
117.00,85.94,1
99.00,87.27,1
88.00,88.73,1
98.00,89.99,1
95.00,91.11,1
154.00,92.59,1
82.00,94.67,1
47.00,96.14,1
54.00,95.96,1
299.00,96.41,1
290.00,101.36,1
454.00,112.80,1
198.00,129.41,1
91.00,145.54,1
147.00,157.34,1
53.00,164.69,1
221.00,168.72,1
61.00,170.80,1
261.00,171.71,1
60.00,172.04,1
100.00,170.59,1
202.00,167.64,1
367.00,167.07,1
118.00,169.85,1
57.00,171.81,1
74.00,170.11,1
81.00,165.55,1
50.00,158.95,1
48.00,150.57,1
66.00,140.98,1
46.00,130.90,1
62.00,120.72,1
44.00,110.75,1
95.00,101.54,1
48.00,93.51,1
64.00,86.43,1
216.00,81.43,1
63.00,79.57,1
82.00,79.04,1
100.00,78.73,1
132.00,79.31,1
153.00,81.43,1
98.00,84.78,1
54.00,87.86,1
239.00,90.98,1
104.00,95.61,1
149.00,100.89,1
116.00,105.85,1
79.00,109.92,1
41.00,111.98,1
64.00,111.68,1
173.00,110.59,1
67.00,110.05,1
88.00,109.26,1
67.00,107.60,1
51.00,105.04,1
44.00,101.38,1
58.00,96.87,1
84.00,92.26,1
38.00,87.88,1
42.00,83.32,1
72.00,78.69,1
101.00,74.95,1
101.00,72.73,1
106.00,72.02,1
141.00,72.85,1
54.00,74.74,1
119.00,76.74,1
207.00,79.86,1
322.00,86.68,1
244.00,98.11,1
260.00,112.46,1
149.00,127.20,1
119.00,139.78,1
133.00,149.03,1
104.00,155.18,1
82.00,158.20,1
114.00,158.40,1
97.00,156.67,1
44.00,153.05,1
70.00,147.35,1
76.00,140.31,1
114.00,133.09,1
78.00,126.36,1
75.00,119.92,1
226.00,114.81,1
86.00,112.22,1
39.00,110.16,1
76.00,106.93,1
71.00,103.10,1
38.00,98.89,1
56.00,94.09,1
116.00,89.53,1
39.00,85.82,1
41.00,82.10,1
74.00,78.17,1
61.00,74.67,1
164.00,72.52,1
127.00,72.74,1
78.00,74.62,1
128.00,76.98,1
102.00,79.83,1
85.00,82.81,1
86.00,85.30,1
62.00,87.01,1
102.00,88.00,1
189.00,89.62,1
117.00,92.82,1
116.00,96.64,1
173.00,100.68,1
155.00,105.53,1
54.00,110.17,1
220.00,114.04,1
78.00,117.94,1
128.00,121.16,1
41.00,122.70,1
83.00,122.23,1
127.00,120.59,1
89.00,118.87,1
46.00,116.54,1
117.00,113.38,1
141.00,110.71,1
38.00,108.63,1
125.00,106.29,1
63.00,103.90,1
72.00,101.30,1
45.00,98.07,1
126.00,94.74,1
110.00,92.45,1
129.00,91.59,1
86.00,91.66,1
114.00,92.12,1
121.00,93.02,1
53.00,94.01,1
134.00,94.64,1
107.00,95.52,1
131.00,97.01,1
208.00,99.70,1
104.00,103.83,1
143.00,108.14,1
146.00,112.28,1
107.00,116.20,1
116.00,119.27,1
54.00,120.91,1
182.00,121.51,1
71.00,121.99,1
47.00,121.39,1
54.00,118.73,1
64.00,114.58,1
184.00,110.66,1
126.00,108.64,1
119.00,108.11,1
38.00,107.46,1
93.00,105.79,1
56.00,103.34,1
85.00,100.44,1
43.00,97.14,1
48.00,93.23,1
167.00,89.71,1
131.00,88.31,1
119.00,88.86,1
375.00,92.55,1
75.00,100.08,1
221.00,108.68,1
306.00,118.44,1
60.00,129.33,1
362.00,139.85,1
265.00,151.92,1
60.00,163.96,1
198.00,172.50,1
104.00,177.90,1
207.00,181.18,1
70.00,182.54,1
181.00,181.88,1
135.00,180.05,1
66.00,176.96,1
114.00,171.91,1
75.00,165.42,1
101.00,158.02,1
110.00,150.37,1
107.00,143.11,1
76.00,136.17,1
172.00,129.96,1
224.00,126.29,1
130.00,125.51,1
145.00,125.98,1
222.00,127.50,1
102.00,130.16,1
83.00,132.08,1
58.00,131.84,1
70.00,129.51,1
44.00,125.44,1
132.00,120.60,1
98.00,116.29,1
375.00,114.98,1
68.00,117.80,1
57.00,120.74,1
73.00,121.09,1
79.00,119.64,1
62.00,117.00,1
243.00,114.82,1
49.00,114.33,1
119.00,113.97,1
120.00,113.30,1
186.00,113.56,1
338.00,116.87,1
130.00,123.74,1
39.00,130.13,1
407.00,135.77,1
98.00,143.42,1
127.00,150.54,1
261.00,156.02,1
151.00,161.65,1
196.00,166.86,1
104.00,170.64,1
444.00,174.88,1
234.00,182.46,1
368.00,192.80,1
100.00,203.13,1
111.00,209.87,1
369.00,213.77,1
156.00,217.97,1
57.00,220.06,1
42.00,216.91,1
51.00,208.87,1
73.00,197.64,1
161.00,185.52,1
356.00,176.40,1
107.00,171.73,1
202.00,168.89,1
102.00,166.22,1
106.00,162.91,1
38.00,157.91,1
115.00,151.37,1
280.00,145.92,1
53.00,142.97,1
175.00,140.64,1
340.00,140.39,1
51.00,143.05,1
220.00,145.81,1
55.00,147.60,1
54.00,147.24,1
81.00,144.12,1
81.00,139.44,1
147.00,134.49,1
87.00,130.10,1
65.00,125.66,1
148.00,121.13,1
65.00,117.20,1
190.00,114.22,1
125.00,112.90,1
135.00,112.91,1
262.00,114.63,1
450.00,121.39,1
237.00,134.10,1
232.00,148.88,1
86.00,161.69,1
262.00,171.57,1
56.00,178.93,1
294.00,184.13,1
512.00,191.56,1
109.00,202.69,1
118.00,211.46,1
229.00,215.83,1
318.00,219.41,1
243.00,224.04,1
285.00,229.17,1
109.00,233.11,1
262.00,234.71,1
40.00,233.72,1
62.00,228.56,1
111.00,219.34,1
103.00,208.29,1
267.00,197.84,1
270.00,190.84,1
139.00,187.04,1
214.00,184.27,1
130.00,181.83,1
53.00,178.32,1
208.00,173.42,1
50.00,168.24,1
74.00,161.90,1
52.00,153.78,1
38.00,144.28,1
105.00,134.22,1
144.00,125.38,1
55.00,118.22,1
50.00,111.39,1
202.00,105.46,1
121.00,102.25,1
439.00,103.76,1
234.00,111.69,1
82.00,122.22,1
414.00,132.90,1
132.00,145.26,1
61.00,155.96,1
141.00,162.18,1
374.00,167.47,1
167.00,174.71,1
92.00,181.05,1
99.00,183.63,1
73.00,182.51,1
39.00,177.90,1
383.00,172.94,1
137.00,171.21,1
46.00,170.06,1
146.00,166.65,1
40.00,161.68,1
74.00,155.00,1
296.00,148.79,1
54.00,145.11,1
55.00,141.30,1
97.00,135.88,1
93.00,130.08,1
167.00,125.10,1
73.00,121.31,1
98.00,117.82,1
94.00,114.27,1
74.00,110.77,1
151.00,107.69,1
702.00,110.70,1
209.00,123.99,1
647.00,144.67,1
352.00,170.93,1
1023.00,204.86,1
189.00,245.38,1
267.00,281.85,1
70.00,306.74,1
85.00,319.52,1
132.00,321.73,1
230.00,317.59,1
354.00,311.72,1
190.00,306.29,1
193.00,299.68,1
42.00,289.81,1
158.00,276.35,1
49.00,260.39,1
122.00,242.78,1
138.00,224.92,1
141.00,208.37,1
170.00,193.78,1
80.00,180.92,1
56.00,168.35,1
62.00,155.33,1
122.00,142.78,1
37.00,131.36,1
42.00,120.30,1
120.00,109.90,1
125.00,101.75,1
290.00,97.66,1
574.00,101.93,1
251.00,115.93,1
335.00,134.41,1
193.00,153.25,1
105.00,169.32,1
137.00,180.39,1
167.00,187.35,1
444.00,194.02,1
409.00,204.80,1
74.00,217.26,1
399.00,227.46,1
248.00,236.94,1
91.00,244.47,1
43.00,245.98,1
48.00,240.74,1
78.00,230.60,1
81.00,217.61,1
40.00,202.83,1
141.00,187.36,1
42.00,172.42,1
281.00,159.55,1
192.00,151.09,1
276.00,147.44,1
66.00,146.51,1
73.00,144.94,1
62.00,141.22,1
90.00,136.10,1
518.00,133.99,1
45.00,137.67,1
86.00,141.65,1
431.00,145.34,1
376.00,154.31,1
260.00,167.94,1
127.00,181.21,1
82.00,190.20,1
78.00,193.82,1
506.00,196.32,1
95.00,201.50,1
238.00,206.51,1
87.00,208.90,1
54.00,207.61,1
125.00,202.43,1
52.00,194.73,1
76.00,184.97,1
341.00,175.94,1
102.00,170.39,1
191.00,166.63,1
64.00,162.78,1
55.00,157.55,1
59.00,150.27,1
37.00,141.48,1
94.00,131.97,1
218.00,124.05,1
253.00,120.45,1
74.00,120.33,1
84.00,120.26,1
275.00,120.51,1
108.00,122.87,1
193.00,126.25,1
634.00,134.04,1
278.00,149.96,1
162.00,168.30,1
371.00,184.73,1
141.00,199.74,1
139.00,211.09,1
75.00,216.78,1
242.00,218.28,1
72.00,217.42,1
148.00,214.00,1
223.00,209.20,1
80.00,204.19,1
67.00,197.35,1
44.00,187.69,1
133.00,176.53,1
74.00,165.39,1
64.00,154.28,1
118.00,143.39,1
85.00,133.56,1
151.00,125.30,1
96.00,118.87,1
114.00,113.83,1
43.00,109.28,1
337.00,106.64,1
208.00,108.75,1
70.00,113.58,1
1023.00,124.95,1
130.00,148.13,1
685.00,177.17,1
308.00,208.44,1
82.00,236.75,1
41.00,254.63,1
93.00,261.76,1
194.00,261.95,1
49.00,257.70,1
55.00,248.77,1
95.00,235.80,1
335.00,222.91,1
48.00,212.47,1
48.00,201.45,1
125.00,188.59,1
39.00,175.35,1
45.00,161.52,1
127.00,147.76,1
71.00,135.48,1
39.00,124.21,1
164.00,114.12,1
243.00,107.73,1
417.00,108.12,1
256.00,116.02,1
320.00,128.56,1
358.00,144.21,1
324.00,162.69,1
364.00,182.69,1
62.00,201.06,1
155.00,213.62,1
45.00,219.50,1
74.00,219.30,1
98.00,214.24,1
283.00,207.86,1
158.00,202.95,1
223.00,199.29,1
101.00,195.75,1
150.00,191.32,1
144.00,186.11,1
50.00,180.02,1
75.00,172.05,1
72.00,162.51,1
103.00,152.54,1
142.00,143.37,1
41.00,135.21,1
47.00,126.76,1
77.00,117.87,1
60.00,109.38,1
308.00,103.49,1
318.00,103.94,1
48.00,109.06,1
42.00,113.12,1
40.00,113.85,1
60.00,112.14,1
42.00,108.78,1
71.00,104.40,1
165.00,100.50,1
52.00,97.97,1
97.00,95.82,1
66.00,93.61,1
43.00,91.07,1
195.00,89.00,1
107.00,88.95,1
105.00,90.24,1
79.00,91.50,1
191.00,93.20,1
114.00,96.15,1
47.00,99.07,1
43.00,100.09,1
335.00,101.42,1
41.00,105.31,1
88.00,108.96,1
66.00,110.47,1
120.00,110.77,1
166.00,111.24,1
222.00,113.49,1
165.00,117.89,1
264.00,124.09,1
60.00,130.93,1
40.00,135.30,1
98.00,136.10,1
97.00,134.94,1
95.00,132.79,1
75.00,129.77,1
92.00,125.95,1
67.00,121.58,1
276.00,118.39,1
292.00,119.64,1
92.00,124.51,1
155.00,129.31,1
53.00,132.43,1
68.00,133.15,1
78.00,131.49,1
94.00,128.50,1
71.00,124.76,1
77.00,120.38,1
97.00,115.73,1
141.00,111.78,1
90.00,108.96,1
50.00,106.29,1
53.00,102.73,1
94.00,98.69,1
79.00,95.00,1
49.00,91.54,1
47.00,87.74,1
67.00,83.69,1
223.00,81.20,1
85.00,81.58,1
93.00,83.18,1
67.00,84.44,1
364.00,87.52,1
104.00,94.41,1
127.00,102.29,1
56.00,108.32,1
51.00,111.71,1
247.00,113.94,1
148.00,117.63,1
64.00,121.56,1
53.00,123.25,1
90.00,122.58,1
57.00,120.41,1
140.00,117.61,1
85.00,115.09,1
72.00,112.52,1
110.00,109.64,1
68.00,106.81,1
56.00,103.62,1
93.00,100.02,1
41.00,96.31,1
126.00,92.80,1
66.00,90.03,1
174.00,88.52,1
75.00,88.50,1
108.00,89.14,1
39.00,89.40,1
99.00,88.99,1
272.00,89.96,1
242.00,95.06,1
501.00,106.22,1
210.00,123.26,1
143.00,140.94,1
93.00,154.56,1
127.00,163.55,1
429.00,171.40,1
115.00,180.82,1
212.00,189.21,1
147.00,195.00,1
222.00,198.97,1
101.00,201.10,1
314.00,202.17,1
104.00,203.19,1
91.00,202.31,1
69.00,197.87,1
84.00,190.51,1
383.00,183.74,1
51.00,179.95,1
119.00,176.11,1
85.00,170.43,1
67.00,163.41,1
238.00,156.44,1
207.00,152.20,1
62.00,149.85,1
127.00,146.89,1
184.00,143.91,1
58.00,141.46,1
384.00,140.58,1
162.00,143.44,1
196.00,148.36,1
187.00,153.32,1
64.00,157.26,1
96.00,158.42,1
74.00,156.79,1
66.00,152.92,1
67.00,147.15,1
91.00,140.29,1
42.00,132.84,1
272.00,126.49,1
41.00,122.65,1
54.00,119.05,1
92.00,114.33,1
48.00,109.32,1
129.00,104.52,1
266.00,102.17,1
191.00,104.07,1
229.00,109.33,1
46.00,115.47,1
228.00,120.86,1
85.00,125.81,1
280.00,131.04,1
365.00,139.02,1
166.00,150.18,1
207.00,161.17,1
51.00,169.40,1
350.00,175.50,1
105.00,181.42,1
100.00,185.35,1
88.00,185.49,1
87.00,182.43,1
378.00,179.37,1
269.00,180.31,1
266.00,184.81,1
131.00,189.83,1
195.00,193.33,1
325.00,196.60,1
104.00,200.43,1
174.00,202.54,1
173.00,202.60,1
174.00,201.69,1
311.00,201.21,1
262.00,202.95,1
50.00,204.88,1
79.00,203.17,1
101.00,197.72,1
110.00,190.27,1
68.00,181.55,1
106.00,171.82,1
231.00,162.97,1
116.00,156.51,1
92.00,151.02,1
70.00,144.91,1
172.00,138.81,1
84.00,133.70,1
89.00,128.95,1
142.00,124.41,1
69.00,120.50,1
40.00,116.18,1
55.00,110.73,1
58.00,104.65,1
140.00,99.15,1
176.00,95.94,1
136.00,95.55,1
161.00,97.15,1
106.00,99.83,1
82.00,102.32,1
117.00,104.03,1
392.00,107.74,1
140.00,115.64,1
203.00,125.05,1
266.00,134.79,1
73.00,144.41,1
76.00,150.98,1
172.00,154.24,1
204.00,156.77,1
395.00,161.58,1
206.00,169.87,1
94.00,178.00,1
124.00,182.57,1
53.00,183.24,1
321.00,182.23,1
79.00,181.84,1
80.00,180.15,1
240.00,176.83,1
48.00,173.49,1
112.00,168.93,1
173.00,163.53,1
63.00,158.33,1
52.00,152.03,1
148.00,144.81,1
240.00,139.39,1
220.00,137.69,1
80.00,138.14,1
55.00,137.51,1
142.00,135.21,1
124.00,132.82,1
46.00,130.21,1
166.00,127.08,1
75.00,124.24,1
116.00,121.55,1
98.00,118.83,1
265.00,117.59,1
278.00,120.30,1
82.00,125.84,1
51.00,129.96,1
71.00,130.85,1
69.00,129.36,1
41.00,126.00,1
248.00,122.57,1
98.00,121.16,1
107.00,120.63,1
146.00,120.03,1
132.00,120.00,1
194.00,121.00,1
62.00,122.57,1
172.00,123.77,1
101.00,124.77,1
152.00,125.76,1
82.00,126.37,1
81.00,125.94,1
101.00,124.31,1
42.00,121.64,1
179.00,118.60,1
126.00,116.71,1
119.00,115.97,1
42.00,114.92,1
128.00,113.07,1
249.00,112.45,1
46.00,113.84,1
53.00,114.39,1
60.00,112.76,1
73.00,109.81,1
136.00,106.76,1
134.00,104.87,1
137.00,104.44,1
142.00,105.22,1
185.00,107.34,1
70.00,110.21,1
100.00,112.26,1
182.00,113.84,1
75.00,115.73,1
101.00,116.91,1
57.00,116.70,1
132.00,115.56,1
69.00,114.09,1
58.00,111.91,1
130.00,109.16,1
91.00,106.84,1
191.00,105.70,1
81.00,105.91,1
49.00,105.90,1
128.00,104.92,1
192.00,104.83,1
270.00,107.76,1
107.00,113.35,1
158.00,119.16,1
134.00,124.25,1
492.00,131.59,1
54.00,142.54,1
118.00,152.08,1
65.00,157.24,1
66.00,158.53,1
48.00,156.27,1
66.00,151.28,1
168.00,145.35,1
122.00,140.38,1
127.00,136.41,1
61.00,132.50,1
38.00,127.50,1
85.00,121.32,1
90.00,115.08,1
192.00,110.31,1
113.00,107.90,1
48.00,106.36,1
77.00,104.04,1
44.00,100.85,1
176.00,97.91,1
58.00,96.20,1
44.00,94.49,1
169.00,92.67,1
68.00,91.94,1
69.00,91.44,1
140.00,90.89,1
117.00,91.33,1
130.00,92.82,1
71.00,94.58,1
190.00,96.61,1
36.00,98.98,1
121.00,100.68,1
176.00,102.39,1
39.00,104.54,1
76.00,105.44,1
144.00,105.39,1
228.00,106.77,1
127.00,110.32,1
142.00,114.52,1
111.00,118.25,1
119.00,121.16,1
132.00,123.34,1
112.00,125.01,1
109.00,125.99,1
96.00,126.08,1
195.00,126.08,1
69.00,126.51,1
144.00,126.58,1
172.00,126.83,1
45.00,127.23,1
90.00,126.22,1
50.00,123.54,1
63.00,119.51,1
70.00,114.52,1
83.00,109.31,1
225.00,105.54,1
77.00,104.24,1
56.00,103.40,1
122.00,101.92,1
139.00,101.05,1
202.00,102.04,1
215.00,105.72,1
112.00,111.16,1
278.00,117.57,1
306.00,126.64,1
194.00,138.34,1
212.00,150.18,1
277.00,161.61,1
127.00,172.34,1
59.00,179.63,1
99.00,182.04,1
134.00,181.05,1
122.00,178.34,1
256.00,175.61,1
81.00,173.65,1
166.00,171.24,1
161.00,168.48,1
63.00,165.36,1
161.00,161.22,1
96.00,156.72,1
134.00,152.14,1
85.00,147.33,1
120.00,142.30,1
236.00,138.41,1
177.00,137.23,1
69.00,137.26,1
170.00,136.76,1
109.00,136.13,1
277.00,136.68,1
57.00,138.52,1
153.00,139.84,1
296.00,141.67,1
274.00,146.84,1
74.00,153.48,1
316.00,159.56,1
59.00,165.23,1
149.00,168.88,1
55.00,169.44,1
151.00,167.64,1
42.00,164.03,1
162.00,159.12,1
75.00,153.77,1
108.00,148.10,1
54.00,141.74,1
168.00,135.38,1
107.00,130.19,1
41.00,125.43,1
82.00,119.91,1
156.00,114.73,1
128.00,111.32,1
36.00,108.76,1
69.00,105.43,1
168.00,102.24,1
88.00,100.52,1
211.00,100.49,1
168.00,102.76,1
190.00,107.20,1
225.00,113.43,1
217.00,121.52,1
111.00,130.02,1
239.00,137.79,1
118.00,144.98,1
104.00,150.44,1
214.00,154.08,1
44.00,156.51,1
392.00,158.92,1
177.00,163.84,1
149.00,169.57,1
46.00,172.60,1
67.00,171.71,1
64.00,167.38,1
45.00,160.52,1
44.00,151.61,1
65.00,141.47,1
114.00,131.46,1
43.00,122.28,1
41.00,113.24,1
146.00,104.86,1
83.00,98.47,1
172.00,94.37,1
123.00,92.70,1
199.00,93.45,1
81.00,95.92,1
204.00,99.29,1
112.00,103.54,1
216.00,108.69,1
215.00,115.29,1
171.00,123.25,1
235.00,131.77,1
146.00,140.40,1
254.00,148.79,1
132.00,156.74,1
74.00,162.49,1
103.00,164.64,1
234.00,165.06,1
142.00,165.83,1
128.00,166.27,1
82.00,165.07,1
98.00,161.92,1
43.00,156.81,1
306.00,151.79,1
73.00,148.98,1
89.00,146.39,1
104.00,142.50,1
152.00,138.55,1
252.00,136.43,1
96.00,136.53,1
190.00,137.34,1
88.00,138.07,1
281.00,139.41,1
106.00,142.06,1
173.00,144.89,1
142.00,147.16,1
342.00,150.62,1
178.00,156.60,1
118.00,162.72,1
391.00,168.64,1
56.00,175.46,1
54.00,179.42,1
47.00,178.23,1
77.00,173.26,1
149.00,166.62,1
53.00,159.61,1
101.00,151.94,1
46.00,143.55,1
44.00,134.36,1
44.00,124.39,1
117.00,114.74,1
162.00,107.26,1
41.00,102.02,1
60.00,97.17,1
117.00,92.57,1
91.00,89.21,1
39.00,86.50,1
150.00,84.22,1
171.00,83.92,1
107.00,85.90,1
127.00,88.79,1
108.00,91.94,1
77.00,94.77,1
97.00,96.75,1
166.00,98.67,1
266.00,102.62,1
40.00,108.37,1
71.00,112.60,1
44.00,113.95,1
84.00,113.19,1
346.00,113.48,1
245.00,118.36,1
88.00,125.79,1
87.00,131.48,1
47.00,133.98,1
66.00,133.43,1
132.00,131.15,1
141.00,128.97,1
124.00,127.51,1
315.00,128.01,1
102.00,131.27,1
86.00,134.41,1
118.00,135.58,1
122.00,135.64,1
72.00,134.78,1
94.00,132.63,1
56.00,129.20,1
208.00,125.73,1
75.00,123.46,1
46.00,120.99,1
149.00,117.72,1
50.00,114.60,1
139.00,111.64,1
280.00,110.74,1
241.00,114.17,1
74.00,119.92,1
98.00,124.36,1
97.00,126.63,1
72.00,127.18,1
207.00,127.10,1
38.00,127.16,1
37.00,125.64,1
92.00,121.98,1
102.00,117.83,1
59.00,113.71,1
47.00,109.02,1
88.00,103.83,1
126.00,99.34,1
80.00,96.13,1
90.00,93.61,1
161.00,92.09,1
85.00,92.00,1
285.00,93.99,1
182.00,99.33,1
256.00,107.57,1
73.00,116.66,1
172.00,124.45,1
123.00,130.72,1
90.00,135.35,1
206.00,138.61,1
171.00,142.06,1
152.00,145.79,1
200.00,149.38,1
67.00,152.28,1
218.00,154.02,1
136.00,155.53,1
124.00,156.61,1
101.00,156.27,1
78.00,154.15,1
138.00,150.70,1
62.00,146.54,1
77.00,141.32,1
72.00,135.06,1
210.00,129.41,1
65.00,125.43,1
104.00,121.93,1
52.00,117.93,1
62.00,113.22,1
61.00,107.84,1
43.00,102.06,1
80.00,96.16,1
126.00,91.22,1
116.00,88.16,1
162.00,87.24,1
88.00,88.05,1
144.00,89.74,1
116.00,92.12,1
91.00,94.76,1
79.00,96.74,1
100.00,97.94,1
141.00,99.08,1
208.00,101.57,1
163.00,106.06,1
151.00,111.65,1
91.00,116.81,1
114.00,120.56,1
173.00,123.48,1
97.00,126.22,1
42.00,127.51,1
101.00,126.54,1
56.00,124.10,1
77.00,120.53,1
129.00,116.62,1
150.00,113.81,1
72.00,112.06,1
79.00,110.10,1
144.00,108.06,1
78.00,106.62,1
136.00,105.60,1
104.00,105.09,1
228.00,105.95,1
201.00,109.41,1
148.00,114.88,1
95.00,120.13,1
105.00,123.81,1
65.00,125.54,1
69.00,125.21,1
72.00,123.08,1
317.00,121.78,1
177.00,124.08,1
90.00,128.02,1
70.00,130.30,1
141.00,130.78,1
109.00,130.63,1
61.00,129.66,1
132.00,127.65,1
40.00,124.91,1
52.00,120.87,1
61.00,115.49,1
96.00,109.81,1
67.00,104.51,1
81.00,99.59,1
73.00,95.05,1
96.00,91.13,1
82.00,88.01,1
145.00,86.08,1
114.00,85.79,1
162.00,87.18,1
156.00,90.27,1
142.00,94.73,1
84.00,99.33,1
97.00,102.90,1
76.00,105.13,1
89.00,106.14,1
185.00,107.03,1
191.00,109.54,1
127.00,113.59,1
38.00,116.90,1
88.00,117.94,1
162.00,117.94,1
79.00,118.11,1
93.00,117.74,1
87.00,116.46,1
145.00,115.05,1
66.00,113.83,1
40.00,111.75,1
86.00,108.36,1
39.00,104.27,1
38.00,99.40,1
98.00,94.15,1
60.00,89.48,1
264.00,86.96,1
166.00,88.41,1
162.00,92.87,1
88.00,97.97,1
106.00,102.27,1
207.00,106.36,1
130.00,111.32,1
195.00,116.88,1
81.00,122.21,1
137.00,126.29,1
134.00,129.27,1
69.00,131.17,1
220.00,132.35,1
107.00,133.95,1
119.00,135.32,1
129.00,135.78,1
133.00,135.86,1
101.00,135.52,1
96.00,134.34,1
67.00,131.97,1
69.00,128.27,1
538.00,127.38,1
126.00,133.06,1
45.00,139.88,1
91.00,142.97,1
88.00,143.18,1
108.00,141.71,1
44.00,138.77,1
98.00,134.35,1
147.00,129.76,1
86.00,125.93,1
160.00,122.82,1
259.00,121.89,1
95.00,123.56,1
136.00,125.58,1
134.00,127.11,1
48.00,127.79,1
62.00,126.47,1
85.00,123.40,1
102.00,119.75,1
187.00,116.95,1
109.00,115.80,1
92.00,115.21,1
84.00,114.07,1
91.00,112.32,1
62.00,109.99,1
78.00,107.01,1
184.00,104.53,1
166.00,104.27,1
72.00,105.49,1
38.00,105.80,1
80.00,104.41,1
127.00,102.58,1
126.00,101.60,1
168.00,102.03,1
132.00,103.89,1
70.00,106.03,1
50.00,106.81,1
69.00,105.85,1
124.00,104.18,1
158.00,103.39,1
43.00,103.37,1
88.00,102.68,1
84.00,101.26,1
282.00,101.29,1
120.00,104.31,1
231.00,109.42,1
62.00,115.03,1
46.00,118.80,1
259.00,121.13,1
80.00,124.23,1
225.00,127.80,1
211.00,132.43,1
78.00,137.56,1
45.00,140.31,1
215.00,140.88,1
70.00,141.17,1
60.00,140.14,1
148.00,137.48,1
173.00,135.29,1
127.00,134.29,1
170.00,134.04,1
47.00,133.66,1
95.00,131.91,1
156.00,129.45,1
68.00,127.23,1
375.00,126.84,1
213.00,130.89,1
534.00,140.68,1
80.00,154.70,1
62.00,166.49,1
78.00,172.21,1
78.00,173.32,1
177.00,171.81,1
77.00,169.19,1
300.00,166.81,1
38.00,165.41,1
41.00,162.30,1
52.00,155.99,1
78.00,147.85,1
76.00,139.12,1
40.00,130.11,1
38.00,120.56,1
68.00,110.83,1
225.00,103.08,1
139.00,99.23,1
83.00,97.88,1
41.00,96.47,1
49.00,93.98,1
215.00,91.90,1
64.00,91.77,1
100.00,92.31,1
85.00,92.54,1
134.00,93.01,1
91.00,93.96,1
177.00,95.65,1
48.00,97.85,1
56.00,99.00,1
128.00,98.98,1
75.00,98.90,1
50.00,98.28,1
46.00,96.37,1
61.00,93.41,1
44.00,89.82,1
106.00,86.23,1
45.00,83.14,1
91.00,80.42,1
162.00,78.91,1
131.00,79.68,1
127.00,82.18,1
77.00,85.19,1
39.00,87.31,1
92.00,88.07,1
67.00,88.12,1
127.00,88.16,1
83.00,88.62,1
116.00,89.43,1
105.00,90.55,1
39.00,91.43,1
42.00,90.92,1
78.00,89.18,1
42.00,86.89,1
39.00,83.95,1
42.00,80.26,1
40.00,76.15,1
76.00,72.14,1
157.00,69.59,1
193.00,70.18,1
122.00,73.78,1
193.00,79.27,1
66.00,85.58,1
140.00,91.39,1
58.00,96.12,1
118.00,99.63,1
174.00,102.87,1
51.00,106.20,1
111.00,108.41,1
91.00,109.52,1
204.00,110.84,1
44.00,112.68,1
91.00,113.52,1
140.00,113.42,1
38.00,112.98,1
157.00,111.98,1
79.00,111.08,1
140.00,110.49,1
62.00,109.87,1
118.00,108.91,1
38.00,107.36,1
145.00,105.44,1
154.00,104.48,1
54.00,104.50,1
182.00,104.72,1
66.00,105.43,1
61.00,105.59,1
68.00,104.33,1
167.00,102.94,1
57.00,102.27,1
101.00,101.54,1
38.00,100.08,1
89.00,97.85,1
111.00,95.62,1
127.00,94.39,1
59.00,93.84,1
68.00,92.91,1
73.00,91.34,1
197.00,90.54,1
68.00,91.35,1
83.00,92.40,1
89.00,92.80,1
154.00,93.47,1
85.00,94.88,1
72.00,96.08,1
37.00,96.00,1
63.00,94.49,1
40.00,91.90,1
55.00,88.51,1
56.00,84.71,1
166.00,81.78,1
163.00,81.44,1
71.00,83.17,1
104.00,85.11,1
64.00,86.61,1
140.00,87.96,1
96.00,89.72,1
58.00,91.31,1
199.00,92.90,1
207.00,96.53,1
116.00,102.16,1
69.00,107.26,1
143.00,110.88,1
144.00,114.08,1
111.00,117.23,1
276.00,121.05,1
69.00,126.01,1
144.00,130.22,1
260.00,134.22,1
169.00,139.70,1
64.00,144.72,1
101.00,147.06,1
89.00,146.90,1
61.00,144.73,1
181.00,141.53,1
241.00,139.90,1
183.00,141.04,1
55.00,142.73,1
71.00,142.29,1
105.00,139.73,1
52.00,135.91,1
345.00,133.09,1
96.00,133.46,1
206.00,135.47,1
100.00,137.54,1
113.00,138.87,1
88.00,138.71,1
44.00,136.74,1
212.00,133.93,1
68.00,131.80,1
43.00,129.04,1
218.00,125.75,1
170.00,124.45,1
151.00,125.25,1
74.00,126.24,1
90.00,126.02,1
106.00,124.64,1
127.00,123.01,1
112.00,121.60,1
39.00,119.72,1
185.00,117.43,1
43.00,115.54,1
46.00,112.89,1
84.00,108.95,1
38.00,104.44,1
45.00,99.22,1
73.00,93.62,1
155.00,89.14,1
84.00,86.65,1
148.00,85.78,1
162.00,86.80,1
139.00,89.75,1
50.00,93.08,1
54.00,94.97,1
141.00,95.72,1
172.00,97.32,1
140.00,100.50,1
123.00,104.36,1
116.00,108.00,1
224.00,111.97,1
72.00,116.56,1
247.00,121.27,1
78.00,126.16,1
56.00,129.49,1
82.00,129.98,1
163.00,129.22,1
111.00,128.66,1
62.00,127.67,1
106.00,125.52,1
72.00,122.60,1
41.00,118.71,1
120.00,114.09,1
46.00,109.51,1
99.00,104.97,1
105.00,100.94,1
42.00,97.44,1
88.00,93.84,1
80.00,90.47,1
115.00,87.92,1
114.00,86.58,1
249.00,87.64,1
117.00,91.55,1
107.00,96.37,1
105.00,100.46,1
64.00,103.39,1
172.00,105.54,1
38.00,107.38,1
66.00,107.81,1
90.00,106.71,1
68.00,104.94,1
202.00,103.67,1
39.00,103.49,1
172.00,103.67,1
98.00,104.37,1
57.00,104.96,1
70.00,104.26,1
80.00,102.57,1
74.00,100.40,1
93.00,98.08,1
74.00,95.84,1
75.00,93.57,1
91.00,91.35,1
84.00,89.47,1
226.00,89.11,1
204.00,92.01,1
54.00,96.92,1
172.00,101.45,1
62.00,105.33,1
127.00,108.29,1
108.00,110.46,1
109.00,112.20,1
79.00,113.14,1
220.00,114.15,1
95.00,116.23,1
255.00,119.48,1
197.00,124.65,1
66.00,130.39,1
209.00,134.87,1
143.00,139.00,1
222.00,143.47,1
172.00,148.42,1
63.00,152.47,1
125.00,153.99,1
50.00,153.05,1
96.00,149.92,1
350.00,147.48,1
124.00,148.41,1
47.00,149.54,1
189.00,148.82,1
210.00,148.61,1
74.00,149.18,1
204.00,149.33,1
174.00,149.94,1
82.00,150.68,1
194.00,150.66,1
102.00,150.38,1
46.00,148.88,1
59.00,144.88,1
342.00,141.24,1
220.00,141.80,1
130.00,145.06,1
61.00,147.19,1
143.00,147.20,1
74.00,145.81,1
101.00,143.14,1
86.00,139.36,1
66.00,134.68,1
132.00,129.55,1
66.00,124.64,1
52.00,119.39,1
54.00,113.29,1
67.00,106.78,1
178.00,101.33,1
132.00,98.45,1
77.00,97.29,1
88.00,96.28,1
83.00,95.11,1
62.00,93.68,1
260.00,93.36,1
108.00,95.75,1
155.00,99.63,1
96.00,103.54,1
56.00,106.41,1
61.00,107.29,1
127.00,106.92,1
157.00,107.01,1
164.00,108.56,1
109.00,111.06,1
49.00,112.85,1
139.00,113.33,1
120.00,113.65,1
88.00,114.00,1
94.00,113.71,1
106.00,112.88,1
85.00,111.75,1
117.00,110.44,1
42.00,108.78,1
180.00,107.07,1
85.00,106.25,1
169.00,106.42,1
42.00,106.88,1
145.00,106.98,1
68.00,106.83,1
44.00,105.86,1
85.00,103.61,1
254.00,102.35,1
78.00,103.58,1
90.00,105.22,1
42.00,105.46,1
118.00,104.56,1
47.00,103.11,1
182.00,101.85,1
149.00,102.14,1
243.00,104.97,1
127.00,109.98,1
184.00,115.79,1
132.00,121.56,1
79.00,126.29,1
161.00,129.40,1
77.00,131.45,1
96.00,132.05,1
57.00,130.81,1
59.00,127.76,1
106.00,123.54,1
110.00,119.40,1
127.00,116.06,1
127.00,113.74,1
70.00,111.95,1
79.00,109.75,1
155.00,107.61,1
277.00,107.97,1
99.00,111.36,1
64.00,114.72,1
154.00,116.61,1
127.00,118.32,1
58.00,119.56,1
134.00,119.66,1
147.00,119.69,1
76.00,119.92,1
140.00,119.76,1
87.00,119.33,1
54.00,118.11,1
93.00,115.66,1
62.00,112.45,1
142.00,109.26,1
108.00,106.98,1
136.00,105.79,1
98.00,105.35,1
44.00,104.64,1
135.00,103.28,1
195.00,103.07,1
124.00,104.87,1
55.00,106.90,1
119.00,107.82,1
70.00,107.94,1
128.00,107.67,1
138.00,107.73,1
148.00,108.79,1
44.00,109.94,1
115.00,110.08,1
173.00,110.24,1
94.00,111.30,1
62.00,111.92,1
77.00,111.12,1
67.00,109.18,1
164.00,107.19,1
321.00,108.06,1
116.00,112.77,1
40.00,117.52,1
56.00,119.28,1
66.00,118.47,1
114.00,116.44,1
87.00,114.18,1
143.00,112.25,1
212.00,111.91,1
196.00,114.28,1
121.00,118.31,1
84.00,121.78,1
49.00,123.16,1
81.00,122.30,1
40.00,119.66,1
62.00,115.53,1
84.00,110.61,1
163.00,106.47,1
45.00,103.57,1
44.00,100.39,1
73.00,96.36,1
154.00,92.95,1
128.00,91.51,1
99.00,91.59,1
101.00,92.16,1
98.00,92.85,1
40.00,93.08,1
181.00,93.15,1
256.00,95.57,1
127.00,101.01,1
45.00,106.39,1
150.00,110.00,1
102.00,112.80,1
48.00,114.52,1
144.00,114.87,1
47.00,114.49,1
56.00,112.85,1
50.00,109.58,1
71.00,105.33,1
90.00,100.95,1
80.00,97.02,1
81.00,93.56,1
82.00,90.51,1
55.00,87.69,1
112.00,85.15,1
151.00,83.96,1
58.00,84.18,1
103.00,84.63,1
76.00,84.97,1
226.00,86.42,1
50.00,89.44,1
62.00,91.98,1
151.00,93.55,1
143.00,95.85,1
144.00,99.26,1
127.00,103.18,1
78.00,106.68,1
253.00,110.26,1
48.00,114.56,1
92.00,117.69,1
57.00,118.54,1
69.00,117.53,1
107.00,115.36,1
62.00,112.75,1
75.00,109.57,1
40.00,105.59,1
149.00,101.60,1
98.00,98.81,1
52.00,96.71,1
80.00,94.24,1
73.00,91.61,1
66.00,88.99,1
125.00,86.78,1
74.00,85.46,1
90.00,84.64,1
60.00,83.81,1
251.00,84.23,1
80.00,87.07,1
112.00,90.68,1
134.00,94.04,1
172.00,98.06,1
107.00,102.71,1
139.00,107.19,1
263.00,112.43,1
73.00,118.78,1
136.00,124.19,1
75.00,127.63,1
154.00,129.66,1
69.00,130.65,1
91.00,130.23,1
208.00,129.40,1
71.00,129.27,1
159.00,129.10,1
86.00,128.63,1
58.00,127.22,1
32.00,123.85,1
55.00,118.64,1
113.00,112.86,1
53.00,107.50,1
37.00,101.99,1
137.00,96.62,1
100.00,92.74,1
36.00,89.82,1
68.00,86.61,1
36.00,83.03,1
83.00,79.39,1
162.00,77.00,1
134.00,77.12,1
132.00,79.33,1
183.00,83.21,1
95.00,88.31,1
148.00,93.58,1
118.00,98.71,1
306.00,105.06,1
187.00,114.00,1
40.00,122.99,1
54.00,128.39,1
42.00,129.81,1
172.00,129.13,1
291.00,129.94,1
40.00,132.83,1
71.00,134.27,1
65.00,132.95,1
100.00,130.03,1
153.00,126.96,1
109.00,124.70,1
127.00,122.96,1
97.00,121.38,1
164.00,120.18,1
121.00,119.81,1
60.00,119.42,1
127.00,118.21,1
43.00,116.33,1
110.00,113.70,1
72.00,110.72,1
61.00,107.39,1
68.00,103.47,1
142.00,99.87,1
122.00,97.75,1
88.00,96.83,1
77.00,96.02,1
85.00,94.95,1
85.00,93.73,1
72.00,92.41,1
86.00,90.95,1
154.00,90.13,1
90.00,90.56,1
110.00,91.55,1
71.00,92.44,1
89.00,92.86,1
74.00,92.79,1
41.00,91.95,1
58.00,90.03,1
47.00,87.28,1
39.00,83.88,1
43.00,79.90,1
42.00,75.62,1
68.00,71.47,1
71.00,68.01,1
127.00,65.94,1
72.00,65.46,1
68.00,65.74,1
38.00,65.80,1
270.00,67.09,1
233.00,72.58,1
280.00,82.83,1
221.00,96.25,1
88.00,109.96,1
45.00,120.40,1
87.00,126.52,1
179.00,130.27,1
48.00,132.89,1
103.00,133.60,1
179.00,133.31,1
48.00,132.88,1
72.00,131.01,1
75.00,127.46,1
67.00,122.93,1
88.00,117.86,1
75.00,112.74,1
56.00,107.55,1
93.00,102.36,1
107.00,97.91,1
76.00,94.46,1
68.00,91.42,1
75.00,88.45,1
43.00,85.43,1
76.00,82.27,1
89.00,79.49,1
42.00,77.19,1
121.00,75.33,1
77.00,74.41,1
78.00,74.17,1
40.00,73.79,1
54.00,72.80,1
155.00,72.15,1
44.00,72.65,1
181.00,74.15,1
117.00,77.17,1
89.00,81.06,1
66.00,84.33,1
166.00,87.23,1
159.00,91.14,1
78.00,95.75,1
47.00,99.07,1
104.00,100.59,1
63.00,101.05,1
120.00,100.95,1
66.00,100.58,1
39.00,99.38,1
74.00,96.97,1
40.00,93.80,1
78.00,90.20,1
203.00,87.78,1
41.00,87.41,1
47.00,86.98,1
98.00,85.70,1
59.00,84.39,1
82.00,83.06,1
78.00,81.80,1
94.00,80.88,1
61.00,80.21,1
49.00,79.24,1
102.00,78.04,1
168.00,78.04,1
44.00,79.44,1
108.00,80.88,1
39.00,81.77,1
73.00,81.89,1
115.00,81.75,1
95.00,82.23,1
48.00,82.80,1
137.00,83.21,1
56.00,83.89,1
49.00,84.10,1
75.00,83.37,1
38.00,81.99,1
127.00,80.53,1
134.00,80.29,1
67.00,81.26,1
56.00,81.99,1
129.00,82.38,1
45.00,82.92,1
40.00,82.72,1
208.00,82.59,1
87.00,84.26,1
35.00,86.19,1
59.00,86.60,1
39.00,85.62,1
127.00,84.23,1
90.00,83.55,1
75.00,83.44,1
69.00,83.14,1
101.00,82.77,1
47.00,82.37,1
78.00,81.60,1
108.00,80.89,1
150.00,81.35,1
96.00,83.17,1
58.00,85.11,1
57.00,86.00,1
99.00,86.06,1
59.00,85.86,1
76.00,85.29,1
42.00,84.12,1
59.00,82.26,1
67.00,79.99,1
115.00,78.18,1
243.00,78.69,1
112.00,82.38,1
37.00,86.62,1
119.00,89.49,1
134.00,92.10,1
199.00,95.88,1
45.00,100.36,1
46.00,103.19,1
90.00,103.80,1
110.00,103.61,1
45.00,102.96,1
58.00,101.19,1
201.00,99.50,1
157.00,100.02,1
129.00,102.45,1
127.00,105.39,1
124.00,108.33,1
412.00,113.53,1
123.00,122.55,1
149.00,132.02,1
72.00,138.93,1
169.00,143.41,1
364.00,148.46,1
118.00,155.78,1
120.00,162.14,1
45.00,164.96,1
53.00,163.80,1
94.00,159.51,1
70.00,153.54,1
135.00,146.98,1
42.00,140.30,1
114.00,133.32,1
147.00,127.06,1
84.00,122.17,1
144.00,118.21,1
176.00,115.82,1
75.00,114.90,1
50.00,113.50,1
145.00,111.33,1
61.00,109.31,1
37.00,106.68,1
143.00,103.44,1
40.00,100.57,1
48.00,97.29,1
52.00,93.13,1
132.00,89.23,1
98.00,86.76,1
77.00,85.36,1
95.00,84.34,1
164.00,84.34,1
132.00,86.17,1
75.00,88.87,1
87.00,91.04,1
131.00,92.81,1
101.00,94.82,1
53.00,96.40,1
56.00,96.57,1
168.00,96.26,1
140.00,97.25,1
110.00,99.40,1
98.00,101.54,1
56.00,102.79,1
88.00,102.80,1
170.00,102.73,1
96.00,103.62,1
109.00,104.76,1
143.00,105.95,1
121.00,107.61,1
88.00,109.23,1
48.00,109.68,1
195.00,109.54,1
137.00,110.55,1
159.00,112.86,1
238.00,116.61,1
82.00,121.53,1
66.00,125.12,1
48.00,125.85,1
72.00,124.15,1
74.00,120.96,1
117.00,117.31,1
74.00,113.82,1
111.00,110.51,1
97.00,107.59,1
79.00,104.98,1
140.00,102.80,1
131.00,101.79,1
256.00,103.08,1
163.00,107.34,1
219.00,113.62,1
73.00,120.22,1
65.00,124.82,1
70.00,126.44,1
127.00,126.21,1
60.00,125.04,1
55.00,122.51,1
90.00,118.67,1
59.00,114.25,1
76.00,109.46,1
52.00,104.37,1
102.00,99.37,1
38.00,94.72,1
81.00,90.19,1
114.00,86.36,1
40.00,83.48,1
58.00,80.62,1
103.00,77.91,1
42.00,75.81,1
81.00,73.92,1
40.00,72.05,1
71.00,70.17,1
106.00,68.80,1
45.00,68.21,1
38.00,67.43,1
106.00,66.50,1
70.00,66.24,1
83.00,66.57,1
63.00,67.10,1
64.00,67.54,1
74.00,67.83,1
41.00,67.89,1
53.00,67.43,1
175.00,67.50,1
65.00,69.21,1
39.00,71.06,1
251.00,73.38,1
81.00,77.87,1
128.00,83.18,1
94.00,88.02,1
151.00,92.65,1
296.00,98.84,1
62.00,106.99,1
77.00,113.75,1
94.00,117.67,1
114.00,119.87,1
74.00,120.84,1
37.00,120.06,1
42.00,117.06,1
89.00,112.66,1
37.00,107.70,1
113.00,102.65,1
110.00,98.50,1
38.00,95.16,1
50.00,91.42,1
238.00,88.67,1
88.00,88.73,1
46.00,89.65,1
39.00,89.18,1
55.00,87.34,1
118.00,85.26,1
100.00,84.10,1
184.00,84.59,1
69.00,86.60,1
53.00,88.36,1
103.00,89.07,1
59.00,89.29,1
72.00,88.93,1
45.00,87.75,1
153.00,86.56,1
99.00,86.52,1
184.00,88.07,1
62.00,90.71,1
121.00,93.26,1
39.00,94.95,1
95.00,95.51,1
39.00,95.01,1
76.00,93.53,1
79.00,91.55,1
64.00,89.47,1
59.00,87.13,1
79.00,84.62,1
36.00,82.01,1
172.00,79.98,1
36.00,79.24,1
164.00,79.44,1
41.00,80.31,1
122.00,81.37,1
66.00,82.38,1
151.00,83.76,1
116.00,86.06,1
123.00,89.14,1
49.00,91.93,1
44.00,93.19,1
92.00,92.96,1
60.00,92.09,1
62.00,90.65,1
84.00,88.76,1
90.00,87.03,1
98.00,85.84,1
106.00,85.34,1
94.00,85.48,1
86.00,85.90,1
48.00,85.97,1
79.00,85.34,1
79.00,84.39,1
110.00,83.76,1
35.00,83.26,1
86.00,82.34,1
54.00,81.07,1
136.00,80.16,1
51.00,79.93,1
89.00,79.82,1
70.00,79.57,1
39.00,78.96,1
219.00,78.92,1
105.00,81.11,1
66.00,84.19,1
54.00,86.14,1
241.00,88.22,1
70.00,91.89,1
73.00,95.39,1
44.00,97.03,1
134.00,97.50,1
106.00,98.08,1
46.00,98.52,1
82.00,97.91,1
59.00,96.43,1
38.00,94.08,1
110.00,91.19,1
52.00,88.54,1
62.00,85.89,1
71.00,83.07,1
56.00,80.32,1
104.00,77.95,1
54.00,76.21,1
133.00,75.22,1
68.00,75.19,1
42.00,75.25,1
135.00,75.19,1
64.00,75.76,1
67.00,76.43,1
119.00,77.03,1
105.00,78.33,1
128.00,80.52,1
63.00,83.04,1
80.00,84.96,1
69.00,86.02,1
90.00,86.52,1
57.00,86.58,1
128.00,86.49,1
173.00,87.60,1
122.00,90.47,1
47.00,93.49,1
107.00,95.38,1
62.00,96.32,1
90.00,96.49,1
90.00,96.17,1
41.00,95.32,1
191.00,94.53,1
36.00,94.60,1
112.00,94.62,1
69.00,94.23,1
59.00,93.37,1
78.00,91.82,1
57.00,89.85,1
85.00,87.67,1
45.00,85.36,1
38.00,82.54,1
79.00,79.31,1
110.00,76.77,1
83.00,75.46,1
113.00,75.18,1
76.00,75.67,1
123.00,76.75,1
73.00,78.30,1
135.00,80.23,1
62.00,82.40,1
133.00,84.56,1
96.00,86.92,1
42.00,88.87,1
98.00,89.71,1
110.00,90.25,1
75.00,90.93,1
131.00,91.67,1
71.00,92.58,1
172.00,93.89,1
107.00,96.10,1
39.00,98.11,1
221.00,99.76,1
116.00,102.65,1
52.00,105.64,1
67.00,106.79,1
118.00,106.65,1
35.00,105.80,1
51.00,103.63,1
88.00,100.41,1
67.00,97.07,1
146.00,94.37,1
134.00,93.27,1
54.00,93.23,1
133.00,93.21,1
88.00,93.49,1
106.00,94.05,1
47.00,94.22,1
110.00,93.80,1
65.00,93.13,1
96.00,92.31,1
160.00,92.09,1
193.00,93.93,1
55.00,97.20,1
53.00,99.41,1
47.00,99.50,1
98.00,98.30,1
63.00,96.67,1
101.00,94.91,1
41.00,92.97,1
40.00,90.24,1
39.00,86.50,1
112.00,82.69,1
52.00,79.67,1
51.00,76.95,1
164.00,74.97,1
99.00,74.95,1
61.00,75.96,1
64.00,76.57,1
121.00,77.07,1
60.00,77.92,1
111.00,78.91,1
40.00,79.70,1
128.00,80.31,1
76.00,81.19,1
121.00,82.49,1
148.00,84.63,1
65.00,87.43,1
56.00,89.44,1
98.00,90.26,1
134.00,91.09,1
58.00,92.22,1
84.00,92.79,1
43.00,92.36,1
44.00,90.75,1
52.00,88.03,1
78.00,84.91,1
83.00,82.14,1
48.00,79.74,1
36.00,77.04,1
50.00,73.84,1
113.00,71.03,1
112.00,69.76,1
78.00,69.93,1
38.00,70.27,1
111.00,70.39,1
69.00,70.88,1
92.00,71.72,1
132.00,73.18,1
82.00,75.49,1
53.00,77.64,1
80.00,78.92,1
82.00,79.72,1
72.00,80.30,1
35.00,80.25,1
74.00,79.33,1
80.00,78.19,1
156.00,77.96,1
60.00,78.95,1
59.00,79.86,1
114.00,80.33,1
40.00,80.73,1
40.00,80.29,1
80.00,78.95,1
60.00,77.48,1
77.00,76.08,1
59.00,74.76,1
83.00,73.58,1
101.00,72.95,1
54.00,72.87,1
39.00,72.45,1
127.00,71.88,1
46.00,71.88,1
69.00,71.88,1
35.00,71.31,1
98.00,70.48,1
56.00,69.89,1
78.00,69.51,1
173.00,70.12,1
44.00,72.13,1
69.00,74.00,1
50.00,74.90,1
123.00,75.52,1
111.00,76.85,1
40.00,78.51,1
69.00,79.31,1
77.00,79.40,1
50.00,79.10,1
40.00,78.05,1
77.00,76.37,1
152.00,75.44,1
68.00,75.96,1
37.00,76.53,1
53.00,76.04,1
46.00,74.70,1
220.00,74.23,1
102.00,76.27,1
139.00,79.95,1
41.00,83.58,1
36.00,85.69,1
64.00,85.92,1
76.00,85.23,1
92.00,84.43,1
107.00,84.06,1
112.00,84.48,1
63.00,85.25,1
119.00,85.98,1
154.00,87.46,1
63.00,89.75,1
70.00,91.41,1
184.00,92.86,1
96.00,95.30,1
53.00,97.56,1
73.00,98.31,1
63.00,97.80,1
93.00,96.58,1
115.00,95.47,1
107.00,95.03,1
45.00,94.64,1
99.00,93.66,1
60.00,92.32,1
62.00,90.57,1
58.00,88.25,1
45.00,85.39,1
168.00,83.01,1
100.00,82.43,1
187.00,83.89,1
45.00,86.52,1
36.00,88.24,1
38.00,87.89,1
39.00,85.97,1
39.00,82.95,1
128.00,79.94,1
104.00,78.32,1
128.00,78.35,1
127.00,79.81,1
127.00,82.51,1
127.00,86.03,1
76.00,89.63,1
41.00,92.04,1
134.00,93.23,1
67.00,94.17,1
192.00,95.57,1
46.00,97.59,1
54.00,98.70,1
62.00,98.04,1
43.00,96.13,1
95.00,93.50,1
78.00,90.99,1
78.00,88.79,1
93.00,86.88,1
49.00,85.15,1
85.00,83.29,1
180.00,82.43,1
119.00,83.70,1
92.00,86.10,1
98.00,88.40,1
248.00,91.65,1
144.00,97.19,1
102.00,103.48,1
118.00,108.68,1
189.00,113.40,1
113.00,118.28,1
118.00,122.48,1
121.00,125.52,1
79.00,127.29,1
126.00,127.78,1
62.00,127.17,1
127.00,125.61,1
63.00,123.39,1
78.00,120.35,1
95.00,116.66,1
78.00,112.85,1
121.00,109.30,1
198.00,107.26,1
104.00,107.32,1
39.00,107.50,1
58.00,106.05,1
49.00,103.09,1
105.00,99.59,1
65.00,96.31,1
50.00,92.99,1
47.00,89.14,1
61.00,84.96,1
271.00,82.62,1
38.00,83.43,1
199.00,85.82,1
63.00,88.93,1
76.00,91.67,1
44.00,92.84,1
80.00,92.68,1
68.00,91.73,1
80.00,90.42,1
88.00,89.05,1
110.00,88.09,1
110.00,87.91,1
97.00,88.40,1
61.00,88.86,1
43.00,88.44,1
64.00,86.94,1
84.00,85.02,1
62.00,83.18,1
42.00,81.09,1
96.00,78.82,1
67.00,76.98,1
67.00,75.49,1
37.00,73.83,1
65.00,71.82,1
83.00,69.99,1
48.00,68.58,1
75.00,67.35,1
66.00,66.37,1
123.00,66.16,1
70.00,66.98,1
53.00,68.01,1
105.00,68.86,1
56.00,69.88,1
88.00,70.86,1
107.00,72.06,1
87.00,73.82,1
55.00,75.49,1
74.00,76.51,1
43.00,76.78,1
248.00,77.82,1
86.00,81.19,1
103.00,85.38,1
232.00,90.10,1
83.00,96.07,1
125.00,101.75,1
45.00,105.82,1
38.00,107.49,1
105.00,107.09,1
58.00,105.77,1
65.00,103.63,1
88.00,100.86,1
100.00,98.23,1
74.00,95.98,1
48.00,93.54,1
61.00,90.51,1
45.00,86.98,1
42.00,83.02,1
93.00,79.09,1
135.00,76.50,1
188.00,76.57,1
93.00,79.09,1
82.00,82.17,1
178.00,85.38,1
84.00,89.33,1
120.00,93.24,1
66.00,96.34,1
101.00,98.44,1
73.00,99.60,1
136.00,100.35,1
150.00,101.70,1
307.00,105.53,1
50.00,111.72,1
152.00,117.36,1
76.00,121.31,1
39.00,123.10,1
48.00,122.03,1
48.00,118.70,1
198.00,115.06,1
84.00,112.85,1
100.00,111.30,1
142.00,109.96,1
134.00,109.60,1
111.00,110.01,1
146.00,110.84,1
42.00,111.49,1
77.00,110.82,1
112.00,109.17,1
117.00,107.77,1
88.00,106.73,1
160.00,106.16,1
95.00,106.38,1
157.00,107.24,1
76.00,108.35,1
81.00,108.83,1
54.00,107.99,1
242.00,107.34,1
144.00,108.95,1
69.00,111.54,1
132.00,113.23,1
58.00,114.01,1
105.00,113.73,1
154.00,113.25,1
43.00,112.90,1
126.00,111.93,1
306.00,112.45,1
85.00,115.93,1
70.00,119.25,1
79.00,120.34,1
113.00,120.01,1
67.00,118.86,1
47.00,116.48,1
133.00,113.23,1
68.00,110.17,1
358.00,109.41,1
83.00,112.39,1
58.00,115.76,1
45.00,116.46,1
41.00,114.68,1
142.00,111.75,1
221.00,110.36,1
186.00,112.03,1
423.00,118.04,1
84.00,127.95,1
430.00,139.69,1
57.00,152.28,1
121.00,162.30,1
68.00,167.58,1
36.00,168.48,1
356.00,167.68,1
69.00,168.30,1
328.00,170.01,1
105.00,172.54,1
160.00,174.53,1
108.00,174.67,1
63.00,172.63,1
293.00,169.72,1
81.00,167.93,1
53.00,165.22,1
196.00,160.85,1
278.00,158.20,1
64.00,157.70,1
159.00,156.76,1
205.00,155.72,1
107.00,155.37,1
68.00,153.98,1
52.00,150.24,1
58.00,144.30,1
100.00,137.23,1
80.00,130.10,1
49.00,122.92,1
94.00,115.65,1
179.00,109.75,1
65.00,105.91,1
93.00,102.81,1
116.00,100.10,1
62.00,97.92,1
376.00,98.11,1
94.00,102.57,1
507.00,111.44,1
104.00,124.54,1
46.00,136.67,1
115.00,143.92,1
51.00,147.37,1
95.00,147.67,1
212.00,146.75,1
45.00,145.87,1
107.00,143.75,1
217.00,141.31,1
93.00,140.03,1
36.00,138.06,1
72.00,133.97,1
91.00,128.66,1
74.00,123.08,1
246.00,118.77,1
81.00,116.95,1
38.00,115.38,1
107.00,112.56,1
72.00,109.36,1
98.00,106.20,1
125.00,103.53,1
38.00,101.27,1
37.00,98.17,1
51.00,93.90,1
66.00,89.25,1
46.00,84.64,1
66.00,80.20,1
89.00,76.38,1
65.00,73.50,1
43.00,71.06,1
40.00,68.42,1
86.00,65.89,1
60.00,64.03,1
65.00,62.74,1
161.00,62.61,1
94.00,64.41,1
192.00,68.15,1
54.00,73.12,1
222.00,78.81,1
170.00,86.06,1
129.00,94.44,1
80.00,101.88,1
65.00,107.11,1
104.00,110.13,1
63.00,111.54,1
67.00,111.39,1
110.00,110.13,1
102.00,108.75,1
101.00,107.54,1
36.00,105.86,1
50.00,102.92,1
54.00,98.85,1
48.00,94.18,1
37.00,89.07,1
37.00,83.55,1
87.00,78.24,1
66.00,73.91,1
93.00,70.75,1
65.00,68.64,1
54.00,67.05,1
118.00,66.04,1
67.00,66.05,1
59.00,66.45,1
120.00,67.08,1
56.00,68.28,1
88.00,69.58,1
130.00,71.26,1
126.00,74.13,1
58.00,77.49,1
215.00,81.27,1
182.00,87.03,1
79.00,93.98,1
41.00,99.30,1
85.00,102.08,1
75.00,103.18,1
93.00,103.30,1
56.00,102.60,1
49.00,100.77,1
69.00,97.89,1
38.00,94.33,1
46.00,90.07,1
119.00,85.91,1
47.00,82.65,1
66.00,79.74,1
57.00,76.85,1
38.00,73.91,1
92.00,71.08,1
50.00,68.84,1
40.00,66.77,1
56.00,64.53,1
50.00,62.35,1
41.00,60.27,1
92.00,58.55,1
100.00,57.99,1
64.00,58.61,1
107.00,59.92,1
69.00,61.81,1
82.00,63.91,1
46.00,65.69,1
109.00,67.22,1
87.00,69.06,1
61.00,71.02,1
77.00,72.53,1
90.00,73.80,1
36.00,74.74,1
62.00,74.84,1
50.00,74.17,1
75.00,73.16,1
54.00,72.08,1
43.00,70.74,1
135.00,69.66,1
83.00,69.81,1
84.00,70.80,1
49.00,71.69,1
40.00,71.83,1
49.00,71.03,1
53.00,69.65,1
44.00,67.94,1
52.00,65.99,1
42.00,63.90,1
52.00,61.75,1
72.00,59.87,1
70.00,58.67,1
122.00,58.58,1
117.00,60.15,1
113.00,63.23,1
45.00,66.70,1
72.00,69.40,1
105.00,71.59,1
46.00,73.60,1
76.00,74.94,1
90.00,75.87,1
67.00,76.73,1
75.00,77.32,1
139.00,78.16,1
58.00,79.61,1
41.00,80.52,1
64.00,80.23,1
52.00,79.19,1
37.00,77.46,1
116.00,75.59,1
67.00,74.44,1
176.00,74.63,1
204.00,77.50,1
130.00,82.99,1
56.00,88.73,1
64.00,92.66,1
58.00,94.57,1
83.00,95.07,1
174.00,95.59,1
127.00,97.45,1
39.00,99.50,1
67.00,100.00,1
114.00,99.44,1
105.00,99.04,1
122.00,99.14,1
121.00,99.83,1
76.00,100.69,1
51.00,100.70,1
101.00,99.67,1
164.00,99.03,1
43.00,99.18,1
55.00,98.53,1
124.00,97.06,1
137.00,96.38,1
36.00,96.26,1
60.00,95.21,1
80.00,93.21,1
43.00,90.78,1
66.00,87.85,1
62.00,84.67,1
150.00,82.27,1
126.00,81.77,1
191.00,83.61,1
184.00,88.01,1
139.00,94.22,1
116.00,100.60,1
127.00,106.25,1
92.00,110.85,1
83.00,113.92,1
38.00,114.94,1
90.00,113.97,1
97.00,112.07,1
63.00,109.79,1
124.00,107.29,1
119.00,105.40,1
87.00,104.19,1
61.00,102.74,1
168.00,101.36,1
271.00,102.50,1
60.00,106.33,1
61.00,109.46,1
42.00,110.08,1
210.00,109.84,1
88.00,110.57,1
86.00,111.37,1
116.00,111.40,1
76.00,111.00,1
196.00,110.86,1
54.00,111.41,1
94.00,111.43,1
40.00,110.07,1
78.00,107.49,1
39.00,103.90,1
109.00,99.93,1
98.00,96.54,1
106.00,94.16,1
153.00,93.09,1
96.00,93.39,1
42.00,93.73,1
52.00,92.81,1
72.00,90.83,1
105.00,88.81,1
37.00,86.97,1
124.00,85.21,1
52.00,83.83,1
60.00,82.39,1
39.00,80.31,1
52.00,77.64,1
93.00,75.00,1
222.00,74.32,1
34.00,76.07,1
152.00,78.53,1
37.00,80.90,1
77.00,82.53,1
381.00,85.76,1
95.00,93.13,1
152.00,101.64,1
90.00,108.79,1
182.00,114.87,1
83.00,120.14,1
65.00,123.58,1
127.00,124.92,1
116.00,125.41,1
113.00,125.52,1
172.00,125.71,1
76.00,126.10,1
53.00,125.34,1
50.00,122.51,1
135.00,118.69,1
71.00,115.10,1
38.00,111.16,1
85.00,106.40,1
125.00,102.01,1
178.00,99.57,1
40.00,98.73,1
66.00,97.50,1
54.00,95.21,1
113.00,92.69,1
71.00,90.62,1
61.00,88.66,1
152.00,87.09,1
68.00,86.60,1
49.00,86.16,1
328.00,87.06,1
79.00,91.34,1
218.00,97.40,1
96.00,103.83,1
127.00,109.72,1
107.00,114.35,1
134.00,118.01,1
125.00,121.02,1
261.00,124.66,1
518.00,132.97,1
72.00,146.21,1
191.00,158.50,1
110.00,167.25,1
57.00,172.22,1
123.00,173.13,1
94.00,171.38,1
52.00,167.36,1
266.00,162.61,1
122.00,159.47,1
68.00,156.58,1
39.00,151.66,1
95.00,144.87,1
128.00,137.86,1
105.00,131.74,1
51.00,125.94,1
212.00,120.84,1
55.00,117.35,1
216.00,115.28,1
116.00,114.90,1
96.00,115.31,1
114.00,115.29,1
55.00,114.60,1
159.00,113.45,1
58.00,112.39,1
174.00,111.58,1
56.00,111.09,1
60.00,109.90,1
111.00,107.72,1
112.00,105.77,1
134.00,104.66,1
55.00,103.96,1
39.00,102.32,1
80.00,99.46,1
139.00,96.79,1
170.00,95.94,1
62.00,96.59,1
64.00,96.84,1
71.00,95.99,1
41.00,94.20,1
38.00,91.29,1
63.00,87.55,1
223.00,85.02,1
74.00,85.12,1
100.00,86.27,1
227.00,88.44,1
161.00,93.07,1
61.00,98.56,1
92.00,102.56,1
64.00,104.75,1
62.00,105.29,1
132.00,104.85,1
91.00,104.49,1
53.00,103.80,1
82.00,102.14,1
101.00,100.14,1
54.00,98.09,1
40.00,95.34,1
112.00,92.14,1
70.00,89.42,1
98.00,87.29,1
70.00,85.56,1
92.00,84.15,1
180.00,83.87,1
161.00,85.95,1
54.00,89.29,1
54.00,91.54,1
49.00,91.96,1
37.00,90.80,1
237.00,89.88,1
38.00,90.76,1
88.00,91.75,1
68.00,91.80,1
46.00,91.03,1
187.00,90.31,1
61.00,90.75,1
85.00,91.34,1
332.00,93.44,1
199.00,99.75,1
197.00,108.98,1
83.00,117.98,1
97.00,124.71,1
96.00,128.79,1
46.00,130.41,1
323.00,131.55,1
79.00,134.45,1
68.00,136.75,1
75.00,136.36,1
141.00,134.52,1
148.00,132.84,1
91.00,131.54,1
127.00,129.98,1
57.00,127.82,1
129.00,125.00,1
43.00,121.68,1
264.00,119.10,1
192.00,119.54,1
57.00,121.77,1
92.00,122.73,1
116.00,122.34,1
317.00,123.31,1
90.00,126.93,1
63.00,130.11,1
193.00,131.61,1
271.00,134.35,1
126.00,139.13,1
117.00,143.45,1
92.00,145.71,1
212.00,146.85,1
303.00,149.64,1
51.00,153.99,1
172.00,156.97,1
132.00,158.39,1
177.00,159.29,1
258.00,160.86,1
101.00,163.31,1
88.00,164.30,1
65.00,162.44,1
173.00,158.88,1
81.00,154.99,1
84.00,150.37,1
48.00,144.34,1
204.00,138.16,1
74.00,133.27,1
87.00,128.78,1
179.00,124.63,1
122.00,122.05,1
186.00,121.08,1
214.00,122.22,1
81.00,124.79,1
40.00,126.05,1
54.00,124.62,1
177.00,122.08,1
300.00,121.99,1
127.00,125.37,1
97.00,129.20,1
175.00,131.93,1
87.00,134.05,1
136.00,135.23,1
90.00,135.37,1
140.00,134.77,1
106.00,133.78,1
65.00,132.05,1
56.00,128.77,1
205.00,125.17,1
68.00,122.70,1
70.00,120.17,1
34.00,116.24,1
117.00,111.53,1
45.00,106.85,1
46.00,101.84,1
43.00,96.14,1
98.00,90.52,1
86.00,85.95,1
77.00,82.51,1
173.00,80.58,1
60.00,80.44,1
156.00,81.41,1
102.00,83.36,1
72.00,85.66,1
48.00,87.00,1
119.00,87.51,1
105.00,88.23,1
155.00,89.87,1
57.00,92.05,1
80.00,93.55,1
128.00,94.44,1
66.00,95.32,1
103.00,95.84,1
90.00,96.05,1
118.00,96.36,1
85.00,96.80,1
87.00,97.04,1
110.00,97.06,1
155.00,97.68,1
182.00,99.92,1
95.00,103.40,1
174.00,107.15,1
58.00,110.60,1
142.00,113.13,1
101.00,114.97,1
107.00,116.29,1
198.00,117.70,1
428.00,122.58,1
47.00,131.39,1
105.00,138.92,1
127.00,143.22,1
139.00,145.87,1
239.00,148.39,1
148.00,151.73,1
85.00,154.38,1
375.00,157.01,1
69.00,161.33,1
81.00,164.18,1
121.00,163.83,1
72.00,161.40,1
110.00,157.31,1
120.00,152.40,1
768.00,152.94,1
220.00,163.78,1
320.00,179.23,1
51.00,192.57,1
64.00,200.34,1
55.00,201.55,1
67.00,197.82,1
174.00,191.41,1
186.00,185.18,1
128.00,179.89,1
455.00,177.36,1
382.00,181.28,1
124.00,189.35,1
74.00,195.05,1
132.00,196.22,1
268.00,195.62,1
67.00,194.77,1
455.00,194.79,1
69.00,197.02,1
74.00,197.71,1
337.00,196.26,1
328.00,197.57,1
743.00,206.40,1
670.00,227.03,1
114.00,253.39,1
212.00,274.21,1
122.00,286.33,1
78.00,290.48,1
168.00,287.64,1
46.00,279.70,1
311.00,269.12,1
56.00,258.16,1
74.00,245.34,1
163.00,230.49,1
126.00,215.93,1
305.00,203.69,1
367.00,196.79,1
299.00,196.14,1
312.00,199.79,1
296.00,206.07,1
179.00,212.98,1
64.00,217.11,1
68.00,216.14,1
95.00,210.70,1
1023.00,210.28,1
59.00,221.17,1
199.00,233.21,1
266.00,240.61,1
92.00,245.06,1
208.00,245.75,1
122.00,243.36,1
136.00,238.30,1
360.00,232.81,1
55.00,228.48,1
64.00,222.03,1
118.00,212.26,1
171.00,201.69,1
37.00,191.09,1
114.00,179.67,1
56.00,167.70,1
341.00,157.76,1
121.00,152.10,1
201.00,149.24,1
340.00,149.33,1
383.00,154.94,1
444.00,166.93,1
79.00,181.76,1
106.00,192.88,1
46.00,197.73,1
383.00,199.66,1
56.00,201.69,1
333.00,203.42,1
578.00,208.76,1
67.00,218.84,1
277.00,227.43,1
435.00,235.17,1
55.00,243.23,1
64.00,246.32,1
98.00,242.86,1
554.00,238.91,1
334.00,240.79,1
367.00,247.42,1
273.00,255.40,1
224.00,262.41,1
372.00,268.10,1
319.00,274.22,1
146.00,279.35,1
112.00,279.98,1
296.00,276.66,1
505.00,274.99,1
287.00,277.81,1
43.00,280.04,1
115.00,276.54,1
193.00,268.57,1
194.00,259.36,1
270.00,250.81,1
223.00,243.94,1
74.00,237.18,1
150.00,228.46,1
198.00,219.00,1
226.00,210.94,1
197.00,204.86,1
322.00,201.25,1
268.00,201.00,1
144.00,202.47,1
127.00,202.53,1
78.00,199.80,1
274.00,195.70,1
254.00,193.39,1
56.00,192.17,1
523.00,192.25,1
144.00,196.25,1
283.00,201.86,1
255.00,207.42,1
210.00,213.09,1
120.00,216.92,1
258.00,218.51,1
50.00,218.14,1
188.00,215.16,1
364.00,212.31,1
497.00,214.79,1
291.00,223.26,1
365.00,234.28,1
162.00,244.68,1
578.00,254.99,1
222.00,267.11,1
188.00,277.50,1
126.00,282.13,1
90.00,280.67,1
240.00,274.84,1
822.00,272.83,1
72.00,278.44,1
407.00,284.86,1
142.00,288.81,1
417.00,291.42,1
163.00,293.17,1
167.00,292.32,1
371.00,289.16,1
1023.00,293.19,1
782.00,313.03,1
276.00,341.62,1
144.00,364.25,1
324.00,376.70,1
310.00,382.70,1
150.00,383.65,1
111.00,377.69,1
409.00,367.03,1
462.00,358.29,1
45.00,351.19,1
107.00,339.58,1
306.00,324.17,1
136.00,308.80,1
544.00,296.20,1
66.00,287.50,1
163.00,278.32,1
270.00,267.57,1
931.00,264.02,1
135.00,271.42,1
592.00,282.89,1
72.00,293.76,1
262.00,300.55,1
690.00,306.40,1
391.00,317.62,1
180.00,329.29,1
376.00,336.60,1
64.00,339.20,1
431.00,337.68,1
400.00,336.33,1
322.00,337.04,1
1023.00,343.50,1
199.00,358.30,1
143.00,370.63,1
440.00,375.35,1
129.00,376.02,1
84.00,370.52,1
194.00,358.04,1
109.00,341.50,1
315.00,323.64,1
454.00,309.24,1
95.00,298.97,1
390.00,289.84,1
452.00,284.28,1
197.00,282.96,1
580.00,284.38,1
315.00,289.88,1
110.00,295.40,1
675.00,299.83,1
82.00,306.04,1
561.00,312.22,1
445.00,320.24,1
51.00,328.16,1
127.00,328.85,1
449.00,324.74,1
214.00,321.13,1
1023.00,323.57,1
74.00,333.97,1
732.00,346.58,1
287.00,359.80,1
707.00,374.63,1
545.00,392.10,1
66.00,407.82,1
512.00,415.99,1
417.00,420.90,1
235.00,423.78,1
425.00,422.75,1
480.00,420.93,1
114.00,418.01,1
99.00,408.55,1
333.00,393.18,1
718.00,380.77,1
203.00,375.10,1
352.00,370.60,1
244.00,364.41,1
76.00,355.18,1
123.00,340.74,1
117.00,322.10,1
68.00,300.80,1
201.00,278.38,1
86.00,256.74,1
807.00,241.58,1
74.00,236.81,1
59.00,233.73,1
278.00,227.54,1
339.00,223.22,1
75.00,221.09,1
116.00,217.15,1
202.00,211.14,1
114.00,204.84,1
226.00,198.70,1
344.00,194.99,1
328.00,196.05,1
144.00,199.81,1
146.00,202.35,1
252.00,203.27,1
225.00,204.49,1
244.00,206.48,1
233.00,208.99,1
108.00,210.75,1
250.00,210.88,1
118.00,210.01,1
163.00,207.76,1
486.00,206.88,1
352.00,211.79,1
57.00,218.86,1
271.00,223.07,1
181.00,225.33,1
131.00,225.90,1
77.00,223.14,1
253.00,218.07,1
60.00,212.33,1
127.00,205.05,1
282.00,197.67,1
536.00,195.70,1
62.00,199.46,1
112.00,202.10,1
54.00,200.23,1
355.00,196.94,1
83.00,194.94,1
220.00,193.09,1
271.00,191.86,1
156.00,192.17,1
57.00,191.33,1
193.00,188.16,1
354.00,186.12,1
121.00,186.91,1
581.00,191.10,1
50.00,199.01,1
134.00,205.17,1
54.00,206.14,1
139.00,203.18,1
302.00,199.43,1
139.00,197.29,1
121.00,194.93,1
60.00,190.30,1
64.00,182.98,1
121.00,173.91,1
46.00,164.14,1
60.00,153.53,1
145.00,142.96,1
70.00,133.67,1
192.00,126.13,1
243.00,122.02,1
150.00,121.74,1
48.00,122.39,1
81.00,121.53,1
126.00,119.62,1
142.00,118.14,1
196.00,118.14,1
59.00,119.15,1
73.00,119.17,1
70.00,117.50,1
88.00,114.82,1
60.00,111.50,1
242.00,109.03,1
62.00,108.56,1
56.00,108.11,1
272.00,107.88,1
80.00,109.78,1
191.00,112.76,1
84.00,115.81,1
233.00,119.20,1
115.00,123.34,1
35.00,126.52,1
129.00,127.34,1
193.00,127.78,1
178.00,129.63,1
151.00,132.54,1
44.00,134.69,1
58.00,134.30,1
97.00,131.69,1
297.00,129.88,1
60.00,130.45,1
281.00,132.33,1
175.00,135.97,1
193.00,141.08,1
58.00,145.42,1
202.00,148.14,1
121.00,150.12,1
214.00,152.11,1
317.00,155.76,1
445.00,164.11,1
44.00,175.42,1
110.00,183.51,1
38.00,185.99,1
161.00,184.55,1
77.00,180.95,1
51.00,175.22,1
210.00,168.27,1
60.00,161.81,1
88.00,154.98,1
63.00,147.13,1
280.00,140.38,1
46.00,136.17,1
73.00,132.15,1
44.00,126.64,1
161.00,120.92,1
101.00,116.44,1
246.00,114.23,1
186.00,115.26,1
68.00,117.92,1
310.00,121.26,1
127.00,126.57,1
249.00,133.17,1
167.00,140.32,1
156.00,147.25,1
76.00,152.22,1
115.00,154.44,1
167.00,154.90,1
207.00,155.55,1
134.00,156.82,1
98.00,157.32,1
125.00,156.25,1
55.00,153.57,1
62.00,148.89,1
158.00,143.19,1
53.00,137.68,1
205.00,132.81,1
217.00,130.35,1
93.00,130.28,1
214.00,131.01,1
104.00,132.41,1
379.00,135.75,1
90.00,141.67,1
147.00,147.33,1
236.00,151.87,1
176.00,156.88,1
144.00,161.56,1
119.00,164.56,1
133.00,165.66,1
108.00,165.08,1
299.00,164.54,1
117.00,165.49,1
104.00,166.01,1
60.00,164.03,1
199.00,160.58,1
246.00,158.48,1
44.00,157.74,1
392.00,157.98,1
90.00,160.54,1
65.00,162.43,1
83.00,160.98,1
64.00,156.98,1
53.00,150.90,1
127.00,143.72,1
104.00,136.90,1
235.00,131.91,1
113.00,129.43,1
201.00,128.74,1
104.00,129.08,1
196.00,130.08,1
68.00,131.20,1
328.00,133.19,1
104.00,137.16,1
183.00,141.60,1
153.00,145.44,1
126.00,148.63,1
113.00,150.41,1
52.00,150.11,1
209.00,148.42,1
87.00,146.84,1
57.00,144.40,1
44.00,139.78,1
136.00,133.95,1
102.00,128.55,1
118.00,123.98,1
61.00,119.70,1
273.00,116.74,1
60.00,116.15,1
61.00,115.62,1
96.00,113.68,1
87.00,111.26,1
94.00,108.75,1
69.00,106.09,1
178.00,103.94,1
42.00,102.75,1
173.00,102.05,1
186.00,102.90,1
41.00,104.98,1
149.00,106.54,1
98.00,107.81,1
49.00,108.47,1
168.00,108.38,1
127.00,108.97,1
39.00,109.62,1
56.00,108.63,1
131.00,106.62,1
98.00,105.00,1
84.00,103.69,1
94.00,102.25,1
79.00,100.66,1
78.00,98.86,1
74.00,96.77,1
38.00,94.14,1
53.00,90.71,1
61.00,86.79,1
56.00,82.84,1
75.00,79.15,1
80.00,76.09,1
108.00,74.10,1
150.00,73.83,1
137.00,75.71,1
518.00,82.53,1
81.00,95.42,1
94.00,108.45,1
178.00,118.45,1
160.00,127.17,1
70.00,134.28,1
117.00,138.66,1
59.00,140.39,1
61.00,139.50,1
159.00,136.98,1
198.00,135.31,1
80.00,134.82,1
69.00,133.52,1
56.00,130.37,1
38.00,125.46,1
90.00,119.40,1
44.00,113.00,1
83.00,106.56,1
51.00,100.29,1
288.00,96.11,1
43.00,95.33,1
78.00,95.33,1
52.00,94.24,1
70.00,92.38,1
87.00,90.20,1
108.00,88.48,1
54.00,87.20,1
58.00,85.59,1
51.00,83.37,1
52.00,80.67,1
44.00,77.58,1
75.00,74.44,1
76.00,71.83,1
400.00,72.71,1
146.00,79.48,1
103.00,88.61,1
191.00,97.11,1
79.00,105.03,1
83.00,111.13,1
70.00,114.69,1
57.00,115.90,1
69.00,115.08,1
174.00,113.70,1
108.00,113.23,1
41.00,112.69,1
58.00,110.57,1
76.00,107.22,1
143.00,104.05,1
52.00,101.62,1
40.00,98.78,1
51.00,94.83,1
51.00,90.29,1
72.00,85.70,1
105.00,81.87,1
156.00,79.88,1
414.00,82.63,1
94.00,91.01,1
249.00,101.42,1
108.00,111.79,1
38.00,120.11,1
156.00,125.25,1
74.00,128.51,1
112.00,130.16,1
89.00,130.30,1
38.00,128.80,1
235.00,126.70,1
261.00,127.26,1
264.00,131.92,1
43.00,138.02,1
59.00,141.46,1
65.00,141.22,1
148.00,139.13,1
41.00,136.25,1
127.00,132.47,1
37.00,127.96,1
44.00,122.31,1
260.00,117.16,1
42.00,114.39,1
76.00,111.98,1
105.00,108.89,1
55.00,105.77,1
107.00,102.55,1
123.00,99.96,1
113.00,98.55,1
158.00,98.42,1
175.00,100.08,1
116.00,103.19,1
139.00,106.66,1
58.00,109.50,1
107.00,111.03,1
95.00,111.56,1
96.00,111.51,1
100.00,110.99,1
93.00,110.13,1
46.00,108.58,1
218.00,107.14,1
90.00,107.25,1
49.00,107.47,1
121.00,106.64,1
53.00,105.33,1
52.00,103.14,1
81.00,100.01,1
55.00,96.54,1
57.00,92.75,1
123.00,89.21,1
173.00,87.51,1
45.00,87.61,1
83.00,87.66,1
39.00,86.85,1
96.00,85.47,1
170.00,84.92,1
38.00,85.61,1
113.00,86.28,1
131.00,87.20,1
45.00,88.50,1
159.00,89.70,1
64.00,91.17,1
161.00,92.99,1
64.00,95.02,1
52.00,96.24,1
81.00,96.04,1
36.00,94.75,1
42.00,92.24,1
58.00,88.75,1
42.00,84.79,1
72.00,80.74,1
58.00,77.01,1
103.00,74.03,1
92.00,72.28,1
55.00,71.39,1
56.00,70.49,1
74.00,69.47,1
70.00,68.66,1
170.00,68.95,1
38.00,70.59,1
58.00,72.01,1
38.00,72.29,1
149.00,72.46,1
129.00,74.04,1
95.00,76.96,1
91.00,80.03,1
62.00,82.51,1
174.00,84.88,1
56.00,87.74,1
64.00,89.89,1
98.00,90.88,1
164.00,92.13,1
72.00,94.18,1
154.00,96.44,1
87.00,98.83,1
46.00,100.47,1
52.00,100.28,1
80.00,98.70,1
86.00,96.69,1
46.00,94.42,1
88.00,91.76,1
40.00,88.87,1
153.00,86.38,1
103.00,85.37,1
94.00,85.53,1
57.00,85.69,1
179.00,86.18,1
86.00,87.85,1
140.00,90.27,1
124.00,93.18,1
71.00,96.12,1
75.00,97.98,1
95.00,98.77,1
54.00,98.74,1
63.00,97.65,1
99.00,95.89,1
113.00,94.48,1
56.00,93.44,1
49.00,91.81,1
56.00,89.26,1
36.00,85.98,1
89.00,82.44,1
79.00,79.44,1
62.00,77.09,1
94.00,75.22,1
89.00,74.12,1
76.00,73.71,1
77.00,73.60,1
112.00,73.91,1
82.00,74.88,1
193.00,77.02,1
43.00,80.36,1
93.00,83.30,1
143.00,85.87,1
173.00,89.56,1
84.00,94.15,1
47.00,97.73,1
60.00,99.17,1
114.00,99.31,1
110.00,99.42,1
88.00,99.70,1
114.00,99.93,1
128.00,100.47,1
44.00,100.98,1
46.00,100.19,1
56.00,97.87,1
56.00,94.62,1
68.00,90.96,1
67.00,87.32,1
207.00,85.06,1
58.00,85.01,1
39.00,85.15,1
119.00,84.53,1
46.00,83.94,1
211.00,84.21,1
204.00,87.22,1
91.00,92.51,1
82.00,97.34,1
153.00,101.16,1
53.00,104.36,1
93.00,106.25,1
112.00,107.08,1
40.00,107.12,1
133.00,106.29,1
72.00,105.27,1
40.00,103.62,1
105.00,101.06,1
107.00,98.72,1
182.00,97.83,1
61.00,98.32,1
78.00,98.60,1
55.00,97.79,1
137.00,96.62,1
60.00,95.76,1
88.00,94.79,1
43.00,93.22,1
186.00,91.93,1
37.00,91.64,1
125.00,91.58,1
125.00,91.91,1
183.00,93.75,1
108.00,97.02,1
117.00,100.57,1
41.00,103.10,1
106.00,104.13,1
54.00,103.98,1
116.00,103.16,1
297.00,103.95,1
41.00,107.35,1
74.00,110.13,1
45.00,110.53,1
198.00,110.16,1
157.00,111.18,1
134.00,113.63,1
100.00,116.08,1
68.00,117.43,1
127.00,117.57,1
120.00,117.43,1
226.00,118.36,1
80.00,120.55,1
62.00,121.93,1
120.00,121.61,1
316.00,122.47,1
134.00,126.45,1
218.00,131.93,1
182.00,137.94,1
70.00,143.35,1
67.00,145.92,1
115.00,145.68,1
37.00,143.40,1
74.00,139.10,1
77.00,133.42,1
201.00,128.23,1
63.00,124.53,1
89.00,121.04,1
48.00,116.77,1
126.00,112.22,1
340.00,110.35,1
97.00,112.78,1
108.00,116.22,1
80.00,118.24,1
124.00,119.09,1
50.00,118.92,1
160.00,118.02,1
60.00,116.99,1
111.00,115.56,1
330.00,115.72,1
101.00,119.23,1
69.00,122.93,1
81.00,124.31,1
76.00,123.78,1
203.00,122.88,1
67.00,122.68,1
206.00,122.95,1
114.00,124.02,1
148.00,125.54,1
243.00,127.96,1
150.00,132.06,1
61.00,135.80,1
77.00,137.02,1
108.00,136.07,1
89.00,134.00,1
178.00,131.82,1
88.00,130.22,1
113.00,128.56,1
110.00,126.54,1
158.00,124.89,1
153.00,124.29,1
51.00,123.99,1
106.00,122.63,1
55.00,120.16,1
101.00,116.94,1
82.00,113.42,1
94.00,109.96,1
55.00,106.38,1
41.00,102.15,1
117.00,97.66,1
220.00,95.12,1
41.00,95.02,1
572.00,99.03,1
92.00,109.44,1
75.00,120.64,1
108.00,128.03,1
207.00,133.53,1
66.00,138.16,1
54.00,140.33,1
39.00,139.09,1
56.00,135.10,1
50.00,129.24,1
90.00,122.54,1
98.00,116.12,1
117.00,110.73,1
105.00,106.59,1
66.00,103.17,1
170.00,100.53,1
84.00,99.25,1
87.00,98.52,1
94.00,97.60,1
259.00,98.10,1
61.00,100.79,1
42.00,103.00,1
84.00,103.15,1
57.00,102.05,1
91.00,100.23,1
44.00,97.87,1
163.00,95.66,1
107.00,94.77,1
62.00,94.60,1
54.00,93.69,1
117.00,92.27,1
82.00,91.21,1
74.00,90.32,1
114.00,89.50,1
98.00,89.23,1
112.00,89.56,1
83.00,90.21,1
173.00,91.44,1
118.00,93.88,1
226.00,97.89,1
156.00,103.69,1
98.00,109.94,1
127.00,115.01,1
35.00,118.25,1
50.00,118.85,1
65.00,117.02,1
164.00,114.60,1
44.00,112.58,1
44.00,109.77,1
46.00,105.47,1
38.00,100.14,1
43.00,94.13,1
57.00,87.94,1
67.00,82.19,1
50.00,77.09,1
75.00,72.67,1
72.00,69.15,1
73.00,66.62,1
156.00,65.58,1
74.00,66.43,1
42.00,67.74,1
48.00,68.21,1
111.00,68.36,1
51.00,68.88,1
174.00,70.19,1
46.00,72.55,1
58.00,74.61,1
56.00,75.51,1
118.00,76.08,1
122.00,77.42,1
74.00,79.49,1
74.00,81.28,1
83.00,82.47,1
46.00,83.01,1
39.00,82.45,1
70.00,80.90,1
58.00,79.00,1
96.00,77.27,1
194.00,77.07,1
116.00,79.34,1
84.00,82.64,1
59.00,85.26,1
302.00,88.60,1
120.00,94.71,1
68.00,101.28,1
120.00,106.02,1
59.00,109.16,1
44.00,110.25,1
114.00,109.59,1
121.00,108.71,1
83.00,108.08,1
234.00,108.33,1
58.00,109.98,1
58.00,110.97,1
252.00,111.57,1
75.00,113.61,1
56.00,115.18,1
72.00,114.68,1
41.00,112.48,1
158.00,109.67,1
55.00,107.31,1
47.00,104.57,1
258.00,102.40,1
59.00,102.54,1
60.00,102.85,1
51.00,101.60,1
56.00,99.07,1
45.00,95.59,1
86.00,91.70,1
52.00,87.94,1
246.00,85.78,1
186.00,87.30,1
97.00,91.47,1
55.00,95.22,1
71.00,97.21,1
74.00,97.76,1
56.00,97.21,1
85.00,95.81,1
156.00,94.73,1
127.00,95.12,1
99.00,96.49,1
42.00,97.38,1
46.00,96.72,1
74.00,94.73,1
49.00,92.09,1
44.00,88.82,1
82.00,85.21,1
51.00,81.79,1
49.00,78.41,1
202.00,76.15,1
91.00,76.46,1
35.00,77.63,1
73.00,77.89,1
52.00,77.43,1
38.00,76.30,1
38.00,74.28,1
46.00,71.61,1
119.00,69.26,1
40.00,67.88,1
55.00,66.68,1
53.00,65.25,1
109.00,64.23,1
54.00,64.03,1
40.00,63.89,1
137.00,63.90,1
65.00,64.95,1
43.00,66.16,1
81.00,66.81,1
57.00,67.26,1
76.00,67.62,1
44.00,67.75,1
71.00,67.55,1
50.00,67.11,1
75.00,66.59,1
81.00,66.32,1
64.00,66.41,1
198.00,67.66,1
169.00,71.58,1
74.00,77.26,1
140.00,82.80,1
37.00,87.50,1
50.00,90.37,1
113.00,91.62,1
83.00,92.51,1
56.00,92.89,1
145.00,92.92,1
44.00,93.10,1
64.00,92.61,1
54.00,91.03,1
178.00,89.71,1
50.00,89.55,1
74.00,89.38,1
81.00,88.59,1
88.00,87.74,1
40.00,86.65,1
39.00,84.65,1
116.00,82.27,1
120.00,80.97,1
109.00,81.16,1
49.00,81.83,1
82.00,82.02,1
77.00,81.85,1
91.00,81.71,1
36.00,81.34,1
64.00,80.24,1
52.00,78.54,1
43.00,76.38,1
76.00,73.99,1
90.00,72.08,1
159.00,71.67,1
44.00,72.73,1
54.00,73.62,1
44.00,73.47,1
96.00,72.90,1
71.00,72.60,1
165.00,73.31,1
76.00,75.37,1
114.00,78.02,1
77.00,80.61,1
39.00,82.44,1
42.00,82.73,1
145.00,82.42,1
39.00,82.52,1
54.00,82.15,1
38.00,80.69,1
48.00,78.39,1
211.00,76.90,1
78.00,77.78,1
82.00,79.59,1
68.00,80.89,1
39.00,81.32,1
137.00,81.29,1
276.00,83.46,1
39.00,88.35,1
70.00,92.66,1
61.00,94.85,1
47.00,95.33,1
62.00,94.34,1
45.00,92.24,1
37.00,89.14,1
61.00,85.33,1
38.00,81.24,1
124.00,77.61,1
144.00,75.84,1
99.00,76.22,1
119.00,77.81,1
78.00,79.88,1
130.00,82.15,1
180.00,85.46,1
109.00,90.11,1
54.00,94.41,1
70.00,96.91,1
118.00,98.18,1
48.00,98.82,1
175.00,99.26,1
40.00,99.93,1
50.00,99.65,1
76.00,97.93,1
68.00,95.61,1
72.00,93.03,1
101.00,90.57,1
233.00,89.91,1
55.00,91.59,1
273.00,94.94,1
37.00,99.64,1
139.00,103.93,1
50.00,106.76,1
41.00,107.70,1
86.00,106.63,1
70.00,104.64,1
64.00,102.06,1
55.00,98.82,1
90.00,95.26,1
118.00,92.32,1
50.00,90.14,1
91.00,88.05,1
103.00,86.33,1
113.00,85.55,1
72.00,85.43,1
108.00,85.54,1
132.00,86.26,1
55.00,87.49,1
56.00,87.99,1
101.00,87.67,1
60.00,87.16,1
82.00,86.39,1
94.00,85.58,1
39.00,84.69,1
171.00,84.05,1
112.00,84.88,1
50.00,86.38,1
46.00,86.80,1
164.00,86.78,1
150.00,88.24,1
58.00,90.74,1
127.00,92.89,1
241.00,96.03,1
104.00,101.14,1
62.00,105.91,1
81.00,108.56,1
69.00,109.41,1
207.00,109.96,1
75.00,111.36,1
140.00,112.86,1
93.00,113.96,1
177.00,115.20,1
371.00,119.10,1
106.00,126.62,1
171.00,134.40,1
138.00,140.71,1
161.00,145.87,1
114.00,149.71,1
62.00,151.39,1
138.00,150.79,1
121.00,149.12,1
208.00,147.78,1
48.00,146.72,1
287.00,145.94,1
85.00,146.37,1
54.00,146.08,1
103.00,143.44,1
110.00,139.75,1
66.00,135.54,1
47.00,130.25,1
231.00,125.14,1
161.00,122.67,1
48.00,121.72,1
158.00,120.39,1
39.00,118.74,1
162.00,116.84,1
79.00,115.19,1
42.00,113.12,1
71.00,109.73,1
145.00,106.25,1
142.00,104.25,1
76.00,103.46,1
62.00,102.39,1
123.00,100.85,1
59.00,99.39,1
84.00,97.67,1
60.00,95.51,1
90.00,93.14,1
385.00,93.42,1
159.00,98.99,1
60.00,106.28,1
156.00,111.91,1
109.00,116.46,1
166.00,120.53,1
190.00,124.85,1
138.00,129.67,1
65.00,133.43,1
62.00,134.60,1
48.00,132.98,1
244.00,130.68,1
52.00,129.47,1
98.00,127.96,1
49.00,125.04,1
57.00,120.75,1
44.00,115.21,1
92.00,109.15,1
206.00,104.53,1
132.00,102.84,1
98.00,102.87,1
109.00,103.11,1
63.00,103.01,1
43.00,101.82,1
106.00,99.65,1
51.00,97.23,1
162.00,95.24,1
74.00,94.29,1
77.00,93.66,1
61.00,92.47,1
64.00,90.67,1
103.00,88.72,1
81.00,87.21,1
216.00,87.16,1
94.00,89.28,1
182.00,92.78,1
116.00,97.13,1
65.00,101.18,1
237.00,104.91,1
141.00,109.90,1
108.00,115.25,1
77.00,119.10,1
44.00,120.60,1
58.00,119.57,1
73.00,116.76,1
93.00,113.22,1
72.00,109.52,1
74.00,105.66,1
127.00,102.09,1
76.00,99.35,1
42.00,96.62,1
64.00,93.20,1
44.00,89.29,1
62.00,85.13,1
73.00,81.14,1
85.00,77.85,1
147.00,76.01,1
82.00,75.90,1
81.00,76.55,1
102.00,77.38,1
106.00,78.68,1
120.00,80.65,1
115.00,83.29,1
66.00,85.99,1
97.00,88.03,1
50.00,89.24,1
43.00,89.16,1
38.00,87.59,1
149.00,85.71,1
89.00,84.98,1
69.00,84.90,1
52.00,84.33,1
129.00,83.60,1
113.00,83.78,1
38.00,84.41,1
40.00,83.97,1
60.00,82.32,1
86.00,80.38,1
130.00,79.25,1
100.00,79.47,1
59.00,80.22,1
143.00,81.13,1
163.00,83.35,1
98.00,86.97,1
40.00,90.15,1
38.00,91.36,1
71.00,90.81,1
81.00,89.53,1
64.00,88.06,1
40.00,86.08,1
54.00,83.37,1
41.00,80.10,1
87.00,76.82,1
56.00,74.02,1
102.00,71.95,1
59.00,70.62,1
168.00,70.49,1
48.00,71.72,1
59.00,72.95,1
64.00,73.37,1
68.00,73.37,1
74.00,73.21,1
72.00,73.05,1
244.00,74.35,1
95.00,78.30,1
200.00,83.97,1
58.00,90.08,1
100.00,95.18,1
88.00,98.77,1
62.00,101.03,1
68.00,101.71,1
67.00,101.05,1
93.00,99.65,1
58.00,97.86,1
163.00,96.34,1
126.00,96.21,1
82.00,97.04,1
87.00,97.57,1
60.00,97.37,1
37.00,96.00,1
229.00,94.79,1
61.00,95.32,1
74.00,96.08,1
62.00,95.71,1
43.00,94.25,1
125.00,92.28,1
90.00,90.91,1
53.00,89.81,1
124.00,88.65,1
106.00,88.21,1
126.00,88.78,1
128.00,90.30,1
182.00,93.15,1
94.00,97.09,1
156.00,101.21,1
178.00,105.82,1
40.00,110.40,1
199.00,114.01,1
127.00,117.65,1
120.00,121.27,1
58.00,123.53,1
36.00,123.40,1
215.00,122.06,1
251.00,122.97,1
45.00,125.89,1
146.00,127.98,1
39.00,128.42,1
36.00,126.65,1
66.00,122.56,1
208.00,118.50,1
138.00,116.64,1
121.00,116.36,1
37.00,115.75,1
153.00,114.34,1
54.00,112.76,1
104.00,110.85,1
65.00,108.43,1
54.00,105.39,1
89.00,101.76,1
44.00,97.90,1
73.00,93.80,1
60.00,89.65,1
87.00,85.84,1
122.00,83.05,1
155.00,82.22,1
106.00,83.33,1
94.00,85.23,1
48.00,86.69,1
216.00,88.29,1
93.00,91.33,1
82.00,94.61,1
40.00,96.43,1
37.00,96.25,1
39.00,94.22,1
52.00,90.95,1
90.00,87.37,1
51.00,84.11,1
37.00,80.73,1
55.00,76.98,1
86.00,73.50,1
150.00,71.56,1
92.00,71.68,1
53.00,72.61,1
126.00,73.59,1
79.00,75.08,1
55.00,76.53,1
146.00,77.87,1
45.00,79.56,1
109.00,81.07,1
54.00,82.15,1
142.00,83.22,1
70.00,84.66,1
51.00,85.71,1
138.00,86.24,1
93.00,87.26,1
149.00,89.07,1
130.00,91.82,1
62.00,94.76,1
66.00,96.51,1
69.00,96.81,1
94.00,96.29,1
54.00,95.28,1
44.00,93.39,1
91.00,90.79,1
49.00,88.09,1
87.00,85.40,1
46.00,82.76,1
58.00,79.97,1
47.00,76.94,1
127.00,74.39,1
86.00,73.21,1
50.00,72.77,1
121.00,72.57,1
41.00,72.78,1
39.00,72.54,1
94.00,71.71,1
44.00,70.95,1
82.00,70.20,1
68.00,69.60,1
52.00,69.07,1
320.00,70.46,1
147.00,76.12,1
39.00,83.31,1
92.00,88.64,1
121.00,92.60,1
111.00,96.23,1
39.00,98.96,1
91.00,100.07,1
81.00,100.11,1
79.00,99.57,1
85.00,98.54,1
37.00,96.86,1
94.00,94.47,1
86.00,92.09,1
54.00,89.88,1
61.00,87.34,1
126.00,85.01,1
53.00,83.46,1
66.00,81.98,1
38.00,79.98,1
93.00,77.75,1
127.00,76.39,1
132.00,76.81,1
83.00,78.53,1
46.00,80.07,1
105.00,80.91,1
66.00,81.53,1
52.00,81.70,1
44.00,80.88,1
168.00,80.13,1
145.00,81.26,1
53.00,83.67,1
83.00,85.49,1
49.00,86.26,1
151.00,86.74,1
77.00,87.77,1
56.00,88.64,1
130.00,89.00,1
42.00,89.29,1
126.00,89.37,1
83.00,89.60,1
122.00,90.23,1
140.00,91.60,1
108.00,93.82,1
74.00,95.96,1
129.00,97.60,1
47.00,98.75,1
65.00,98.73,1
50.00,97.33,1
75.00,95.03,1
90.00,92.54,1
71.00,90.28,1
38.00,87.80,1
195.00,85.84,1
47.00,85.45,1
210.00,86.46,1
123.00,89.24,1
175.00,93.63,1
70.00,98.36,1
160.00,102.63,1
88.00,106.43,1
57.00,109.05,1
87.00,109.83,1
67.00,109.24,1
119.00,107.99,1
133.00,107.09,1
226.00,107.92,1
414.00,113.33,1
237.00,124.36,1
466.00,139.81,1
186.00,158.22,1
85.00,174.62,1
222.00,186.08,1
157.00,194.29,1
118.00,199.50,1
341.00,202.93,1
69.00,206.00,1
83.00,206.17,1
51.00,201.83,1
165.00,194.70,1
170.00,187.41,1
40.00,180.17,1
47.00,171.12,1
154.00,160.95,1
201.00,152.50,1
77.00,146.28,1
230.00,141.56,1
127.00,138.79,1
118.00,137.08,1
145.00,135.44,1
264.00,135.29,1
60.00,136.80,1
84.00,137.28,1
61.00,135.50,1
48.00,131.71,1
51.00,126.17,1
62.00,119.54,1
45.00,112.34,1
166.00,105.78,1
123.00,101.45,1
87.00,98.95,1
182.00,97.75,1
47.00,97.72,1
123.00,97.77,1
124.00,98.02,1
80.00,98.70,1
75.00,98.92,1
112.00,98.63,1
97.00,98.43,1
42.00,97.89,1
127.00,96.79,1
207.00,96.91,1
111.00,99.22,1
96.00,102.05,1
188.00,104.88,1
38.00,107.79,1
132.00,109.70,1
321.00,112.69,1
38.00,117.99,1
115.00,122.34,1
161.00,125.15,1
204.00,128.45,1
360.00,134.41,1
36.00,142.44,1
43.00,147.74,1
120.00,148.88,1
56.00,147.61,1
156.00,144.98,1
197.00,142.86,1
197.00,142.70,1
120.00,143.74,1
186.00,144.94,1
127.00,146.17,1
314.00,148.50,1
145.00,152.82,1
106.00,156.92,1
124.00,158.82,1
177.00,159.39,1
332.00,161.25,1
220.00,166.11,1
144.00,171.88,1
164.00,176.14,1
43.00,177.80,1
80.00,175.89,1
63.00,170.79,1
75.00,163.59,1
69.00,155.02,1
61.00,145.63,1
122.00,136.27,1
102.00,128.01,1
51.00,120.61,1
83.00,113.37,1
163.00,107.25,1
41.00,102.80,1
99.00,98.85,1
128.00,95.62,1
197.00,94.60,1
87.00,95.73,1
97.00,97.30,1
71.00,98.18,1
104.00,98.44,1
154.00,98.96,1
64.00,100.01,1
87.00,100.55,1
171.00,101.02,1
66.00,102.13,1
82.00,102.77,1
123.00,102.78,1
105.00,102.97,1
174.00,103.91,1
76.00,105.56,1
114.00,106.96,1
65.00,107.52,1
35.00,106.71,1
109.00,104.57,1
57.00,102.06,1
64.00,99.15,1
54.00,95.63,1
57.00,91.69,1
98.00,87.85,1
149.00,85.35,1
70.00,84.48,1
257.00,85.57,1
126.00,89.47,1
63.00,94.20,1
72.00,97.35,1
127.00,99.29,1
135.00,101.28,1
173.00,104.19,1
45.00,107.31,1
132.00,109.38,1
86.00,110.61,1
88.00,111.11,1
99.00,110.81,1
59.00,109.76,1
40.00,107.46,1
117.00,104.27,1
71.00,101.25,1
57.00,98.21,1
74.00,94.80,1
39.00,91.08,1
70.00,87.07,1
38.00,82.94,1
189.00,79.83,1
41.00,78.62,1
48.00,77.73,1
175.00,77.07,1
40.00,77.64,1
51.00,78.04,1
244.00,78.95,1
56.00,81.96,1
260.00,86.63,1
57.00,92.54,1
87.00,97.77,1
86.00,101.14,1
82.00,103.16,1
76.00,103.98,1
48.00,103.49,1
155.00,102.38,1
202.00,102.79,1
111.00,105.25,1
75.00,107.76,1
73.00,108.87,1
68.00,108.50,1
73.00,106.95,1
38.00,104.31,1
77.00,100.72,1
58.00,96.71,1
164.00,93.42,1
118.00,92.01,1
118.00,92.19,1
118.00,93.19,1
82.00,94.47,1
66.00,95.20,1
48.00,94.76,1
66.00,93.18,1
89.00,91.11,1
117.00,89.52,1
96.00,88.81,1
63.00,88.41,1
60.00,87.50,1
72.00,86.03,1
64.00,84.27,1
70.00,82.38,1
52.00,80.33,1
91.00,78.31,1
61.00,76.62,1
63.00,75.09,1
111.00,73.90,1
96.00,73.71,1
91.00,74.39,1
194.00,76.36,1
51.00,79.70,1
82.00,82.74,1
83.00,84.76,1
87.00,86.27,1
157.00,87.99,1
158.00,91.01,1
85.00,94.91,1
54.00,97.89,1
171.00,99.93,1
104.00,102.31,1
84.00,104.57,1
238.00,107.04,1
48.00,110.42,1
48.00,112.49,1
80.00,112.17,1
108.00,110.84,1
216.00,110.39,1
54.00,111.33,1
70.00,111.61,1
114.00,110.69,1
200.00,110.45,1
384.00,114.05,1
266.00,123.23,1
43.00,134.10,1
114.00,141.77,1
82.00,145.83,1
144.00,147.56,1
63.00,147.57,1
59.00,145.41,1
35.00,140.69,1
127.00,134.55,1
74.00,128.43,1
50.00,122.22,1
50.00,115.30,1
44.00,107.83,1
74.00,100.33,1
75.00,93.51,1
232.00,89.02,1
74.00,87.75,1
103.00,87.88,1
72.00,87.99,1
163.00,88.55,1
75.00,89.96,1
156.00,91.94,1
88.00,94.33,1
92.00,96.54,1
42.00,97.62,1
109.00,97.57,1
64.00,96.98,1
70.00,95.85,1
216.00,95.31,1
145.00,97.08,1
101.00,100.24,1
75.00,102.81,1
103.00,104.29,1
201.00,105.95,1
52.00,108.32,1
95.00,109.85,1
76.00,110.01,1
127.00,109.58,1
38.00,108.67,1
102.00,106.91,1
45.00,104.40,1
64.00,101.17,1
87.00,97.51,1
58.00,93.96,1
44.00,90.18,1
90.00,86.28,1
50.00,82.73,1
130.00,79.94,1
66.00,78.28,1
102.00,77.44,1
248.00,78.55,1
129.00,82.81,1
149.00,88.72,1
81.00,94.48,1
42.00,98.66,1
150.00,101.17,1
120.00,103.55,1
55.00,105.61,1
129.00,106.65,1
80.00,107.17,1
211.00,108.15,1
133.00,110.59,1
152.00,113.99,1
63.00,116.94,1
72.00,118.20,1
42.00,117.30,1
55.00,114.44,1
118.00,110.71,1
37.00,106.92,1
56.00,102.54,1
49.00,97.47,1
44.00,92.02,1
59.00,86.44,1
58.00,81.17,1
109.00,76.82,1
123.00,74.28,1
88.00,73.56,1
49.00,73.46,1
97.00,73.30,1
42.00,73.11,1
46.00,72.42,1
96.00,71.41,1
47.00,70.63,1
78.00,69.92,1
52.00,69.18,1
84.00,68.52,1
77.00,68.22,1
53.00,68.14,1
70.00,67.91,1
54.00,67.53,1
36.00,66.78,1
103.00,65.89,1
52.00,65.47,1
42.00,65.05,1
138.00,64.84,1
65.00,65.70,1
41.00,66.73,1
89.00,67.26,1
42.00,67.60,1
55.00,67.50,1
92.00,67.21,1
73.00,67.35,1
49.00,67.59,1
53.00,67.40,1
59.00,66.80,1
74.00,66.15,1
66.00,65.73,1
83.00,65.63,1
104.00,66.17,1
139.00,67.93,1
78.00,70.84,1
67.00,73.70,1
117.00,76.16,1
122.00,79.00,1
126.00,82.58,1
77.00,86.30,1
69.00,89.15,1
74.00,90.75,1
87.00,91.47,1
44.00,91.41,1
91.00,90.54,1
38.00,89.06,1
71.00,86.95,1
51.00,84.38,1
39.00,81.38,1
56.00,77.94,1
41.00,74.33,1
92.00,71.04,1
62.00,68.55,1
44.00,66.55,1
39.00,64.38,1
161.00,62.95,1
68.00,63.32,1
91.00,64.72,1
122.00,66.72,1
112.00,69.75,1
110.00,73.52,1
124.00,77.72,1
113.00,82.23,1
111.00,86.75,1
137.00,91.22,1
77.00,95.43,1
75.00,98.49,1
74.00,100.05,1
92.00,100.51,1
82.00,100.34,1
92.00,99.77,1
181.00,99.75,1
59.00,100.66,1
62.00,101.02,1
38.00,99.75,1
148.00,97.85,1
39.00,96.26,1
124.00,94.76,1
