40.00,40.26,0
41.00,40.26,0
41.00,40.27,0
40.00,40.30,0
40.00,40.32,0
44.00,40.36,0
40.00,40.44,0
41.00,40.53,0
40.00,40.60,0
40.00,40.64,0
40.00,40.65,0
36.00,40.60,0
41.00,40.48,0
40.00,40.36,0
41.00,40.28,0
40.00,40.22,0
41.00,40.18,0
43.00,40.19,0
41.00,40.26,0
40.00,40.34,0
42.00,40.42,0
40.00,40.50,0
44.00,40.59,0
39.00,40.70,0
42.00,40.79,0
40.00,40.86,0
40.00,40.90,0
39.00,40.89,0
41.00,40.85,0
40.00,40.80,0
40.00,40.74,0
39.00,40.66,0
41.00,40.57,0
40.00,40.49,0
40.00,40.43,0
40.00,40.36,0
41.00,40.31,0
40.00,40.27,0
39.00,40.24,0
40.00,40.19,0
40.00,40.13,0
41.00,40.10,0
39.00,40.08,0
40.00,40.05,0
40.00,40.02,0
41.00,40.00,0
40.00,40.00,0
39.00,40.01,0
40.00,39.99,0
42.00,39.99,0
40.00,40.02,0
40.00,40.06,0
43.00,40.12,0
42.00,40.22,0
42.00,40.36,0
42.00,40.53,0
40.00,40.69,0
41.00,40.81,0
40.00,40.89,0
39.00,40.92,0
40.00,40.90,0
40.00,40.84,0
41.00,40.78,0
40.00,40.72,0
38.00,40.65,0
39.00,40.53,0
40.00,40.39,0
40.00,40.26,0
40.00,40.16,0
40.00,40.07,0
40.00,40.00,0
43.00,39.98,0
40.00,40.01,0
40.00,40.05,0
45.00,40.13,0
43.00,40.29,0
42.00,40.51,0
40.00,40.72,0
41.00,40.88,0
40.00,40.99,0
41.00,41.05,0
40.00,41.08,0
42.00,41.10,0
39.00,41.10,0
40.00,41.06,0
37.00,40.96,0
40.00,40.81,0
43.00,40.66,0
41.00,40.59,0
41.00,40.56,0
42.00,40.57,0
40.00,40.59,0
41.00,40.62,0
40.00,40.63,0
40.00,40.63,0
44.00,40.64,0
39.00,40.69,0
44.00,40.75,0
40.00,40.83,0
41.00,40.90,0
40.00,40.95,0
41.00,40.96,0
39.00,40.95,0
39.00,40.90,0
40.00,40.80,0
41.00,40.70,0
43.00,40.64,0
41.00,40.65,0
40.00,40.67,0
41.00,40.68,0
40.00,40.68,0
41.00,40.68,0
39.00,40.66,0
41.00,40.62,0
38.00,40.57,0
41.00,40.49,0
40.00,40.41,0
41.00,40.36,0
44.00,40.36,0
39.00,40.41,0
40.00,40.45,0
41.00,40.47,0
40.00,40.48,0
40.00,40.49,0
40.00,40.47,0
40.00,40.45,0
40.00,40.41,0
40.00,40.37,0
41.00,40.34,0
40.00,40.32,0
41.00,40.31,0
40.00,40.31,0
41.00,40.31,0
40.00,40.32,0
44.00,40.36,0
40.00,40.44,0
41.00,40.53,0
35.00,40.56,0
40.00,40.49,0
41.00,40.38,0
41.00,40.31,0
41.00,40.28,0
42.00,40.29,0
40.00,40.33,0
41.00,40.38,0
40.00,40.41,0
41.00,40.45,0
39.00,40.46,0
40.00,40.45,0
38.00,40.40,0
39.00,40.31,0
40.00,40.20,0
40.00,40.10,0
40.00,40.02,0
40.00,39.96,0
39.00,39.90,0
40.00,39.85,0
41.00,39.81,0
40.00,39.81,0
40.00,39.82,0
40.00,39.83,0
40.00,39.85,0
40.00,39.87,0
42.00,39.90,0
40.00,39.96,0
41.00,40.04,0
40.00,40.11,0
40.00,40.17,0
43.00,40.23,0
40.00,40.32,0
40.00,40.41,0
40.00,40.45,0
39.00,40.47,0
41.00,40.46,0
40.00,40.44,0
41.00,40.43,0
40.00,40.42,0
42.00,40.43,0
40.00,40.45,0
40.00,40.47,0
41.00,40.48,0
39.00,40.48,0
40.00,40.45,0
40.00,40.41,0
40.00,40.36,0
40.00,40.32,0
41.00,40.28,0
40.00,40.26,0
41.00,40.25,0
40.00,40.25,0
41.00,40.26,0
43.00,40.30,0
42.00,40.40,0
35.00,40.47,0
41.00,40.45,0
43.00,40.43,0
41.00,40.46,0
42.00,40.53,0
42.00,40.62,0
42.00,40.73,0
40.00,40.84,0
39.00,40.91,0
41.00,40.92,0
40.00,40.91,0
40.00,40.88,0
40.00,40.82,0
39.00,40.75,0
40.00,40.65,0
40.00,40.55,0
40.00,40.45,0
44.00,40.39,0
44.00,40.44,0
39.00,40.55,0
40.00,40.63,0
40.00,40.66,0
40.00,40.66,0
41.00,40.65,0
40.00,40.64,0
39.00,40.61,0
41.00,40.56,0
40.00,40.51,0
41.00,40.47,0
38.00,40.42,0
42.00,40.37,0
40.00,40.33,0
40.00,40.30,0
43.00,40.30,0
37.00,40.31,0
40.00,40.29,0
41.00,40.24,0
40.00,40.22,0
45.00,40.24,0
38.00,40.31,0
40.00,40.37,0
43.00,40.41,0
40.00,40.47,0
41.00,40.54,0
41.00,40.60,0
38.00,40.63,0
40.00,40.61,0
41.00,40.56,0
40.00,40.53,0
41.00,40.50,0
40.00,40.48,0
41.00,40.46,0
43.00,40.48,0
41.00,40.54,0
38.00,40.59,0
41.00,40.59,0
39.00,40.57,0
40.00,40.52,0
40.00,40.46,0
42.00,40.42,0
40.00,40.41,0
40.00,40.40,0
40.00,40.38,0
41.00,40.36,0
39.00,40.34,0
41.00,40.32,0
40.00,40.30,0
42.00,40.29,0
40.00,40.32,0
44.00,40.37,0
39.00,40.46,0
40.00,40.53,0
40.00,40.56,0
40.00,40.56,0
41.00,40.55,0
40.00,40.54,0
41.00,40.53,0
40.00,40.53,0
41.00,40.52,0
40.00,40.51,0
40.00,40.50,0
40.00,40.48,0
42.00,40.46,0
40.00,40.46,0
41.00,40.47,0
39.00,40.47,0
45.00,40.49,0
39.00,40.56,0
42.00,40.63,0
40.00,40.69,0
42.00,40.74,0
38.00,40.78,0
42.00,40.78,0
40.00,40.77,0
40.00,40.75,0
40.00,40.71,0
42.00,40.68,0
40.00,40.66,0
36.00,40.61,0
40.00,40.49,0
39.00,40.34,0
41.00,40.20,0
38.00,40.08,0
40.00,39.97,0
39.00,39.85,0
41.00,39.77,0
39.00,39.71,0
46.00,39.71,0
39.00,39.81,0
42.00,39.94,0
42.00,40.08,0
42.00,40.25,0
37.00,40.39,0
41.00,40.47,0
39.00,40.49,0
42.00,40.50,0
39.00,40.51,0
41.00,40.51,0
39.00,40.49,0
42.00,40.47,0
39.00,40.45,0
41.00,40.43,0
43.00,40.44,0
42.00,40.50,0
39.00,40.58,0
40.00,40.62,0
42.00,40.64,0
41.00,40.68,0
40.00,40.72,0
40.00,40.73,0
42.00,40.73,0
40.00,40.74,0
41.00,40.75,0
40.00,40.75,0
42.00,40.75,0
39.00,40.75,0
41.00,40.73,0
39.00,40.69,0
43.00,40.66,0
39.00,40.64,0
42.00,40.63,0
39.00,40.62,0
42.00,40.61,0
39.00,40.60,0
43.00,40.59,0
42.00,40.63,0
42.00,40.71,0
39.00,40.79,0
43.00,40.84,0
39.00,40.89,0
41.00,40.92,0
40.00,40.92,0
41.00,40.90,0
39.00,40.87,0
41.00,40.81,0
39.00,40.74,0
41.00,40.67,0
39.00,40.59,0
40.00,40.50,0
42.00,40.42,0
39.00,40.37,0
40.00,40.33,0
39.00,40.26,0
42.00,40.21,0
39.00,40.17,0
41.00,40.15,0
38.00,40.12,0
46.00,40.12,0
39.00,40.19,0
42.00,40.28,0
39.00,40.36,0
40.00,40.41,0
38.00,40.41,0
41.00,40.37,0
38.00,40.31,0
42.00,40.25,0
38.00,40.19,0
43.00,40.15,0
38.00,40.13,0
44.00,40.14,0
39.00,40.18,0
42.00,40.24,0
39.00,40.29,0
41.00,40.33,0
43.00,40.38,0
40.00,40.47,0
41.00,40.55,0
40.00,40.61,0
41.00,40.65,0
40.00,40.68,0
43.00,40.71,0
40.00,40.76,0
46.00,40.85,0
39.00,40.98,0
43.00,41.10,0
38.00,41.18,0
42.00,41.22,0
39.00,41.21,0
43.00,41.19,0
39.00,41.16,0
44.00,41.15,0
41.00,41.17,0
43.00,41.22,0
39.00,41.26,0
42.00,41.28,0
37.00,41.25,0
44.00,41.19,0
37.00,41.12,0
41.00,41.02,0
38.00,40.89,0
42.00,40.75,0
38.00,40.62,0
41.00,40.49,0
39.00,40.37,0
39.00,40.25,0
41.00,40.13,0
39.00,40.04,0
40.00,39.96,0
41.00,39.90,0
45.00,39.91,0
38.00,40.00,0
46.00,40.13,0
38.00,40.29,0
44.00,40.45,0
40.00,40.60,0
44.00,40.77,0
38.00,40.92,0
44.00,41.04,0
38.00,41.12,0
43.00,41.18,0
37.00,41.19,0
43.00,41.16,0
37.00,41.09,0
47.00,41.04,0
38.00,41.04,0
43.00,41.06,0
40.00,41.07,0
43.00,41.09,0
38.00,41.11,0
42.00,41.09,0
38.00,41.04,0
41.00,40.96,0
39.00,40.86,0
40.00,40.74,0
39.00,40.62,0
40.00,40.48,0
43.00,40.38,0
38.00,40.32,0
41.00,40.27,0
38.00,40.20,0
43.00,40.15,0
37.00,40.11,0
44.00,40.08,0
38.00,40.08,0
44.00,40.12,0
36.00,40.16,0
49.00,40.22,0
39.00,40.37,0
43.00,40.56,0
37.00,40.70,0
44.00,40.79,0
38.00,40.85,0
43.00,40.90,0
39.00,40.93,0
43.00,40.96,0
42.00,41.01,0
42.00,41.08,0
39.00,41.15,0
40.00,41.16,0
38.00,41.10,0
40.00,40.99,0
40.00,40.85,0
41.00,40.73,0
40.00,40.63,0
39.00,40.53,0
42.00,40.44,0
37.00,40.35,0
47.00,40.30,0
36.00,40.31,0
47.00,40.36,0
36.00,40.43,0
44.00,40.50,0
39.00,40.56,0
46.00,40.65,0
38.00,40.78,0
44.00,40.90,0
38.00,40.99,0
44.00,41.06,0
38.00,41.11,0
44.00,41.15,0
38.00,41.17,0
43.00,41.17,0
38.00,41.15,0
44.00,41.12,0
39.00,41.11,0
40.00,41.07,0
43.00,41.03,0
41.00,41.02,0
39.00,41.01,0
39.00,40.95,0
45.00,40.90,0
36.00,40.86,0
41.00,40.80,0
38.00,40.68,0
42.00,40.57,0
37.00,40.45,0
44.00,40.35,0
40.00,40.30,0
45.00,40.33,0
36.00,40.39,0
45.00,40.44,0
41.00,40.52,0
45.00,40.66,0
36.00,40.81,0
44.00,40.90,0
36.00,40.94,0
46.00,40.95,0
38.00,40.98,0
43.00,41.02,0
37.00,41.01,0
44.00,40.99,0
38.00,40.96,0
42.00,40.92,0
39.00,40.87,0
39.00,40.80,0
39.00,40.68,0
42.00,40.56,0
38.00,40.46,0
39.00,40.35,0
41.00,40.22,0
40.00,40.13,0
42.00,40.08,0
38.00,40.05,0
44.00,40.05,0
43.00,40.12,0
44.00,40.28,0
36.00,40.46,0
46.00,40.59,0
36.00,40.71,0
47.00,40.81,0
38.00,40.93,0
45.00,41.06,0
37.00,41.16,0
45.00,41.23,0
36.00,41.27,0
47.00,41.29,0
37.00,41.32,0
43.00,41.33,0
37.00,41.30,0
46.00,41.25,0
38.00,41.24,0
41.00,41.21,0
39.00,41.14,0
40.00,41.04,0
39.00,40.91,0
40.00,40.77,0
41.00,40.63,0
38.00,40.51,0
48.00,40.44,0
36.00,40.46,0
44.00,40.49,0
38.00,40.51,0
46.00,40.56,0
37.00,40.64,0
45.00,40.72,0
35.00,40.77,0
42.00,40.76,0
39.00,40.71,0
47.00,40.71,0
37.00,40.77,0
48.00,40.86,0
36.00,40.98,0
41.00,41.04,0
37.00,41.01,0
43.00,40.94,0
38.00,40.87,0
38.00,40.75,0
36.00,40.56,0
43.00,40.34,0
39.00,40.17,0
41.00,40.05,0
38.00,39.94,0
40.00,39.84,0
39.00,39.75,0
41.00,39.68,0
39.00,39.63,0
37.00,39.58,0
43.00,39.52,0
38.00,39.49,0
43.00,39.51,0
37.00,39.55,0
44.00,39.60,0
37.00,39.67,0
47.00,39.77,0
36.00,39.92,0
46.00,40.07,0
41.00,40.26,0
45.00,40.50,0
35.00,40.72,0
49.00,40.89,0
37.00,41.08,0
47.00,41.27,0
43.00,41.48,0
45.00,41.75,0
37.00,41.97,0
47.00,42.13,0
37.00,42.24,0
47.00,42.32,0
40.00,42.40,0
42.00,42.45,0
34.00,42.39,0
44.00,42.22,0
38.00,42.01,0
39.00,41.78,0
41.00,41.52,0
38.00,41.27,0
42.00,41.02,0
38.00,40.80,0
46.00,40.64,0
38.00,40.57,0
43.00,40.53,0
36.00,40.49,0
45.00,40.44,0
37.00,40.41,0
44.00,40.40,0
37.00,40.40,0
45.00,40.40,0
36.00,40.42,0
48.00,40.46,0
37.00,40.55,0
46.00,40.67,0
38.00,40.80,0
45.00,40.92,0
37.00,41.03,0
46.00,41.12,0
40.00,41.22,0
41.00,41.32,0
38.00,41.35,0
40.00,41.30,0
40.00,41.21,0
39.00,41.09,0
40.00,40.94,0
42.00,40.81,0
39.00,40.71,0
37.00,40.58,0
44.00,40.44,0
37.00,40.34,0
44.00,40.26,0
39.00,40.23,0
44.00,40.25,0
39.00,40.30,0
47.00,40.41,0
37.00,40.56,0
49.00,40.74,0
39.00,40.96,0
46.00,41.21,0
36.00,41.42,0
47.00,41.57,0
36.00,41.68,0
47.00,41.76,0
36.00,41.81,0
46.00,41.83,0
36.00,41.82,0
43.00,41.76,0
37.00,41.64,0
46.00,41.53,0
37.00,41.44,0
44.00,41.36,0
38.00,41.27,0
41.00,41.18,0
41.00,41.07,0
37.00,40.96,0
47.00,40.86,0
41.00,40.85,0
44.00,40.92,0
38.00,41.01,0
44.00,41.07,0
36.00,41.10,0
43.00,41.08,0
35.00,41.00,0
41.00,40.86,0
33.00,40.64,0
44.00,40.38,0
36.00,40.14,0
44.00,39.96,0
36.00,39.82,0
46.00,39.74,0
37.00,39.73,0
45.00,39.77,0
35.00,39.82,0
47.00,39.89,0
37.00,39.99,0
46.00,40.13,0
38.00,40.29,0
42.00,40.43,0
36.00,40.51,0
41.00,40.51,0
39.00,40.47,0
38.00,40.40,0
40.00,40.29,0
41.00,40.19,0
43.00,40.14,0
37.00,40.14,0
45.00,40.15,0
36.00,40.18,0
46.00,40.22,0
42.00,40.32,0
44.00,40.51,0
36.00,40.68,0
47.00,40.82,0
36.00,40.94,0
50.00,41.08,0
36.00,41.25,0
46.00,41.40,0
38.00,41.52,0
47.00,41.64,0
36.00,41.73,0
48.00,41.81,0
36.00,41.88,0
45.00,41.90,0
40.00,41.91,0
44.00,41.93,0
36.00,41.91,0
41.00,41.81,0
40.00,41.66,0
40.00,41.49,0
42.00,41.34,0
36.00,41.17,0
39.00,40.95,0
38.00,40.68,0
40.00,40.42,0
36.00,40.15,0
43.00,39.90,0
37.00,39.71,0
49.00,39.62,0
36.00,39.66,0
47.00,39.77,0
36.00,39.91,0
47.00,40.06,0
36.00,40.23,0
47.00,40.40,0
38.00,40.58,0
46.00,40.78,0
36.00,40.95,0
48.00,41.09,0
35.00,41.23,0
46.00,41.32,0
37.00,41.38,0
42.00,41.40,0
37.00,41.35,0
44.00,41.27,0
38.00,41.19,0
42.00,41.10,0
38.00,41.00,0
41.00,40.89,0
39.00,40.76,0
39.00,40.62,0
43.00,40.49,0
37.00,40.40,0
47.00,40.35,0
36.00,40.35,0
45.00,40.38,0
36.00,40.40,0
48.00,40.45,0
37.00,40.54,0
46.00,40.66,0
37.00,40.78,0
48.00,40.91,0
34.00,41.04,0
46.00,41.12,0
36.00,41.16,0
50.00,41.22,0
37.00,41.33,0
44.00,41.43,0
37.00,41.48,0
48.00,41.52,0
36.00,41.58,0
50.00,41.65,0
38.00,41.76,0
45.00,41.88,0
39.00,41.97,0
43.00,42.02,0
40.00,42.03,0
41.00,42.01,0
40.00,41.94,0
39.00,41.82,0
43.00,41.68,0
38.00,41.55,0
43.00,41.41,0
38.00,41.27,0
42.00,41.13,0
36.00,40.98,0
44.00,40.81,0
39.00,40.68,0
46.00,40.62,0
34.00,40.60,0
45.00,40.56,0
35.00,40.50,0
46.00,40.44,0
37.00,40.42,0
48.00,40.45,0
35.00,40.53,0
50.00,40.64,0
34.00,40.78,0
48.00,40.90,0
35.00,41.01,0
47.00,41.10,0
38.00,41.19,0
44.00,41.28,0
40.00,41.35,0
45.00,41.44,0
36.00,41.50,0
41.00,41.49,0
39.00,41.40,0
43.00,41.30,0
40.00,41.23,0
36.00,41.13,0
41.00,40.95,0
38.00,40.75,0
40.00,40.55,0
36.00,40.33,0
51.00,40.18,0
40.00,40.20,0
45.00,40.35,0
37.00,40.51,0
47.00,40.66,0
34.00,40.80,0
49.00,40.91,0
36.00,41.03,0
46.00,41.14,0
37.00,41.23,0
49.00,41.34,0
35.00,41.45,0
48.00,41.55,0
36.00,41.63,0
50.00,41.72,0
38.00,41.85,0
45.00,41.98,0
38.00,42.06,0
40.00,42.06,0
37.00,41.95,0
40.00,41.75,0
41.00,41.53,0
40.00,41.32,0
39.00,41.12,0
37.00,40.89,0
39.00,40.62,0
34.00,40.30,0
45.00,39.99,0
36.00,39.74,0
44.00,39.58,0
36.00,39.47,0
49.00,39.44,0
39.00,39.55,0
45.00,39.74,0
36.00,39.94,0
48.00,40.13,0
36.00,40.34,0
42.00,40.50,0
37.00,40.58,0
53.00,40.70,0
39.00,40.95,0
49.00,41.27,0
37.00,41.59,0
47.00,41.87,0
38.00,42.09,0
46.00,42.26,0
36.00,42.37,0
48.00,42.42,0
37.00,42.45,0
41.00,42.42,0
48.00,42.38,0
42.00,42.42,0
40.00,42.47,0
43.00,42.47,0
39.00,42.43,0
37.00,42.31,0
44.00,42.11,0
36.00,41.90,0
40.00,41.64,0
37.00,41.33,0
43.00,41.03,0
35.00,40.75,0
44.00,40.48,0
35.00,40.25,0
44.00,40.05,0
37.00,39.90,0
53.00,39.87,0
36.00,40.02,0
50.00,40.25,0
36.00,40.52,0
46.00,40.77,0
38.00,40.99,0
45.00,41.18,0
39.00,41.34,0
45.00,41.48,0
37.00,41.60,0
46.00,41.67,0
38.00,41.73,0
44.00,41.76,0
39.00,41.77,0
40.00,41.74,0
39.00,41.64,0
42.00,41.51,0
40.00,41.39,0
38.00,41.24,0
43.00,41.09,0
36.00,40.93,0
45.00,40.78,0
37.00,40.67,0
44.00,40.59,0
35.00,40.50,0
46.00,40.42,0
34.00,40.36,0
46.00,40.30,0
40.00,40.29,0
47.00,40.38,0
38.00,40.54,0
45.00,40.71,0
36.00,40.84,0
50.00,40.98,0
37.00,41.15,0
46.00,41.33,0
40.00,41.50,0
50.00,41.71,0
42.00,41.99,0
47.00,42.32,0
38.00,42.60,0
42.00,42.77,0
37.00,42.80,0
40.00,42.70,0
40.00,42.51,0
46.00,42.33,0
46.00,42.26,0
39.00,42.28,0
36.00,42.22,0
35.00,41.98,0
45.00,41.66,0
36.00,41.37,0
45.00,41.12,0
36.00,40.91,0
42.00,40.71,0
35.00,40.49,0
47.00,40.31,0
37.00,40.20,0
46.00,40.18,0
34.00,40.17,0
52.00,40.22,0
36.00,40.36,0
45.00,40.53,0
41.00,40.70,0
48.00,40.93,0
38.00,41.20,0
43.00,41.42,0
39.00,41.57,0
51.00,41.72,0
37.00,41.94,0
42.00,42.09,0
39.00,42.14,0
41.00,42.12,0
41.00,42.04,0
45.00,41.99,0
40.00,41.97,0
37.00,41.91,0
41.00,41.75,0
36.00,41.54,0
44.00,41.30,0
36.00,41.08,0
44.00,40.87,0
36.00,40.68,0
42.00,40.50,0
36.00,40.32,0
46.00,40.16,0
39.00,40.10,0
48.00,40.15,0
40.00,40.31,0
47.00,40.54,0
36.00,40.78,0
45.00,40.97,0
37.00,41.11,0
48.00,41.24,0
36.00,41.37,0
45.00,41.46,0
38.00,41.52,0
46.00,41.57,0
38.00,41.62,0
46.00,41.67,0
38.00,41.72,0
44.00,41.75,0
42.00,41.79,0
40.00,41.82,0
38.00,41.78,0
38.00,41.64,0
40.00,41.44,0
37.00,41.19,0
41.00,40.92,0
37.00,40.65,0
44.00,40.42,0
39.00,40.26,0
46.00,40.20,0
35.00,40.19,0
49.00,40.23,0
34.00,40.30,0
46.00,40.37,0
38.00,40.45,0
45.00,40.55,0
36.00,40.64,0
50.00,40.74,0
36.00,40.90,0
45.00,41.04,0
37.00,41.15,0
46.00,41.23,0
38.00,41.31,0
45.00,41.38,0
38.00,41.44,0
43.00,41.47,0
36.00,41.45,0
37.00,41.31,0
42.00,41.10,0
37.00,40.89,0
39.00,40.65,0
40.00,40.41,0
43.00,40.23,0
37.00,40.11,0
44.00,40.03,0
37.00,39.98,0
43.00,39.95,0
36.00,39.92,0
49.00,39.93,0
35.00,40.02,0
46.00,40.13,0
35.00,40.22,0
50.00,40.34,0
38.00,40.52,0
46.00,40.74,0
37.00,40.94,0
50.00,41.15,0
36.00,41.37,0
47.00,41.57,0
35.00,41.72,0
50.00,41.82,0
37.00,41.94,0
41.00,42.01,0
38.00,41.97,0
42.00,41.87,0
34.00,41.70,0
43.00,41.45,0
42.00,41.23,0
44.00,41.12,0
43.00,41.10,0
40.00,41.13,0
40.00,41.14,0
38.00,41.10,0
42.00,41.01,0
36.00,40.89,0
42.00,40.74,0
36.00,40.57,0
46.00,40.42,0
40.00,40.36,0
44.00,40.38,0
36.00,40.42,0
51.00,40.49,0
36.00,40.65,0
47.00,40.83,0
36.00,40.99,0
48.00,41.13,0
38.00,41.29,0
50.00,41.48,0
37.00,41.70,0
45.00,41.89,0
36.00,41.99,0
43.00,42.00,0
36.00,41.93,0
46.00,41.82,0
37.00,41.71,0
44.00,41.61,0
38.00,41.50,0
43.00,41.40,0
42.00,41.32,0
40.00,41.28,0
37.00,41.19,0
40.00,41.04,0
44.00,40.90,0
36.00,40.79,0
44.00,40.68,0
37.00,40.59,0
46.00,40.53,0
40.00,40.54,0
46.00,40.63,0
35.00,40.74,0
46.00,40.81,0
37.00,40.87,0
49.00,40.97,0
37.00,41.10,0
48.00,41.26,0
37.00,41.42,0
46.00,41.57,0
39.00,41.69,0
47.00,41.82,0
40.00,41.96,0
43.00,42.09,0
38.00,42.15,0
44.00,42.15,0
39.00,42.12,0
43.00,42.07,0
39.00,41.99,0
44.00,41.91,0
42.00,41.86,0
38.00,41.81,0
44.00,41.73,0
39.00,41.65,0
41.00,41.56,0
41.00,41.46,0
43.00,41.38,0
36.00,41.30,0
44.00,41.19,0
37.00,41.07,0
49.00,41.01,0
36.00,41.02,0
46.00,41.05,0
36.00,41.07,0
46.00,41.08,0
36.00,41.09,0
49.00,41.12,0
35.00,41.18,0
45.00,41.22,0
36.00,41.21,0
45.00,41.19,0
38.00,41.16,0
43.00,41.14,0
39.00,41.11,0
43.00,41.08,0
39.00,41.06,0
39.00,41.00,0
40.00,40.90,0
39.00,40.78,0
39.00,40.64,0
39.00,40.48,0
43.00,40.34,0
38.00,40.25,0
38.00,40.14,0
34.00,39.96,0
47.00,39.77,0
36.00,39.66,0
44.00,39.61,0
35.00,39.58,0
50.00,39.61,0
36.00,39.73,0
47.00,39.91,0
40.00,40.13,0
44.00,40.38,0
36.00,40.59,0
49.00,40.78,0
39.00,41.00,0
44.00,41.23,0
36.00,41.38,0
46.00,41.47,0
36.00,41.52,0
47.00,41.55,0
37.00,41.58,0
42.00,41.58,0
37.00,41.51,0
41.00,41.38,0
38.00,41.21,0
42.00,41.03,0
37.00,40.86,0
39.00,40.65,0
41.00,40.44,0
39.00,40.27,0
42.00,40.14,0
38.00,40.04,0
43.00,39.97,0
37.00,39.93,0
48.00,39.94,0
36.00,40.03,0
43.00,40.12,0
40.00,40.20,0
45.00,40.32,0
36.00,40.45,0
49.00,40.58,0
36.00,40.75,0
45.00,40.90,0
36.00,41.00,0
47.00,41.08,0
38.00,41.17,0
46.00,41.27,0
36.00,41.36,0
46.00,41.41,0
37.00,41.44,0
44.00,41.46,0
37.00,41.43,0
46.00,41.40,0
39.00,41.40,0
40.00,41.38,0
39.00,41.31,0
39.00,41.18,0
41.00,41.03,0
38.00,40.87,0
42.00,40.72,0
40.00,40.59,0
44.00,40.52,0
36.00,40.49,0
44.00,40.45,0
36.00,40.40,0
45.00,40.36,0
37.00,40.34,0
45.00,40.35,0
36.00,40.37,0
46.00,40.40,0
37.00,40.45,0
48.00,40.54,0
35.00,40.65,0
46.00,40.75,0
36.00,40.83,0
48.00,40.91,0
39.00,41.03,0
43.00,41.16,0
37.00,41.24,0
42.00,41.25,0
38.00,41.21,0
46.00,41.17,0
36.00,41.15,0
43.00,41.11,0
38.00,41.04,0
39.00,40.93,0
43.00,40.81,0
46.00,40.79,0
45.00,40.91,0
37.00,41.08,0
44.00,41.19,0
38.00,41.27,0
45.00,41.32,0
36.00,41.36,0
46.00,41.36,0
36.00,41.35,0
44.00,41.32,0
35.00,41.24,0
46.00,41.14,0
35.00,41.04,0
47.00,40.96,0
37.00,40.91,0
46.00,40.90,0
37.00,40.92,0
49.00,40.97,0
36.00,41.07,0
50.00,41.21,0
40.00,41.40,0
46.00,41.63,0
38.00,41.84,0
44.00,41.98,0
41.00,42.09,0
40.00,42.14,0
39.00,42.12,0
39.00,42.00,0
43.00,41.85,0
42.00,41.73,0
42.00,41.65,0
36.00,41.56,0
43.00,41.41,0
38.00,41.25,0
42.00,41.10,0
36.00,40.93,0
44.00,40.75,0
36.00,40.59,0
47.00,40.48,0
34.00,40.41,0
46.00,40.35,0
37.00,40.32,0
44.00,40.31,0
36.00,40.31,0
47.00,40.32,0
37.00,40.38,0
46.00,40.47,0
36.00,40.56,0
49.00,40.67,0
36.00,40.81,0
46.00,40.96,0
37.00,41.07,0
40.00,41.12,0
38.00,41.09,0
42.00,41.01,0
37.00,40.90,0
43.00,40.78,0
40.00,40.69,0
39.00,40.62,0
42.00,40.54,0
39.00,40.48,0
42.00,40.44,0
41.00,40.42,0
44.00,40.46,0
38.00,40.54,0
44.00,40.61,0
36.00,40.66,0
47.00,40.70,0
36.00,40.76,0
46.00,40.82,0
36.00,40.87,0
48.00,40.93,0
37.00,41.02,0
45.00,41.11,0
36.00,41.17,0
46.00,41.20,0
36.00,41.22,0
50.00,41.25,0
36.00,41.34,0
50.00,41.46,0
38.00,41.62,0
45.00,41.78,0
38.00,41.89,0
43.00,41.95,0
39.00,41.95,0
41.00,41.90,0
41.00,41.82,0
39.00,41.72,0
39.00,41.56,0
36.00,41.34,0
41.00,41.06,0
37.00,40.77,0
43.00,40.50,0
37.00,40.29,0
48.00,40.15,0
36.00,40.12,0
46.00,40.14,0
36.00,40.19,0
44.00,40.23,0
36.00,40.26,0
49.00,40.31,0
36.00,40.43,0
48.00,40.57,0
39.00,40.75,0
48.00,40.99,0
36.00,41.22,0
49.00,41.43,0
40.00,41.66,0
46.00,41.90,0
40.00,42.12,0
44.00,42.31,0
37.00,42.41,0
43.00,42.41,0
39.00,42.36,0
41.00,42.25,0
39.00,42.09,0
39.00,41.89,0
39.00,41.64,0
39.00,41.36,0
41.00,41.09,0
38.00,40.84,0
42.00,40.61,0
37.00,40.41,0
43.00,40.23,0
36.00,40.09,0
46.00,39.98,0
37.00,39.94,0
47.00,39.97,0
38.00,40.07,0
46.00,40.22,0
35.00,40.36,0
52.00,40.53,0
36.00,40.76,0
46.00,40.99,0
36.00,41.17,0
46.00,41.30,0
36.00,41.39,0
49.00,41.47,0
36.00,41.56,0
45.00,41.63,0
38.00,41.67,0
45.00,41.68,0
37.00,41.68,0
44.00,41.65,0
37.00,41.59,0
40.00,41.48,0
38.00,41.30,0
38.00,41.07,0
39.00,40.80,0
44.00,40.58,0
40.00,40.44,0
40.00,40.36,0
44.00,40.31,0
38.00,40.32,0
44.00,40.35,0
39.00,40.40,0
42.00,40.46,0
36.00,40.48,0
45.00,40.47,0
36.00,40.47,0
47.00,40.48,0
34.00,40.51,0
45.00,40.51,0
36.00,40.50,0
46.00,40.50,0
36.00,40.51,0
44.00,40.52,0
34.00,40.50,0
46.00,40.44,0
35.00,40.40,0
46.00,40.37,0
37.00,40.36,0
43.00,40.37,0
36.00,40.36,0
38.00,40.28,0
38.00,40.13,0
40.00,39.96,0
39.00,39.81,0
44.00,39.71,0
43.00,39.74,0
40.00,39.84,0
40.00,39.96,0
43.00,40.07,0
43.00,40.22,0
38.00,40.39,0
44.00,40.54,0
36.00,40.64,0
44.00,40.70,0
36.00,40.72,0
46.00,40.73,0
37.00,40.75,0
46.00,40.80,0
36.00,40.85,0
47.00,40.90,0
36.00,40.95,0
51.00,41.05,0
34.00,41.19,0
46.00,41.29,0
37.00,41.36,0
48.00,41.43,0
37.00,41.51,0
42.00,41.56,0
41.00,41.57,0
44.00,41.58,0
40.00,41.62,0
39.00,41.62,0
40.00,41.54,0
40.00,41.43,0
42.00,41.31,0
38.00,41.19,0
43.00,41.07,0
39.00,40.97,0
44.00,40.90,0
37.00,40.86,0
49.00,40.85,0
39.00,40.93,0
47.00,41.08,0
36.00,41.23,0
50.00,41.38,0
37.00,41.56,0
46.00,41.72,0
34.00,41.81,0
47.00,41.83,0
35.00,41.81,0
48.00,41.77,0
36.00,41.75,0
45.00,41.71,0
42.00,41.69,0
42.00,41.71,0
38.00,41.70,0
44.00,41.66,0
38.00,41.60,0
43.00,41.53,0
40.00,41.46,0
37.00,41.36,0
38.00,41.17,0
39.00,40.92,0
44.00,40.70,0
36.00,40.53,0
43.00,40.38,0
37.00,40.25,0
44.00,40.14,0
36.00,40.07,0
44.00,40.01,0
38.00,39.98,0
46.00,40.01,0
37.00,40.09,0
49.00,40.22,0
36.00,40.41,0
47.00,40.60,0
38.00,40.79,0
46.00,40.99,0
37.00,41.16,0
46.00,41.31,0
36.00,41.41,0
48.00,41.50,0
36.00,41.58,0
43.00,41.61,0
39.00,41.59,0
42.00,41.55,0
42.00,41.51,0
40.00,41.47,0
38.00,41.40,0
40.00,41.26,0
41.00,41.11,0
37.00,40.95,0
41.00,40.76,0
36.00,40.55,0
43.00,40.34,0
36.00,40.16,0
44.00,40.00,0
32.00,39.85,0
46.00,39.69,0
35.00,39.57,0
49.00,39.54,0
35.00,39.59,0
48.00,39.70,0
36.00,39.86,0
50.00,40.06,0
36.00,40.32,0
46.00,40.57,0
40.00,40.80,0
45.00,41.05,0
36.00,41.25,0
43.00,41.36,0
37.00,41.39,0
43.00,41.37,0
40.00,41.33,0
40.00,41.28,0
38.00,41.19,0
41.00,41.05,0
41.00,40.92,0
40.00,40.81,0
41.00,40.72,0
37.00,40.62,0
44.00,40.52,0
36.00,40.43,0
47.00,40.37,0
37.00,40.37,0
44.00,40.41,0
35.00,40.41,0
46.00,40.41,0
37.00,40.42,0
51.00,40.51,0
38.00,40.70,0
46.00,40.94,0
37.00,41.14,0
42.00,41.27,0
35.00,41.29,0
49.00,41.28,0
37.00,41.31,0
50.00,41.39,0
37.00,41.53,0
47.00,41.67,0
38.00,41.80,0
39.00,41.85,0
42.00,41.82,0
40.00,41.75,0
39.00,41.65,0
39.00,41.50,0
42.00,41.32,0
41.00,41.18,0
43.00,41.09,0
37.00,41.02,0
45.00,40.94,0
36.00,40.88,0
44.00,40.82,0
36.00,40.74,0
42.00,40.64,0
37.00,40.51,0
51.00,40.46,0
36.00,40.53,0
46.00,40.64,0
34.00,40.72,0
45.00,40.75,0
36.00,40.74,0
47.00,40.75,0
36.00,40.78,0
50.00,40.85,0
37.00,40.98,0
42.00,41.10,0
37.00,41.14,0
43.00,41.12,0
38.00,41.08,0
40.00,41.00,0
38.00,40.88,0
39.00,40.71,0
40.00,40.53,0
41.00,40.37,0
42.00,40.28,0
36.00,40.20,0
44.00,40.12,0
36.00,40.06,0
44.00,40.01,0
36.00,39.97,0
46.00,39.96,0
36.00,39.98,0
46.00,40.03,0
36.00,40.11,0
50.00,40.23,0
36.00,40.41,0
42.00,40.57,0
36.00,40.63,0
45.00,40.66,0
37.00,40.68,0
44.00,40.69,0
39.00,40.72,0
43.00,40.75,0
36.00,40.76,0
46.00,40.75,0
38.00,40.77,0
41.00,40.78,0
40.00,40.77,0
40.00,40.74,0
38.00,40.68,0
40.00,40.57,0
42.00,40.47,0
40.00,40.42,0
43.00,40.40,0
36.00,40.39,0
42.00,40.35,0
37.00,40.28,0
47.00,40.24,0
37.00,40.27,0
47.00,40.35,0
36.00,40.46,0
50.00,40.60,0
35.00,40.78,0
48.00,40.95,0
37.00,41.12,0
46.00,41.28,0
35.00,41.39,0
50.00,41.48,0
35.00,41.58,0
45.00,41.64,0
37.00,41.65,0
45.00,41.64,0
38.00,41.62,0
45.00,41.60,0
38.00,41.58,0
43.00,41.54,0
38.00,41.48,0
38.00,41.36,0
39.00,41.17,0
38.00,40.93,0
41.00,40.69,0
40.00,40.48,0
42.00,40.33,0
37.00,40.22,0
46.00,40.14,0
40.00,40.15,0
43.00,40.23,0
38.00,40.31,0
43.00,40.38,0
34.00,40.40,0
45.00,40.38,0
36.00,40.34,0
46.00,40.33,0
34.00,40.33,0
47.00,40.32,0
36.00,40.34,0
50.00,40.42,0
38.00,40.58,0
46.00,40.78,0
37.00,40.96,0
47.00,41.13,0
36.00,41.28,0
46.00,41.39,0
37.00,41.47,0
43.00,41.51,0
38.00,41.49,0
42.00,41.44,0
38.00,41.35,0
41.00,41.24,0
37.00,41.08,0
39.00,40.88,0
40.00,40.65,0
39.00,40.44,0
42.00,40.27,0
40.00,40.15,0
42.00,40.09,0
36.00,40.04,0
49.00,40.03,0
39.00,40.13,0
46.00,40.31,0
35.00,40.48,0
49.00,40.64,0
38.00,40.83,0
46.00,41.04,0
39.00,41.24,0
50.00,41.46,0
35.00,41.70,0
46.00,41.88,0
36.00,41.97,0
49.00,42.04,0
36.00,42.10,0
46.00,42.14,0
36.00,42.13,0
43.00,42.06,0
36.00,41.92,0
41.00,41.72,0
39.00,41.49,0
40.00,41.25,0
36.00,40.99,0
39.00,40.68,0
44.00,40.41,0
37.00,40.22,0
44.00,40.09,0
38.00,40.01,0
44.00,39.98,0
36.00,39.98,0
45.00,39.99,0
36.00,40.01,0
48.00,40.07,0
36.00,40.17,0
46.00,40.30,0
37.00,40.43,0
48.00,40.58,0
34.00,40.73,0
48.00,40.85,0
36.00,40.97,0
47.00,41.08,0
36.00,41.18,0
47.00,41.27,0
36.00,41.34,0
44.00,41.38,0
38.00,41.38,0
44.00,41.37,0
37.00,41.33,0
40.00,41.25,0
37.00,41.09,0
40.00,40.89,0
39.00,40.67,0
41.00,40.48,0
40.00,40.32,0
39.00,40.19,0
43.00,40.09,0
36.00,40.03,0
40.00,39.93,0
38.00,39.81,0
49.00,39.77,0
37.00,39.85,0
45.00,39.99,0
36.00,40.12,0
48.00,40.25,0
36.00,40.41,0
47.00,40.58,0
36.00,40.73,0
46.00,40.87,0
34.00,40.96,0
49.00,41.02,0
35.00,41.09,0
51.00,41.19,0
36.00,41.34,0
44.00,41.46,0
38.00,41.52,0
50.00,41.60,0
39.00,41.75,0
41.00,41.88,0
38.00,41.91,0
43.00,41.87,0
39.00,41.80,0
42.00,41.71,0
40.00,41.61,0
39.00,41.49,0
43.00,41.36,0
36.00,41.23,0
44.00,41.07,0
36.00,40.92,0
45.00,40.78,0
36.00,40.67,0
48.00,40.60,0
35.00,40.59,0
46.00,40.59,0
36.00,40.60,0
47.00,40.63,0
38.00,40.70,0
48.00,40.82,0
34.00,40.95,0
45.00,41.02,0
36.00,41.04,0
49.00,41.08,0
36.00,41.15,0
47.00,41.23,0
37.00,41.31,0
44.00,41.37,0
37.00,41.39,0
43.00,41.36,0
39.00,41.31,0
44.00,41.28,0
39.00,41.25,0
40.00,41.21,0
41.00,41.14,0
41.00,41.07,0
42.00,41.03,0
38.00,40.98,0
44.00,40.93,0
37.00,40.89,0
44.00,40.85,0
40.00,40.82,0
46.00,40.86,0
36.00,40.93,0
45.00,40.98,0
39.00,41.02,0
45.00,41.08,0
37.00,41.15,0
50.00,41.23,0
36.00,41.36,0
51.00,41.53,0
36.00,41.71,0
46.00,41.88,0
38.00,41.99,0
47.00,42.08,0
36.00,42.14,0
46.00,42.17,0
37.00,42.15,0
42.00,42.09,0
41.00,41.98,0
43.00,41.90,0
37.00,41.80,0
41.00,41.66,0
39.00,41.47,0
40.00,41.28,0
42.00,41.09,0
35.00,40.91,0
43.00,40.70,0
40.00,40.52,0
43.00,40.42,0
37.00,40.36,0
47.00,40.33,0
35.00,40.34,0
43.00,40.35,0
35.00,40.30,0
45.00,40.24,0
36.00,40.20,0
46.00,40.18,0
35.00,40.19,0
47.00,40.21,0
36.00,40.26,0
49.00,40.36,0
36.00,40.51,0
48.00,40.67,0
36.00,40.84,0
43.00,40.97,0
36.00,41.02,0
45.00,41.02,0
41.00,41.05,0
44.00,41.12,0
35.00,41.18,0
40.00,41.13,0
42.00,41.03,0
44.00,40.99,0
40.00,41.01,0
36.00,40.99,0
43.00,40.90,0
39.00,40.81,0
44.00,40.75,0
36.00,40.71,0
49.00,40.70,0
40.00,40.79,0
46.00,40.95,0
41.00,41.15,0
48.00,41.39,0
35.00,41.63,0
48.00,41.81,0
33.00,41.92,0
48.00,41.96,0
34.00,41.94,0
48.00,41.90,0
34.00,41.84,0
47.00,41.76,0
36.00,41.67,0
46.00,41.59,0
37.00,41.52,0
44.00,41.44,0
36.00,41.35,0
38.00,41.18,0
38.00,40.93,0
47.00,40.72,0
36.00,40.60,0
39.00,40.48,0
43.00,40.34,0
40.00,40.27,0
42.00,40.24,0
38.00,40.23,0
41.00,40.21,0
35.00,40.14,0
45.00,40.06,0
37.00,40.00,0
50.00,40.04,0
36.00,40.17,0
46.00,40.34,0
36.00,40.48,0
48.00,40.62,0
38.00,40.80,0
50.00,41.02,0
35.00,41.26,0
43.00,41.42,0
36.00,41.48,0
49.00,41.50,0
36.00,41.56,0
46.00,41.60,0
34.00,41.60,0
43.00,41.52,0
41.00,41.42,0
40.00,41.34,0
38.00,41.22,0
40.00,41.06,0
38.00,40.87,0
43.00,40.68,0
43.00,40.58,0
36.00,40.53,0
42.00,40.44,0
37.00,40.34,0
47.00,40.27,0
37.00,40.28,0
43.00,40.31,0
39.00,40.34,0
42.00,40.37,0
38.00,40.39,0
45.00,40.42,0
35.00,40.46,0
48.00,40.49,0
35.00,40.55,0
46.00,40.61,0
35.00,40.65,0
47.00,40.69,0
36.00,40.74,0
46.00,40.79,0
36.00,40.83,0
49.00,40.90,0
36.00,41.00,0
46.00,41.11,0
38.00,41.20,0
41.00,41.25,0
41.00,41.26,0
41.00,41.26,0
39.00,41.23,0
36.00,41.13,0
35.00,40.90,0
41.00,40.58,0
43.00,40.33,0
38.00,40.16,0
42.00,40.04,0
37.00,39.94,0
45.00,39.87,0
36.00,39.85,0
43.00,39.83,0
35.00,39.81,0
48.00,39.80,0
38.00,39.88,0
45.00,40.01,0
35.00,40.14,0
52.00,40.29,0
35.00,40.51,0
50.00,40.76,0
39.00,41.04,0
44.00,41.32,0
36.00,41.51,0
53.00,41.68,0
36.00,41.91,0
46.00,42.10,0
36.00,42.22,0
42.00,42.23,0
38.00,42.15,0
47.00,42.05,0
39.00,42.01,0
41.00,41.95,0
38.00,41.84,0
40.00,41.67,0
41.00,41.48,0
39.00,41.29,0
43.00,41.12,0
34.00,40.95,0
45.00,40.75,0
36.00,40.58,0
45.00,40.44,0
36.00,40.34,0
47.00,40.29,0
36.00,40.29,0
48.00,40.33,0
35.00,40.42,0
50.00,40.53,0
34.00,40.68,0
47.00,40.81,0
34.00,40.89,0
46.00,40.94,0
36.00,40.96,0
46.00,40.98,0
37.00,41.00,0
47.00,41.04,0
35.00,41.09,0
42.00,41.08,0
39.00,41.02,0
41.00,40.95,0
36.00,40.84,0
43.00,40.69,0
40.00,40.58,0
38.00,40.48,0
44.00,40.39,0
39.00,40.35,0
42.00,40.34,0
39.00,40.34,0
44.00,40.36,0
35.00,40.38,0
46.00,40.38,0
39.00,40.42,0
46.00,40.52,0
36.00,40.64,0
46.00,40.73,0
34.00,40.80,0
56.00,40.91,0
34.00,41.13,0
53.00,41.40,0
36.00,41.69,0
45.00,41.93,0
34.00,42.06,0
46.00,42.07,0
35.00,42.03,0
46.00,41.94,0
36.00,41.84,0
44.00,41.71,0
35.00,41.55,0
45.00,41.37,0
37.00,41.21,0
42.00,41.05,0
40.00,40.90,0
40.00,40.78,0
43.00,40.68,0
39.00,40.63,0
41.00,40.58,0
36.00,40.50,0
42.00,40.39,0
38.00,40.27,0
48.00,40.22,0
36.00,40.26,0
46.00,40.33,0
36.00,40.40,0
48.00,40.50,0
35.00,40.61,0
47.00,40.72,0
35.00,40.81,0
48.00,40.89,0
35.00,40.98,0
51.00,41.08,0
34.00,41.22,0
47.00,41.33,0
35.00,41.40,0
50.00,41.46,0
35.00,41.54,0
44.00,41.58,0
39.00,41.58,0
46.00,41.59,0
37.00,41.62,0
41.00,41.59,0
37.00,41.48,0
41.00,41.32,0
45.00,41.18,0
38.00,41.12,0
41.00,41.04,0
36.00,40.92,0
45.00,40.78,0
38.00,40.68,0
44.00,40.63,0
36.00,40.58,0
46.00,40.54,0
35.00,40.52,0
50.00,40.53,0
37.00,40.63,0
47.00,40.77,0
35.00,40.90,0
52.00,41.04,0
34.00,41.23,0
48.00,41.39,0
36.00,41.52,0
46.00,41.62,0
36.00,41.67,0
46.00,41.69,0
36.00,41.68,0
44.00,41.63,0
37.00,41.55,0
38.00,41.41,0
36.00,41.16,0
38.00,40.83,0
39.00,40.48,0
43.00,40.19,0
38.00,39.98,0
37.00,39.80,0
44.00,39.63,0
36.00,39.52,0
43.00,39.45,0
36.00,39.39,0
42.00,39.35,0
36.00,39.30,0
50.00,39.32,0
35.00,39.45,0
50.00,39.65,0
35.00,39.89,0
49.00,40.16,0
34.00,40.41,0
47.00,40.62,0
35.00,40.79,0
48.00,40.93,0
35.00,41.06,0
48.00,41.17,0
36.00,41.27,0
49.00,41.38,0
35.00,41.49,0
44.00,41.55,0
39.00,41.57,0
43.00,41.56,0
37.00,41.53,0
42.00,41.44,0
39.00,41.32,0
46.00,41.24,0
41.00,41.24,0
39.00,41.25,0
43.00,41.24,0
35.00,41.19,0
44.00,41.09,0
38.00,40.98,0
40.00,40.87,0
34.00,40.69,0
44.00,40.46,0
35.00,40.25,0
47.00,40.09,0
36.00,40.01,0
48.00,40.00,0
36.00,40.06,0
50.00,40.19,0
36.00,40.38,0
50.00,40.62,0
35.00,40.86,0
47.00,41.08,0
36.00,41.25,0
48.00,41.40,0
36.00,41.53,0
45.00,41.62,0
37.00,41.66,0
44.00,41.66,0
36.00,41.61,0
45.00,41.53,0
40.00,41.47,0
50.00,41.50,0
37.00,41.61,0
40.00,41.68,0
44.00,41.68,0
41.00,41.70,0
40.00,41.71,0
39.00,41.66,0
42.00,41.57,0
35.00,41.43,0
44.00,41.24,0
40.00,41.08,0
48.00,41.03,0
35.00,41.04,0
49.00,41.08,0
35.00,41.13,0
49.00,41.21,0
35.00,41.29,0
47.00,41.36,0
36.00,41.40,0
47.00,41.44,0
31.00,41.44,0
50.00,41.37,0
34.00,41.32,0
44.00,41.26,0
37.00,41.16,0
42.00,41.04,0
36.00,40.90,0
42.00,40.72,0
34.00,40.51,0
43.00,40.28,0
38.00,40.08,0
39.00,39.91,0
39.00,39.74,0
37.00,39.57,0
44.00,39.43,0
37.00,39.36,0
44.00,39.34,0
35.00,39.35,0
40.00,39.33,0
38.00,39.28,0
46.00,39.28,0
37.00,39.37,0
51.00,39.54,0
34.00,39.80,0
51.00,40.08,0
35.00,40.39,0
50.00,40.69,0
36.00,41.00,0
52.00,41.31,0
34.00,41.62,0
50.00,41.89,0
35.00,42.10,0
51.00,42.29,0
36.00,42.46,0
47.00,42.59,0
36.00,42.65,0
41.00,42.61,0
36.00,42.45,0
44.00,42.21,0
38.00,41.98,0
38.00,41.72,0
43.00,41.44,0
43.00,41.24,0
41.00,41.13,0
39.00,41.04,0
44.00,40.96,0
35.00,40.89,0
45.00,40.79,0
35.00,40.70,0
50.00,40.64,0
35.00,40.66,0
51.00,40.75,0
41.00,40.93,0
45.00,41.20,0
35.00,41.41,0
50.00,41.56,0
35.00,41.71,0
47.00,41.82,0
36.00,41.89,0
49.00,41.94,0
39.00,42.03,0
59.00,42.24,0
36.00,42.60,0
46.00,42.93,0
38.00,43.14,0
42.00,43.22,0
38.00,43.18,0
43.00,43.05,0
37.00,42.86,0
42.00,42.61,0
40.00,42.35,0
39.00,42.08,0
45.00,41.83,0
37.00,41.63,0
46.00,41.46,0
34.00,41.31,0
48.00,41.17,0
36.00,41.08,0
47.00,41.03,0
34.00,40.99,0
51.00,40.97,0
35.00,41.02,0
57.00,41.17,0
38.00,41.48,0
52.00,41.86,0
37.00,42.25,0
49.00,42.60,0
35.00,42.86,0
50.00,43.04,0
36.00,43.16,0
47.00,43.23,0
37.00,43.23,0
46.00,43.18,0
36.00,43.08,0
43.00,42.91,0
41.00,42.71,0
41.00,42.52,0
38.00,42.30,0
41.00,42.03,0
39.00,41.76,0
42.00,41.50,0
43.00,41.31,0
39.00,41.17,0
45.00,41.08,0
36.00,41.02,0
44.00,40.94,0
38.00,40.87,0
47.00,40.85,0
35.00,40.86,0
49.00,40.89,0
35.00,40.95,0
54.00,41.07,0
35.00,41.28,0
50.00,41.51,0
36.00,41.72,0
55.00,41.97,0
35.00,42.27,0
59.00,42.62,0
38.00,43.06,0
49.00,43.48,0
38.00,43.81,0
48.00,44.04,0
36.00,44.16,0
53.00,44.23,0
40.00,44.32,0
48.00,44.42,0
39.00,44.47,0
39.00,44.41,0
38.00,44.17,0
44.00,43.85,0
41.00,43.53,0
35.00,43.18,0
44.00,42.77,0
36.00,42.36,0
42.00,41.95,0
37.00,41.55,0
48.00,41.23,0
33.00,40.99,0
49.00,40.80,0
36.00,40.69,0
50.00,40.68,0
37.00,40.75,0
50.00,40.90,0
35.00,41.08,0
52.00,41.28,0
36.00,41.51,0
51.00,41.77,0
36.00,42.02,0
51.00,42.26,0
37.00,42.49,0
49.00,42.70,0
35.00,42.85,0
50.00,42.94,0
36.00,43.01,0
40.00,42.98,0
43.00,42.85,0
43.00,42.73,0
39.00,42.61,0
42.00,42.47,0
39.00,42.29,0
37.00,42.05,0
44.00,41.78,0
38.00,41.54,0
46.00,41.36,0
38.00,41.24,0
45.00,41.17,0
35.00,41.10,0
51.00,41.06,0
35.00,41.09,0
51.00,41.18,0
34.00,41.30,0
50.00,41.42,0
36.00,41.55,0
51.00,41.71,0
35.00,41.88,0
56.00,42.08,0
35.00,42.35,0
53.00,42.64,0
36.00,42.91,0
48.00,43.12,0
35.00,43.24,0
48.00,43.28,0
35.00,43.24,0
46.00,43.14,0
35.00,42.98,0
49.00,42.80,0
37.00,42.65,0
38.00,42.46,0
38.00,42.16,0
43.00,41.83,0
47.00,41.62,0
35.00,41.50,0
42.00,41.35,0
36.00,41.15,0
44.00,40.95,0
35.00,40.75,0
48.00,40.59,0
35.00,40.50,0
50.00,40.49,0
36.00,40.55,0
53.00,40.70,0
36.00,40.95,0
57.00,41.29,0
36.00,41.72,0
56.00,42.20,0
35.00,42.68,0
57.00,43.15,0
35.00,43.60,0
47.00,43.94,0
36.00,44.11,0
44.00,44.12,0
42.00,44.04,0
44.00,43.95,0
41.00,43.84,0
39.00,43.67,0
39.00,43.40,0
39.00,43.05,0
44.00,42.69,0
36.00,42.35,0
48.00,42.05,0
36.00,41.82,0
46.00,41.63,0
39.00,41.49,0
48.00,41.44,0
30.00,41.39,0
50.00,41.30,0
35.00,41.22,0
56.00,41.25,0
35.00,41.42,0
51.00,41.65,0
30.00,41.82,0
52.00,41.91,0
37.00,42.01,0
47.00,42.13,0
34.00,42.19,0
47.00,42.18,0
36.00,42.13,0
48.00,42.08,0
35.00,42.03,0
41.00,41.92,0
38.00,41.73,0
39.00,41.49,0
44.00,41.26,0
37.00,41.08,0
47.00,40.94,0
36.00,40.87,0
52.00,40.88,0
32.00,40.95,0
50.00,41.03,0
32.00,41.09,0
46.00,41.09,0
34.00,41.04,0
54.00,41.04,0
35.00,41.14,0
53.00,41.32,0
35.00,41.55,0
53.00,41.81,0
38.00,42.10,0
52.00,42.43,0
35.00,42.73,0
50.00,42.98,0
36.00,43.15,0
49.00,43.27,0
37.00,43.35,0
40.00,43.32,0
38.00,43.14,0
37.00,42.84,0
43.00,42.48,0
39.00,42.14,0
42.00,41.84,0
35.00,41.53,0
46.00,41.22,0
36.00,40.98,0
45.00,40.79,0
36.00,40.63,0
50.00,40.55,0
35.00,40.56,0
54.00,40.67,0
36.00,40.88,0
61.00,41.24,0
35.00,41.75,0
57.00,42.31,0
35.00,42.86,0
55.00,43.37,0
35.00,43.80,0
56.00,44.18,0
35.00,44.52,0
50.00,44.75,0
37.00,44.87,0
43.00,44.86,0
41.00,44.72,0
47.00,44.56,0
43.00,44.43,0
39.00,44.29,0
41.00,44.06,0
40.00,43.75,0
45.00,43.45,0
35.00,43.14,0
46.00,42.81,0
34.00,42.48,0
55.00,42.22,0
35.00,42.10,0
55.00,42.11,0
36.00,42.22,0
55.00,42.41,0
37.00,42.67,0
55.00,42.98,0
35.00,43.29,0
58.00,43.61,0
36.00,43.96,0
57.00,44.32,0
35.00,44.65,0
60.00,44.98,0
36.00,45.32,0
49.00,45.57,0
37.00,45.67,0
45.00,45.62,0
35.00,45.41,0
45.00,45.07,0
37.00,44.66,0
40.00,44.19,0
40.00,43.66,0
37.00,43.11,0
45.00,42.58,0
35.00,42.11,0
54.00,41.76,0
35.00,41.59,0
52.00,41.54,0
36.00,41.57,0
54.00,41.69,0
36.00,41.90,0
60.00,42.21,0
35.00,42.62,0
58.00,43.08,0
34.00,43.54,0
55.00,43.94,0
34.00,44.26,0
54.00,44.51,0
35.00,44.69,0
53.00,44.81,0
39.00,44.91,0
55.00,45.03,0
36.00,45.17,0
44.00,45.19,0
36.00,45.04,0
38.00,44.70,0
40.00,44.22,0
39.00,43.69,0
39.00,43.14,0
36.00,42.56,0
49.00,42.04,0
34.00,41.64,0
48.00,41.32,0
36.00,41.08,0
51.00,40.96,0
36.00,40.95,0
54.00,41.06,0
35.00,41.26,0
59.00,41.56,0
35.00,41.97,0
54.00,42.41,0
35.00,42.81,0
55.00,43.18,0
36.00,43.53,0
64.00,43.93,0
36.00,44.44,0
58.00,44.96,0
40.00,45.46,0
49.00,45.88,0
35.00,46.11,0
45.00,46.11,0
36.00,45.92,0
43.00,45.57,0
37.00,45.12,0
50.00,44.66,0
41.00,44.30,0
35.00,43.95,0
46.00,43.52,0
36.00,43.11,0
58.00,42.82,0
34.00,42.73,0
50.00,42.70,0
40.00,42.71,0
51.00,42.80,0
38.00,42.94,0
56.00,43.14,0
38.00,43.42,0
64.00,43.81,0
34.00,44.32,0
58.00,44.81,0
36.00,45.24,0
55.00,45.60,0
39.00,45.89,0
52.00,46.13,0
35.00,46.25,0
48.00,46.22,0
36.00,46.04,0
48.00,45.78,0
36.00,45.45,0
41.00,45.02,0
45.00,44.56,0
36.00,44.11,0
51.00,43.70,0
39.00,43.41,0
48.00,43.22,0
35.00,43.05,0
54.00,42.92,0
36.00,42.88,0
51.00,42.90,0
37.00,42.94,0
52.00,43.01,0
40.00,43.15,0
49.00,43.32,0
36.00,43.45,0
56.00,43.58,0
36.00,43.76,0
54.00,43.95,0
37.00,44.14,0
59.00,44.37,0
35.00,44.65,0
47.00,44.84,0
38.00,44.88,0
45.00,44.82,0
35.00,44.64,0
39.00,44.29,0
41.00,43.83,0
36.00,43.33,0
44.00,42.81,0
37.00,42.33,0
44.00,41.91,0
35.00,41.53,0
46.00,41.18,0
40.00,40.94,0
49.00,40.85,0
34.00,40.85,0
54.00,40.92,0
38.00,41.11,0
53.00,41.40,0
40.00,41.78,0
56.00,42.25,0
36.00,42.76,0
54.00,43.24,0
34.00,43.65,0
58.00,44.00,0
36.00,44.36,0
55.00,44.68,0
35.00,44.95,0
52.00,45.14,0
35.00,45.22,0
45.00,45.17,0
38.00,44.98,0
40.00,44.69,0
38.00,44.27,0
39.00,43.77,0
38.00,43.22,0
36.00,42.62,0
42.00,42.01,0
39.00,41.47,0
49.00,41.09,0
36.00,40.87,0
52.00,40.78,0
35.00,40.82,0
52.00,40.93,0
35.00,41.10,0
62.00,41.40,0
37.00,41.87,0
54.00,42.42,0
38.00,42.95,0
56.00,43.47,0
36.00,43.97,0
56.00,44.41,0
41.00,44.84,0
62.00,45.34,0
35.00,45.87,0
48.00,46.25,0
35.00,46.38,0
49.00,46.32,0
40.00,46.17,0
46.00,45.98,0
34.00,45.68,0
41.00,45.22,0
33.00,44.61,0
41.00,43.89,0
43.00,43.20,0
35.00,42.58,0
50.00,42.05,0
34.00,41.66,0
60.00,41.46,0
36.00,41.51,0
60.00,41.76,0
36.00,42.16,0
57.00,42.63,0
38.00,43.14,0
57.00,43.67,0
37.00,44.19,0
66.00,44.75,0
38.00,45.41,0
57.00,46.06,0
36.00,46.58,0
55.00,46.96,0
40.00,47.23,0
49.00,47.39,0
36.00,47.39,0
45.00,47.19,0
36.00,46.81,0
48.00,46.34,0
41.00,45.88,0
37.00,45.39,0
45.00,44.84,0
38.00,44.30,0
50.00,43.84,0
36.00,43.48,0
52.00,43.21,0
36.00,43.03,0
51.00,42.92,0
39.00,42.87,0
56.00,42.95,0
38.00,43.16,0
64.00,43.51,0
35.00,44.00,0
59.00,44.51,0
41.00,45.03,0
55.00,45.56,0
40.00,46.03,0
56.00,46.44,0
36.00,46.78,0
55.00,47.00,0
35.00,47.11,0
51.00,47.09,0
36.00,46.94,0
54.00,46.74,0
36.00,46.53,0
43.00,46.23,0
40.00,45.82,0
38.00,45.31,0
37.00,44.69,0
40.00,44.00,0
39.00,43.31,0
44.00,42.69,0
51.00,42.28,0
35.00,42.07,0
53.00,41.95,0
35.00,41.94,0
64.00,42.09,0
40.00,42.49,0
57.00,43.06,0
39.00,43.66,0
58.00,44.27,0
37.00,44.86,0
63.00,45.43,0
37.00,46.02,0
58.00,46.56,0
36.00,46.99,0
56.00,47.31,0
36.00,47.50,0
43.00,47.49,0
35.00,47.21,0
50.00,46.78,0
36.00,46.32,0
44.00,45.81,0
36.00,45.23,0
38.00,44.57,0
43.00,43.87,0
37.00,43.23,0
47.00,42.66,0
36.00,42.20,0
50.00,41.85,0
34.00,41.61,0
52.00,41.45,0
39.00,41.43,0
53.00,41.55,0
38.00,41.78,0
58.00,42.12,0
39.00,42.59,0
64.00,43.19,0
35.00,43.88,0
60.00,44.57,0
38.00,45.21,0
66.00,45.88,0
38.00,46.58,0
54.00,47.20,0
36.00,47.61,0
47.00,47.78,0
35.00,47.68,0
44.00,47.37,0
36.00,46.87,0
42.00,46.25,0
41.00,45.58,0
41.00,44.92,0
49.00,44.36,0
36.00,43.92,0
44.00,43.49,0
37.00,43.06,0
45.00,42.65,0
37.00,42.29,0
54.00,42.05,0
36.00,41.97,0
52.00,41.99,0
37.00,42.08,0
60.00,42.30,0
38.00,42.69,0
61.00,43.20,0
38.00,43.80,0
65.00,44.48,0
37.00,45.22,0
57.00,45.91,0
40.00,46.49,0
67.00,47.09,0
35.00,47.71,0
44.00,48.10,0
40.00,48.15,0
41.00,47.96,0
38.00,47.55,0
39.00,46.95,0
40.00,46.23,0
35.00,45.43,0
41.00,44.56,0
44.00,43.76,0
50.00,43.19,0
37.00,42.82,0
56.00,42.61,0
39.00,42.60,0
57.00,42.76,0
46.00,43.12,0
58.00,43.68,0
41.00,44.33,0
61.00,45.03,0
38.00,45.73,0
59.00,46.37,0
35.00,46.90,0
63.00,47.34,0
37.00,47.75,0
54.00,48.06,0
39.00,48.22,0
58.00,48.33,0
35.00,48.38,0
48.00,48.27,0
36.00,47.97,0
42.00,47.50,0
35.00,46.85,0
37.00,46.03,0
38.00,45.11,0
38.00,44.17,0
40.00,43.26,0
34.00,42.40,0
48.00,41.63,0
36.00,41.04,0
49.00,40.64,0
38.00,40.41,0
55.00,40.39,0
36.00,40.57,0
64.00,40.94,0
37.00,41.54,0
60.00,42.25,0
43.00,43.06,0
69.00,44.02,0
36.00,45.10,0
60.00,46.08,0
39.00,46.92,0
60.00,47.65,0
37.00,48.24,0
51.00,48.62,0
38.00,48.77,0
49.00,48.72,0
36.00,48.50,0
46.00,48.10,0
40.00,47.60,0
37.00,46.99,0
37.00,46.22,0
39.00,45.35,0
40.00,44.47,0
41.00,43.65,0
46.00,42.98,0
40.00,42.47,0
48.00,42.13,0
36.00,41.89,0
61.00,41.83,0
38.00,42.01,0
58.00,42.38,0
37.00,42.84,0
64.00,43.39,0
39.00,44.07,0
55.00,44.75,0
37.00,45.33,0
58.00,45.81,0
41.00,46.27,0
54.00,46.69,0
34.00,46.98,0
52.00,47.09,0
35.00,47.04,0
48.00,46.85,0
36.00,46.54,0
39.00,46.07,0
37.00,45.45,0
37.00,44.70,0
42.00,43.93,0
39.00,43.21,0
47.00,42.61,0
37.00,42.16,0
55.00,41.87,0
39.00,41.81,0
50.00,41.89,0
40.00,42.04,0
55.00,42.30,0
38.00,42.65,0
61.00,43.10,0
40.00,43.67,0
64.00,44.35,0
40.00,45.12,0
57.00,45.88,0
40.00,46.54,0
58.00,47.11,0
40.00,47.61,0
72.00,48.15,0
39.00,48.82,0
55.00,49.40,0
38.00,49.76,0
53.00,49.90,0
38.00,49.87,0
68.00,49.83,0
35.00,49.87,0
48.00,49.80,0
42.00,49.52,0
40.00,49.10,0
37.00,48.47,0
37.00,47.64,0
38.00,46.67,0
34.00,45.60,0
51.00,44.58,0
38.00,43.77,0
44.00,43.12,0
37.00,42.55,0
48.00,42.08,0
46.00,41.81,0
62.00,41.89,0
41.00,42.32,0
64.00,42.96,0
40.00,43.75,0
62.00,44.62,0
41.00,45.49,0
70.00,46.42,0
43.00,47.44,0
60.00,48.43,0
40.00,49.27,0
61.00,49.93,0
42.00,50.47,0
67.00,50.96,0
39.00,51.43,0
58.00,51.76,0
36.00,51.88,0
46.00,51.71,0
35.00,51.22,0
53.00,50.54,0
35.00,49.82,0
42.00,48.98,0
42.00,48.05,0
37.00,47.10,0
56.00,46.25,0
36.00,45.60,0
48.00,45.05,0
36.00,44.54,0
54.00,44.11,0
38.00,43.83,0
63.00,43.77,0
36.00,43.93,0
66.00,44.26,0
41.00,44.77,0
62.00,45.41,0
42.00,46.11,0
67.00,46.88,0
43.00,47.73,0
61.00,48.56,0
39.00,49.28,0
77.00,49.97,0
38.00,50.76,0
61.00,51.45,0
38.00,51.91,0
51.00,52.09,0
36.00,51.96,0
53.00,51.60,0
40.00,51.13,0
47.00,50.56,0
36.00,49.87,0
41.00,49.01,0
40.00,48.04,0
35.00,47.01,0
54.00,46.02,0
34.00,45.22,0
50.00,44.53,0
38.00,43.96,0
54.00,43.56,0
45.00,43.39,0
70.00,43.61,0
42.00,44.21,0
63.00,44.99,0
40.00,45.83,0
66.00,46.67,0
40.00,47.52,0
68.00,48.37,0
37.00,49.17,0
66.00,49.87,0
41.00,50.49,0
61.00,51.02,0
40.00,51.42,0
68.00,51.75,0
37.00,52.04,0
45.00,52.10,0
38.00,51.78,0
48.00,51.22,0
36.00,50.50,0
39.00,49.60,0
34.00,48.50,0
37.00,47.25,0
46.00,46.02,0
36.00,44.92,0
42.00,43.92,0
37.00,43.01,0
46.00,42.23,0
38.00,41.63,0
56.00,41.26,0
43.00,41.22,0
72.00,41.60,0
51.00,42.48,0
66.00,43.74,0
44.00,45.12,0
71.00,46.54,0
40.00,47.94,0
66.00,49.22,0
38.00,50.30,0
74.00,51.24,0
46.00,52.18,0
60.00,53.04,0
38.00,53.62,0
58.00,53.90,0
34.00,53.88,0
54.00,53.57,0
34.00,53.01,0
47.00,52.24,0
40.00,51.31,0
40.00,50.29,0
37.00,49.15,0
50.00,48.01,0
38.00,47.00,0
35.00,46.01,0
58.00,45.11,0
42.00,44.53,0
55.00,44.24,0
44.00,44.19,0
51.00,44.29,0
42.00,44.45,0
70.00,44.80,0
41.00,45.43,0
67.00,46.22,0
44.00,47.10,0
68.00,48.06,0
42.00,49.03,0
70.00,49.98,0
71.00,51.15,0
75.00,52.72,0
41.00,54.34,0
62.00,55.58,0
38.00,56.37,0
54.00,56.69,0
36.00,56.56,0
64.00,56.17,0
36.00,55.66,0
42.00,54.91,0
46.00,53.90,0
42.00,52.80,0
42.00,51.64,0
40.00,50.43,0
38.00,49.16,0
40.00,47.86,0
47.00,46.66,0
37.00,45.61,0
54.00,44.76,0
40.00,44.16,0
58.00,43.83,0
46.00,43.81,0
75.00,44.20,0
48.00,45.05,0
57.00,46.10,0
44.00,47.07,0
52.00,47.89,0
40.00,48.47,0
66.00,48.95,0
43.00,49.48,0
78.00,50.14,0
42.00,50.98,0
71.00,51.86,0
38.00,52.64,0
55.00,53.17,0
39.00,53.36,0
52.00,53.26,0
36.00,52.91,0
47.00,52.30,0
36.00,51.47,0
34.00,50.41,0
40.00,49.12,0
35.00,47.75,0
44.00,46.40,0
37.00,45.16,0
56.00,44.17,0
39.00,43.51,0
61.00,43.18,0
42.00,43.19,0
77.00,43.60,0
38.00,44.40,0
64.00,45.33,0
45.00,46.29,0
60.00,47.25,0
48.00,48.18,0
68.00,49.15,0
40.00,50.11,0
68.00,50.97,0
42.00,51.73,0
62.00,52.38,0
44.00,52.87,0
64.00,53.26,0
39.00,53.55,0
52.00,53.60,0
39.00,53.36,0
49.00,52.90,0
39.00,52.25,0
53.00,51.52,0
40.00,50.79,0
36.00,49.95,0
42.00,48.93,0
37.00,47.84,0
44.00,46.75,0
38.00,45.72,0
52.00,44.85,0
40.00,44.21,0
51.00,43.77,0
38.00,43.48,0
69.00,43.45,0
41.00,43.78,0
69.00,44.40,0
42.00,45.23,0
58.00,46.11,0
47.00,46.95,0
85.00,48.00,0
45.00,49.38,0
73.00,50.84,0
47.00,52.24,0
64.00,53.49,0
42.00,54.46,0
68.00,55.18,0
40.00,55.71,0
51.00,55.92,0
36.00,55.69,0
50.00,55.11,0
36.00,54.27,0
46.00,53.23,0
36.00,52.03,0
37.00,50.68,0
45.00,49.25,0
35.00,47.88,0
43.00,46.56,0
41.00,45.36,0
53.00,44.42,0
36.00,43.74,0
56.00,43.28,0
36.00,43.02,0
79.00,43.12,0
50.00,43.78,0
68.00,44.88,0
40.00,46.10,0
75.00,47.34,0
45.00,48.66,0
74.00,50.03,0
43.00,51.37,0
65.00,52.56,0
40.00,53.48,0
61.00,54.11,0
47.00,54.52,0
66.00,54.86,0
39.00,55.11,0
60.00,55.17,0
38.00,55.01,0
40.00,54.53,0
35.00,53.62,0
45.00,52.43,0
35.00,51.13,0
35.00,49.68,0
38.00,48.12,0
36.00,46.56,0
43.00,45.10,0
41.00,43.85,0
48.00,42.87,0
38.00,42.16,0
68.00,41.82,0
44.00,41.98,0
61.00,42.51,0
50.00,43.29,0
64.00,44.32,0
43.00,45.47,0
78.00,46.72,0
49.00,48.18,0
80.00,49.81,0
40.00,51.46,0
69.00,52.91,0
40.00,54.06,0
67.00,54.93,0
43.00,55.57,0
81.00,56.16,0
46.00,56.82,0
53.00,57.31,0
39.00,57.37,0
51.00,57.01,0
36.00,56.32,0
46.00,55.33,0
37.00,54.10,0
38.00,52.69,0
41.00,51.14,0
37.00,49.57,0
42.00,48.04,0
38.00,46.60,0
57.00,45.41,0
41.00,44.60,0
59.00,44.15,0
45.00,44.04,0
71.00,44.31,0
48.00,45.00,0
66.00,45.95,0
46.00,47.03,0
76.00,48.23,0
47.00,49.57,0
80.00,51.02,0
47.00,52.53,0
63.00,53.91,0
47.00,54.98,0
70.00,55.86,0
48.00,56.63,0
60.00,57.20,0
38.00,57.45,0
54.00,57.30,0
36.00,56.81,0
49.00,55.99,0
42.00,54.98,0
41.00,53.82,0
40.00,52.52,0
62.00,51.31,0
43.00,50.40,0
38.00,49.58,0
67.00,48.86,0
37.00,48.42,0
54.00,48.09,0
40.00,47.79,0
59.00,47.57,0
43.00,47.49,0
82.00,47.74,0
50.00,48.48,0
73.00,49.55,0
49.00,50.75,0
70.00,51.98,0
50.00,53.16,0
81.00,54.38,0
48.00,55.66,0
65.00,56.79,0
48.00,57.64,0
64.00,58.24,0
43.00,58.58,0
72.00,58.73,0
47.00,58.84,0
60.00,58.85,0
36.00,58.59,0
50.00,57.96,0
36.00,56.98,0
43.00,55.72,0
35.00,54.21,0
35.00,52.49,0
41.00,50.66,0
36.00,48.85,0
59.00,47.28,0
36.00,46.10,0
50.00,45.18,0
48.00,44.50,0
51.00,44.15,0
47.00,44.05,0
69.00,44.29,0
51.00,44.95,0
66.00,45.93,0
46.00,47.04,0
73.00,48.25,0
51.00,49.58,0
75.00,51.01,0
50.00,52.49,0
63.00,53.85,0
45.00,54.92,0
65.00,55.73,0
40.00,56.27,0
63.00,56.54,0
42.00,56.60,0
58.00,56.46,0
37.00,56.11,0
66.00,55.62,0
37.00,55.11,0
40.00,54.38,0
42.00,53.34,0
46.00,52.19,0
37.00,51.00,0
41.00,49.74,0
45.00,48.49,0
48.00,47.42,0
54.00,46.65,0
42.00,46.16,0
58.00,45.88,0
43.00,45.81,0
72.00,46.04,0
53.00,46.67,0
94.00,47.86,0
50.00,49.59,0
73.00,51.47,0
44.00,53.17,0
78.00,54.69,0
50.00,56.10,0
90.00,57.53,0
46.00,59.00,0
68.00,60.23,0
40.00,61.01,0
60.00,61.31,0
38.00,61.14,0
49.00,60.52,0
34.00,59.45,0
62.00,58.14,0
35.00,56.83,0
40.00,55.37,0
50.00,53.79,0
36.00,52.26,0
38.00,50.70,0
49.00,49.16,0
52.00,47.92,0
41.00,47.00,0
56.00,46.32,0
48.00,45.93,0
78.00,46.02,0
44.00,46.62,0
71.00,47.50,0
46.00,48.51,0
76.00,49.65,0
54.00,50.96,0
87.00,52.51,0
54.00,54.29,0
74.00,56.07,0
49.00,57.64,0
65.00,58.89,0
48.00,59.77,0
94.00,60.56,0
43.00,61.48,0
65.00,62.16,0
47.00,62.45,0
50.00,62.33,0
38.00,61.70,0
43.00,60.58,0
44.00,59.11,0
48.00,57.51,0
44.00,55.92,0
37.00,54.29,0
57.00,52.70,0
38.00,51.32,0
58.00,50.15,0
43.00,49.23,0
64.00,48.62,0
49.00,48.38,0
73.00,48.53,0
52.00,49.08,0
79.00,50.00,0
52.00,51.21,0
74.00,52.56,0
48.00,53.90,0
76.00,55.16,0
54.00,56.40,0
76.00,57.63,0
49.00,58.76,0
75.00,59.74,0
48.00,60.55,0
75.00,61.19,0
39.00,61.62,0
66.00,61.71,0
36.00,61.45,0
38.00,60.68,0
36.00,59.31,0
44.00,57.58,0
36.00,55.69,0
37.00,53.67,0
40.00,51.60,0
40.00,49.62,0
64.00,48.00,0
56.00,47.03,0
68.00,46.76,0
45.00,46.97,0
53.00,47.32,0
52.00,47.70,0
92.00,48.47,0
56.00,49.86,0
72.00,51.56,0
47.00,53.18,0
75.00,54.65,0
55.00,56.04,0
94.00,57.55,0
62.00,59.32,0
75.00,61.13,0
50.00,62.65,0
77.00,63.81,0
47.00,64.66,0
66.00,65.12,0
42.00,65.15,0
61.00,64.75,0
46.00,64.04,0
39.00,62.96,0
36.00,61.39,0
36.00,59.37,0
40.00,57.09,0
36.00,54.72,0
42.00,52.38,0
44.00,50.23,0
51.00,48.43,0
43.00,47.02,0
62.00,46.04,0
58.00,45.64,0
82.00,45.98,0
57.00,47.03,0
67.00,48.45,0
56.00,49.97,0
80.00,51.62,0
47.00,53.35,0
80.00,54.99,0
50.00,56.55,0
101.00,58.19,0
60.00,60.09,0
74.00,61.99,0
42.00,63.45,0
59.00,64.25,0
55.00,64.51,0
60.00,64.46,0
40.00,64.07,0
63.00,63.33,0
35.00,62.33,0
36.00,60.90,0
42.00,59.03,0
37.00,56.96,0
42.00,54.81,0
43.00,52.71,0
60.00,50.93,0
54.00,49.69,0
71.00,49.08,0
51.00,49.02,0
70.00,49.37,0
41.00,49.93,0
72.00,50.55,0
54.00,51.32,0
92.00,52.47,0
56.00,54.03,0
82.00,55.80,0
52.00,57.55,0
69.00,59.08,0
48.00,60.26,0
107.00,61.42,0
54.00,62.87,0
73.00,64.28,0
44.00,65.24,0
82.00,65.82,0
44.00,66.17,0
82.00,66.33,0
36.00,66.27,0
48.00,65.71,0
51.00,64.62,0
47.00,63.29,0
34.00,61.67,0
49.00,59.74,0
42.00,57.74,0
35.00,55.70,0
49.00,53.63,0
50.00,51.80,0
48.00,50.32,0
45.00,49.11,0
76.00,48.34,0
58.00,48.27,0
58.00,48.69,0
72.00,49.44,0
86.00,50.75,0
64.00,52.62,0
86.00,54.77,0
46.00,56.93,0
75.00,58.78,0
65.00,60.39,0
83.00,62.01,0
64.00,63.62,0
76.00,65.12,0
46.00,66.26,0
83.00,67.02,0
43.00,67.48,0
48.00,67.39,0
36.00,66.53,0
54.00,65.12,0
39.00,63.39,0
36.00,61.37,0
41.00,59.06,0
38.00,56.63,0
43.00,54.24,0
47.00,52.04,0
63.00,50.30,0
46.00,49.13,0
72.00,48.49,0
40.00,48.31,0
76.00,48.46,0
61.00,49.06,0
78.00,50.18,0
62.00,51.69,0
74.00,53.41,0
60.00,55.18,0
88.00,57.04,0
55.00,58.97,0
84.00,60.82,0
55.00,62.51,0
69.00,63.91,0
48.00,64.84,0
67.00,65.33,0
47.00,65.43,0
62.00,65.18,0
43.00,64.61,0
50.00,63.67,0
37.00,62.34,0
35.00,60.57,0
57.00,58.58,0
36.00,56.66,0
43.00,54.75,0
47.00,52.88,0
52.00,51.28,0
38.00,49.92,0
80.00,48.96,0
49.00,48.66,0
69.00,48.85,0
48.00,49.33,0
82.00,50.10,0
65.00,51.33,0
104.00,53.17,0
62.00,55.60,0
81.00,58.16,0
65.00,60.57,0
77.00,62.78,0
63.00,64.72,0
74.00,66.34,0
39.00,67.44,0
69.00,67.88,0
46.00,67.80,0
68.00,67.40,0
40.00,66.70,0
54.00,65.62,0
38.00,64.18,0
72.00,62.63,0
37.00,61.19,0
37.00,59.58,0
42.00,57.65,0
46.00,55.66,0
39.00,53.74,0
46.00,51.90,0
48.00,50.27,0
45.00,48.92,0
68.00,47.97,0
47.00,47.55,0
83.00,47.69,0
62.00,48.50,0
83.00,49.91,0
54.00,51.67,0
95.00,53.66,0
76.00,56.05,0
106.00,58.93,0
65.00,62.09,0
83.00,65.08,0
44.00,67.47,0
83.00,69.15,0
54.00,70.32,0
76.00,71.10,0
53.00,71.47,0
58.00,71.38,0
43.00,70.69,0
60.00,69.52,0
39.00,68.01,0
50.00,66.17,0
35.00,64.01,0
36.00,61.54,0
39.00,58.84,0
35.00,56.07,0
64.00,53.54,0
53.00,51.63,0
50.00,50.30,0
50.00,49.30,0
66.00,48.69,0
54.00,48.57,0
72.00,48.90,0
54.00,49.62,0
79.00,50.67,0
69.00,52.11,0
92.00,54.05,0
64.00,56.36,0
88.00,58.80,0
70.00,61.28,0
76.00,63.65,0
47.00,65.57,0
86.00,66.98,0
58.00,68.13,0
103.00,69.26,0
50.00,70.43,0
72.00,71.26,0
44.00,71.50,0
55.00,71.10,0
36.00,70.01,0
51.00,68.35,0
35.00,66.26,0
35.00,63.77,0
41.00,60.98,0
36.00,58.10,0
42.00,55.28,0
43.00,52.65,0
58.00,50.45,0
58.00,48.91,0
65.00,48.10,0
60.00,47.94,0
84.00,48.46,0
64.00,49.69,0
76.00,51.35,0
59.00,53.19,0
87.00,55.15,0
69.00,57.32,0
117.00,59.90,0
61.00,62.89,0
80.00,65.72,0
50.00,67.94,0
73.00,69.48,0
63.00,70.49,0
92.00,71.33,0
47.00,72.05,0
60.00,72.24,0
45.00,71.75,0
56.00,70.71,0
39.00,69.20,0
50.00,67.29,0
36.00,65.05,0
39.00,62.53,0
47.00,59.88,0
36.00,57.28,0
46.00,54.77,0
48.00,52.51,0
47.00,50.62,0
47.00,49.07,0
64.00,47.97,0
56.00,47.45,0
100.00,47.78,0
67.00,49.11,0
75.00,51.06,0
49.00,53.05,0
83.00,54.92,0
66.00,56.85,0
103.00,59.07,0
64.00,61.58,0
84.00,64.05,0
68.00,66.29,0
89.00,68.35,0
57.00,70.17,0
89.00,71.64,0
44.00,72.69,0
62.00,73.06,0
46.00,72.69,0
64.00,71.81,0
38.00,70.52,0
45.00,68.74,0
36.00,66.46,0
37.00,63.80,0
43.00,60.93,0
39.00,58.07,0
48.00,55.38,0
50.00,53.04,0
46.00,51.10,0
46.00,49.50,0
61.00,48.29,0
53.00,47.59,0
70.00,47.46,0
54.00,47.82,0
69.00,48.56,0
74.00,49.72,0
92.00,51.51,0
69.00,53.87,0
82.00,56.47,0
46.00,58.88,0
84.00,60.90,0
66.00,62.74,0
120.00,64.84,0
58.00,67.30,0
86.00,69.60,0
45.00,71.33,0
78.00,72.37,0
45.00,72.81,0
67.00,72.67,0
38.00,71.95,0
43.00,70.57,0
38.00,68.51,0
40.00,66.00,0
35.00,63.18,0
39.00,60.17,0
48.00,57.23,0
37.00,54.52,0
54.00,52.12,0
63.00,50.29,0
55.00,49.18,0
51.00,48.56,0
69.00,48.36,0
48.00,48.56,0
79.00,49.13,0
66.00,50.20,0
95.00,51.87,0
63.00,54.06,0
87.00,56.49,0
68.00,58.99,0
98.00,61.59,0
62.00,64.23,0
89.00,66.68,0
59.00,68.81,0
78.00,70.51,0
51.00,71.67,0
79.00,72.32,0
56.00,72.61,0
62.00,72.52,0
56.00,71.99,0
49.00,71.05,0
44.00,69.61,0
36.00,67.64,0
42.00,65.21,0
37.00,62.51,0
66.00,59.89,0
46.00,57.69,0
58.00,55.90,0
42.00,54.38,0
76.00,53.23,0
52.00,52.63,0
81.00,52.60,0
62.00,53.12,0
78.00,54.10,0
71.00,55.45,0
87.00,57.17,0
67.00,59.17,0
70.00,61.14,0
61.00,62.83,0
105.00,64.49,0
65.00,66.40,0
74.00,68.21,0
56.00,69.56,0
76.00,70.45,0
51.00,70.94,0
81.00,71.10,0
40.00,70.96,0
46.00,70.22,0
47.00,68.81,0
40.00,66.94,0
40.00,64.70,0
43.00,62.20,0
42.00,59.63,0
38.00,57.06,0
57.00,54.68,0
48.00,52.71,0
64.00,51.27,0
52.00,50.37,0
68.00,49.97,0
67.00,50.11,0
107.00,51.12,0
67.00,53.07,0
100.00,55.63,0
62.00,58.45,0
88.00,61.24,0
70.00,63.89,0
87.00,66.38,0
70.00,68.68,0
88.00,70.76,0
64.00,72.57,0
108.00,74.22,0
57.00,75.80,0
74.00,76.95,0
49.00,77.36,0
92.00,77.31,0
42.00,76.98,0
60.00,76.13,0
40.00,74.64,0
48.00,72.60,0
35.00,70.05,0
46.00,67.17,0
36.00,64.10,0
35.00,60.92,0
43.00,57.73,0
60.00,54.88,0
56.00,52.72,0
48.00,51.15,0
65.00,50.06,0
65.00,49.58,0
61.00,49.69,0
60.00,50.18,0
80.00,51.05,0
59.00,52.33,0
87.00,53.93,0
70.00,55.87,0
96.00,58.16,0
55.00,60.60,0
84.00,62.85,0
71.00,64.91,0
93.00,66.96,0
64.00,68.96,0
92.00,70.79,0
52.00,72.31,0
90.00,73.45,0
40.00,74.13,0
81.00,74.27,0
37.00,73.90,0
56.00,72.92,0
46.00,71.38,0
44.00,69.44,0
37.00,67.09,0
53.00,64.49,0
47.00,61.96,0
34.00,59.49,0
48.00,56.99,0
45.00,54.65,0
62.00,52.72,0
49.00,51.32,0
73.00,50.48,0
55.00,50.25,0
85.00,50.63,0
65.00,51.66,0
83.00,53.19,0
80.00,55.16,0
90.00,57.59,0
72.00,60.27,0
97.00,63.06,0
64.00,65.82,0
84.00,68.29,0
58.00,70.31,0
88.00,71.90,0
52.00,73.09,0
86.00,73.88,0
47.00,74.28,0
67.00,74.16,0
40.00,73.44,0
52.00,72.10,0
51.00,70.32,0
45.00,68.27,0
34.00,65.91,0
44.00,63.23,0
40.00,60.44,0
40.00,57.67,0
56.00,55.12,0
40.00,52.95,0
54.00,51.12,0
77.00,49.89,0
76.00,49.66,0
55.00,50.20,0
85.00,51.18,0
63.00,52.62,0
82.00,54.40,0
66.00,56.37,0
99.00,58.59,0
70.00,61.10,0
105.00,63.83,0
75.00,66.73,0
77.00,69.47,0
51.00,71.57,0
98.00,73.08,0
75.00,74.48,0
89.00,75.86,0
57.00,76.97,0
66.00,77.48,0
45.00,77.25,0
56.00,76.25,0
41.00,74.62,0
46.00,72.43,0
36.00,69.78,0
35.00,66.71,0
34.00,63.34,0
39.00,59.85,0
61.00,56.65,0
38.00,54.00,0
60.00,51.82,0
43.00,50.11,0
69.00,48.94,0
68.00,48.49,0
86.00,48.95,0
67.00,50.22,0
67.00,51.90,0
69.00,53.69,0
103.00,55.82,0
77.00,58.50,0
114.00,61.66,0
68.00,65.11,0
88.00,68.38,0
60.00,71.12,0
98.00,73.37,0
56.00,75.24,0
81.00,76.58,0
49.00,77.26,0
92.00,77.47,0
45.00,77.36,0
59.00,76.71,0
46.00,75.41,0
44.00,73.54,0
35.00,71.09,0
49.00,68.22,0
42.00,65.23,0
43.00,62.26,0
72.00,59.59,0
42.00,57.49,0
79.00,55.93,0
51.00,54.98,0
85.00,54.63,0
65.00,54.92,0
100.00,55.93,0
64.00,57.56,0
82.00,59.46,0
57.00,61.29,0
84.00,62.98,0
71.00,64.62,0
104.00,66.46,0
83.00,68.66,0
89.00,71.03,0
61.00,73.15,0
84.00,74.77,0
62.00,75.94,0
94.00,76.82,0
41.00,77.35,0
68.00,77.21,0
54.00,76.46,0
48.00,75.21,0
37.00,73.31,0
44.00,70.82,0
35.00,67.91,0
36.00,64.69,0
38.00,61.30,0
36.00,57.93,0
44.00,54.72,0
47.00,51.88,0
57.00,49.62,0
43.00,47.95,0
58.00,46.77,0
64.00,46.16,0
88.00,46.45,0
67.00,47.69,0
88.00,49.61,0
65.00,51.97,0
94.00,54.63,0
68.00,57.50,0
94.00,60.46,0
70.00,63.41,0
130.00,66.56,0
66.00,70.03,0
78.00,73.16,0
49.00,75.36,0
78.00,76.64,0
52.00,77.20,0
69.00,77.14,0
58.00,76.59,0
50.00,75.59,0
42.00,73.98,0
47.00,71.82,0
35.00,69.21,0
54.00,66.34,0
40.00,63.49,0
46.00,60.70,0
54.00,58.11,0
51.00,55.92,0
84.00,54.38,0
62.00,53.74,0
61.00,53.70,0
65.00,53.95,0
94.00,54.72,0
60.00,56.09,0
107.00,57.93,0
72.00,60.27,0
93.00,62.91,0
65.00,65.50,0
90.00,67.90,0
69.00,70.06,0
88.00,72.01,0
63.00,73.65,0
85.00,74.93,0
54.00,75.81,0
108.00,76.45,0
54.00,77.09,0
71.00,77.40,0
43.00,77.06,0
53.00,75.98,0
39.00,74.19,0
35.00,71.75,0
46.00,68.79,0
38.00,65.64,0
50.00,62.49,0
52.00,59.60,0
61.00,57.21,0
52.00,55.37,0
70.00,54.09,0
57.00,53.38,0
70.00,53.17,0
50.00,53.30,0
93.00,53.81,0
73.00,54.98,0
115.00,56.97,0
49.00,59.51,0
96.00,62.03,0
59.00,64.37,0
86.00,66.51,0
66.00,68.38,0
114.00,70.29,0
68.00,72.41,0
88.00,74.41,0
47.00,75.89,0
75.00,76.62,0
40.00,76.60,0
77.00,75.96,0
39.00,74.89,0
49.00,73.27,0
36.00,71.05,0
41.00,68.35,0
39.00,65.33,0
37.00,62.17,0
40.00,58.98,0
42.00,55.92,0
46.00,53.15,0
58.00,50.87,0
75.00,49.41,0
54.00,48.85,0
77.00,48.96,0
67.00,49.69,0
86.00,51.06,0
76.00,53.03,0
95.00,55.52,0
71.00,58.36,0
92.00,61.32,0
51.00,64.07,0
82.00,66.32,0
60.00,68.11,0
98.00,69.70,0
70.00,71.29,0
97.00,72.92,0
56.00,74.39,0
71.00,75.36,0
66.00,75.79,0
70.00,75.87,0
50.00,75.54,0
49.00,74.60,0
48.00,73.05,0
64.00,71.18,0
43.00,69.21,0
57.00,67.14,0
35.00,64.94,0
39.00,62.49,0
50.00,59.91,0
46.00,57.50,0
65.00,55.48,0
52.00,54.00,0
81.00,53.15,0
54.00,52.95,0
88.00,53.35,0
76.00,54.40,0
87.00,56.12,0
66.00,58.17,0
100.00,60.45,0
72.00,62.97,0
92.00,65.58,0
74.00,68.13,0
127.00,70.84,0
72.00,73.88,0
85.00,76.68,0
64.00,78.81,0
121.00,80.58,0
75.00,82.41,0
72.00,83.91,0
46.00,84.47,0
71.00,84.04,0
59.00,82.98,0
76.00,81.62,0
36.00,79.94,0
36.00,77.54,0
48.00,74.44,0
37.00,71.01,0
38.00,67.39,0
48.00,63.73,0
54.00,60.39,0
50.00,57.56,0
63.00,55.31,0
77.00,53.85,0
71.00,53.35,0
70.00,53.59,0
104.00,54.62,0
81.00,56.56,0
86.00,59.08,0
71.00,61.72,0
106.00,64.45,0
77.00,67.36,0
90.00,70.24,0
72.00,72.83,0
86.00,75.03,0
67.00,76.79,0
92.00,78.17,0
48.00,79.11,0
100.00,79.58,0
47.00,79.75,0
56.00,79.31,0
37.00,77.96,0
52.00,75.87,0
36.00,73.21,0
37.00,70.10,0
58.00,66.82,0
37.00,63.68,0
39.00,60.60,0
47.00,57.60,0
60.00,55.01,0
51.00,53.03,0
61.00,51.61,0
59.00,50.74,0
72.00,50.47,0
60.00,50.79,0
96.00,51.73,0
82.00,53.49,0
109.00,56.12,0
65.00,59.27,0
96.00,62.48,0
71.00,65.57,0
91.00,68.46,0
60.00,70.98,0
102.00,73.14,0
60.00,75.04,0
79.00,76.49,0
62.00,77.38,0
95.00,77.97,0
42.00,78.26,0
71.00,77.96,0
49.00,77.08,0
64.00,75.79,0
35.00,74.06,0
58.00,71.88,0
37.00,69.41,0
36.00,66.62,0
43.00,63.55,0
37.00,60.43,0
42.00,57.37,0
42.00,54.50,0
54.00,52.01,0
47.00,50.02,0
74.00,48.69,0
56.00,48.15,0
76.00,48.31,0
76.00,49.19,0
95.00,50.91,0
50.00,53.15,0
101.00,55.54,0
78.00,58.26,0
96.00,61.32,0
76.00,64.48,0
92.00,67.56,0
65.00,70.36,0
82.00,72.67,0
48.00,74.31,0
79.00,75.23,0
52.00,75.56,0
74.00,75.44,0
40.00,74.84,0
47.00,73.57,0
42.00,71.63,0
43.00,69.22,0
35.00,66.44,0
37.00,63.36,0
42.00,60.18,0
48.00,57.17,0
50.00,54.54,0
45.00,52.34,0
77.00,50.73,0
70.00,50.06,0
81.00,50.36,0
57.00,51.31,0
85.00,52.65,0
65.00,54.34,0
114.00,56.56,0
72.00,59.38,0
85.00,62.40,0
60.00,65.13,0
103.00,67.60,0
59.00,69.92,0
101.00,72.04,0
65.00,73.96,0
74.00,75.50,0
48.00,76.33,0
88.00,76.56,0
47.00,76.45,0
96.00,76.14,0
44.00,75.72,0
45.00,74.79,0
40.00,73.04,0
36.00,70.62,0
36.00,67.67,0
40.00,64.42,0
33.00,61.05,0
40.00,57.68,0
50.00,54.56,0
62.00,52.05,0
53.00,50.31,0
74.00,49.31,0
68.00,49.16,0
71.00,49.73,0
87.00,50.99,0
74.00,52.90,0
93.00,55.31,0
72.00,58.07,0
96.00,61.00,0
55.00,63.84,0
88.00,66.32,0
78.00,68.57,0
108.00,70.92,0
67.00,73.34,0
84.00,75.46,0
53.00,76.95,0
73.00,77.72,0
52.00,77.81,0
74.00,77.38,0
40.00,76.48,0
48.00,74.93,0
44.00,72.76,0
44.00,70.20,0
36.00,67.32,0
43.00,64.22,0
41.00,61.09,0
36.00,58.02,0
57.00,55.18,0
52.00,52.86,0
58.00,51.17,0
64.00,50.10,0
76.00,49.81,0
81.00,50.40,0
89.00,51.87,0
60.00,53.93,0
92.00,56.20,0
74.00,58.68,0
97.00,61.42,0
82.00,64.36,0
106.00,67.50,0
67.00,70.64,0
108.00,73.57,0
69.00,76.27,0
75.00,78.46,0
54.00,79.78,0
78.00,80.30,0
56.00,80.25,0
89.00,79.86,0
46.00,79.24,0
55.00,78.10,0
44.00,76.32,0
54.00,74.07,0
69.00,71.73,0
44.00,69.53,0
40.00,67.19,0
49.00,64.61,0
80.00,62.32,0
50.00,60.65,0
61.00,59.38,0
56.00,58.33,0
69.00,57.60,0
61.00,57.25,0
110.00,57.58,0
80.00,58.90,0
76.00,60.81,0
84.00,62.87,0
104.00,65.23,0
68.00,67.85,0
96.00,70.37,0
73.00,72.71,0
97.00,74.90,0
67.00,76.84,0
112.00,78.61,0
60.00,80.26,0
88.00,81.50,0
58.00,82.18,0
85.00,82.36,0
48.00,82.06,0
60.00,81.10,0
38.00,79.38,0
48.00,76.98,0
35.00,74.00,0
49.00,70.66,0
40.00,67.21,0
37.00,63.74,0
70.00,60.52,0
49.00,57.94,0
66.00,56.00,0
62.00,54.69,0
75.00,54.07,0
88.00,54.30,0
98.00,55.56,0
76.00,57.67,0
94.00,60.21,0
78.00,62.98,0
109.00,65.98,0
49.00,68.93,0
96.00,71.40,0
74.00,73.52,0
94.00,75.49,0
76.00,77.28,0
86.00,78.84,0
58.00,79.94,0
78.00,80.45,0
50.00,80.36,0
69.00,79.67,0
48.00,78.46,0
72.00,76.91,0
39.00,75.09,0
36.00,72.77,0
68.00,70.07,0
39.00,67.45,0
38.00,64.75,0
55.00,61.96,0
54.00,59.47,0
56.00,57.42,0
95.00,56.11,0
82.00,55.98,0
69.00,56.75,0
56.00,57.74,0
89.00,58.81,0
60.00,60.12,0
93.00,61.63,0
97.00,63.57,0
103.00,66.17,0
71.00,69.05,0
101.00,71.81,0
79.00,74.45,0
95.00,76.92,0
73.00,79.09,0
73.00,80.71,0
54.00,81.53,0
88.00,81.68,0
56.00,81.46,0
74.00,80.86,0
41.00,79.77,0
49.00,78.00,0
43.00,75.58,0
38.00,72.68,0
36.00,69.35,0
45.00,65.81,0
36.00,62.28,0
44.00,58.88,0
75.00,55.99,0
53.00,53.98,0
59.00,52.66,0
53.00,51.77,0
66.00,51.28,0
69.00,51.32,0
90.00,52.07,0
68.00,53.54,0
102.00,55.59,0
77.00,58.20,0
96.00,61.16,0
62.00,64.12,0
101.00,66.91,0
81.00,69.67,0
91.00,72.38,0
74.00,74.84,0
95.00,77.00,0
68.00,78.83,0
90.00,80.27,0
52.00,81.19,0
80.00,81.47,0
56.00,81.20,0
66.00,80.45,0
46.00,79.14,0
58.00,77.31,0
50.00,75.11,0
40.00,72.59,0
56.00,69.81,0
38.00,66.96,0
52.00,64.10,0
47.00,61.36,0
62.00,58.97,0
52.00,57.05,0
85.00,55.78,0
84.00,55.52,0
118.00,56.55,0
70.00,58.71,0
87.00,61.26,0
73.00,63.80,0
94.00,66.33,0
57.00,68.68,0
96.00,70.71,0
71.00,72.56,0
93.00,74.31,0
80.00,75.96,0
102.00,77.65,0
63.00,79.23,0
81.00,80.36,0
48.00,80.81,0
56.00,80.40,0
41.00,79.08,0
43.00,76.97,0
35.00,74.14,0
54.00,70.92,0
35.00,67.60,0
54.00,64.31,0
80.00,61.53,0
63.00,59.66,0
67.00,58.54,0
50.00,57.79,0
72.00,57.28,0
66.00,57.15,0
91.00,57.60,0
76.00,58.72,0
80.00,60.30,0
53.00,61.89,0
101.00,63.43,0
96.00,65.41,0
127.00,68.21,0
76.00,71.62,0
113.00,75.07,0
56.00,78.17,0
93.00,80.57,0
60.00,82.22,0
111.00,83.44,0
71.00,84.52,0
78.00,85.29,0
44.00,85.29,0
52.00,84.28,0
45.00,82.31,0
65.00,79.81,0
38.00,77.03,0
39.00,73.86,0
68.00,70.53,0
40.00,67.45,0
51.00,64.52,0
49.00,61.74,0
46.00,59.20,0
55.00,56.93,0
67.00,55.16,0
63.00,54.08,0
77.00,53.70,0
67.00,53.99,0
88.00,54.89,0
82.00,56.46,0
102.00,58.71,0
42.00,61.18,0
100.00,63.40,0
74.00,65.60,0
101.00,67.99,0
77.00,70.48,0
114.00,73.09,0
68.00,75.75,0
87.00,78.05,0
61.00,79.72,0
110.00,80.99,0
62.00,82.11,0
81.00,82.86,0
47.00,82.92,0
49.00,82.08,0
40.00,80.27,0
40.00,77.62,0
45.00,74.42,0
51.00,71.02,0
41.00,67.63,0
42.00,64.27,0
73.00,61.23,0
61.00,58.95,0
65.00,57.43,0
55.00,56.41,0
63.00,55.73,0
73.00,55.48,0
93.00,55.94,0
75.00,57.22,0
93.00,59.06,0
72.00,61.26,0
102.00,63.72,0
94.00,66.54,0
94.00,69.65,0
85.00,72.75,0
93.00,75.65,0
80.00,78.26,0
90.00,80.48,0
65.00,82.20,0
91.00,83.36,0
49.00,83.93,0
66.00,83.70,0
56.00,82.71,0
46.00,81.07,0
54.00,78.81,0
43.00,76.10,0
36.00,72.98,0
50.00,69.56,0
41.00,66.12,0
41.00,62.75,0
60.00,59.63,0
42.00,56.96,0
64.00,54.77,0
55.00,53.15,0
91.00,52.36,0
60.00,52.49,0
107.00,53.48,0
70.00,55.31,0
102.00,57.77,0
71.00,60.58,0
106.00,63.61,0
79.00,66.81,0
94.00,70.00,0
65.00,72.85,0
109.00,75.36,0
70.00,77.70,0
90.00,79.70,0
52.00,81.08,0
97.00,81.85,0
57.00,82.24,0
69.00,82.12,0
62.00,81.44,0
54.00,80.27,0
42.00,78.47,0
36.00,75.95,0
36.00,72.77,0
38.00,69.14,0
37.00,65.33,0
44.00,61.57,0
44.00,58.07,0
41.00,54.92,0
67.00,52.30,0
55.00,50.49,0
64.00,49.44,0
54.00,48.97,0
89.00,49.16,0
78.00,50.24,0
126.00,52.47,0
83.00,55.83,0
90.00,59.69,0
55.00,63.28,0
96.00,66.36,0
76.00,69.18,0
111.00,72.00,0
74.00,74.84,0
83.00,77.34,0
57.00,79.15,0
83.00,80.22,0
57.00,80.69,0
90.00,80.75,0
67.00,80.64,0
68.00,80.31,0
48.00,79.48,0
40.00,77.90,0
40.00,75.51,0
57.00,72.66,0
40.00,69.70,0
38.00,66.58,0
66.00,63.52,0
52.00,60.93,0
38.00,58.66,0
64.00,56.58,0
66.00,55.05,0
78.00,54.33,0
94.00,54.61,0
62.00,55.72,0
93.00,57.30,0
67.00,59.20,0
97.00,61.36,0
78.00,63.78,0
109.00,66.51,0
88.00,69.56,0
90.00,72.68,0
65.00,75.41,0
98.00,77.61,0
67.00,79.43,0
102.00,80.95,0
66.00,82.21,0
76.00,83.01,0
67.00,83.23,0
56.00,82.85,0
35.00,81.59,0
61.00,79.48,0
46.00,76.92,0
38.00,74.00,0
37.00,70.64,0
41.00,67.02,0
70.00,63.61,0
47.00,60.80,0
68.00,58.57,0
55.00,56.92,0
70.00,55.83,0
69.00,55.34,0
96.00,55.66,0
77.00,56.87,0
112.00,58.90,0
71.00,61.57,0
102.00,64.51,0
76.00,67.52,0
98.00,70.49,0
76.00,73.29,0
102.00,75.91,0
67.00,78.25,0
119.00,80.38,0
73.00,82.47,0
80.00,84.18,0
49.00,85.03,0
66.00,84.88,0
47.00,83.85,0
52.00,82.06,0
35.00,79.51,0
43.00,76.31,0
49.00,72.75,0
36.00,69.10,0
42.00,65.39,0
53.00,61.84,0
45.00,58.69,0
58.00,56.01,0
78.00,54.11,0
64.00,53.17,0
79.00,53.05,0
67.00,53.60,0
92.00,54.76,0
75.00,56.54,0
135.00,59.13,0
80.00,62.66,0
100.00,66.53,0
63.00,70.10,0
101.00,73.21,0
72.00,75.93,0
125.00,78.54,0
72.00,81.19,0
88.00,83.46,0
56.00,84.95,0
87.00,85.63,0
62.00,85.73,0
119.00,85.70,0
52.00,85.75,0
62.00,85.30,0
42.00,83.94,0
39.00,81.65,0
36.00,78.49,0
37.00,74.72,0
42.00,70.65,0
45.00,66.59,0
37.00,62.70,0
55.00,59.11,0
73.00,56.24,0
60.00,54.37,0
76.00,53.37,0
71.00,53.18,0
92.00,53.84,0
76.00,55.30,0
96.00,57.38,0
76.00,59.92,0
97.00,62.72,0
69.00,65.57,0
102.00,68.36,0
94.00,71.26,0
98.00,74.31,0
72.00,77.16,0
89.00,79.51,0
69.00,81.30,0
111.00,82.78,0
71.00,84.15,0
77.00,85.14,0
61.00,85.44,0
78.00,85.13,0
49.00,84.28,0
59.00,82.80,0
39.00,80.63,0
41.00,77.78,0
40.00,74.38,0
36.00,70.62,0
52.00,66.78,0
55.00,63.27,0
41.00,60.19,0
60.00,57.49,0
86.00,55.57,0
63.00,54.72,0
86.00,54.74,0
74.00,55.49,0
94.00,56.94,0
64.00,58.86,0
90.00,60.96,0
64.00,63.09,0
120.00,65.41,0
112.00,68.45,0
101.00,72.19,0
65.00,75.77,0
91.00,78.65,0
70.00,80.86,0
99.00,82.59,0
65.00,83.93,0
81.00,84.73,0
48.00,84.82,0
60.00,84.05,0
46.00,82.43,0
63.00,80.26,0
35.00,77.66,0
41.00,74.55,0
39.00,71.01,0
36.00,67.25,0
44.00,63.45,0
47.00,59.88,0
59.00,56.81,0
77.00,54.61,0
78.00,53.53,0
64.00,53.39,0
79.00,53.88,0
68.00,54.87,0
90.00,56.34,0
71.00,58.23,0
96.00,60.45,0
79.00,62.97,0
113.00,65.85,0
50.00,68.79,0
97.00,71.31,0
63.00,73.41,0
60.00,74.92,0
71.00,75.69,0
126.00,76.49,0
65.00,77.77,0
82.00,78.96,0
57.00,79.62,0
69.00,79.68,0
42.00,79.05,0
77.00,77.85,0
69.00,76.56,0
41.00,75.16,0
47.00,73.25,0
37.00,70.79,0
42.00,67.91,0
45.00,64.86,0
54.00,61.93,0
61.00,59.42,0
63.00,57.53,0
52.00,56.16,0
77.00,55.29,0
73.00,55.10,0
84.00,55.68,0
59.00,56.75,0
94.00,58.14,0
80.00,59.98,0
127.00,62.56,0
82.00,65.88,0
105.00,69.50,0
60.00,72.85,0
100.00,75.68,0
76.00,78.10,0
119.00,80.43,0
67.00,82.69,0
84.00,84.46,0
56.00,85.41,0
62.00,85.43,0
43.00,84.46,0
39.00,82.48,0
31.00,79.49,0
36.00,75.73,0
42.00,71.57,0
37.00,67.34,0
41.00,63.20,0
43.00,59.30,0
53.00,55.87,0
53.00,53.08,0
59.00,51.01,0
48.00,49.56,0
89.00,48.83,0
71.00,49.13,0
105.00,50.53,0
57.00,52.71,0
99.00,55.26,0
77.00,58.13,0
103.00,61.33,0
80.00,64.74,0
99.00,68.18,0
76.00,71.47,0
85.00,74.38,0
64.00,76.69,0
84.00,78.37,0
64.00,79.50,0
102.00,80.32,0
52.00,80.94,0
62.00,80.94,0
47.00,80.11,0
49.00,78.53,0
35.00,76.22,0
56.00,73.38,0
38.00,70.32,0
48.00,67.16,0
70.00,64.22,0
66.00,61.97,0
58.00,60.35,0
52.00,59.06,0
68.00,58.03,0
58.00,57.36,0
89.00,57.22,0
77.00,57.80,0
97.00,59.15,0
70.00,61.04,0
86.00,63.13,0
59.00,65.12,0
92.00,66.93,0
79.00,68.75,0
114.00,70.88,0
80.00,73.35,0
98.00,75.89,0
63.00,78.10,0
90.00,79.80,0
62.00,80.97,0
91.00,81.70,0
61.00,82.08,0
115.00,82.36,0
41.00,82.60,0
44.00,82.04,0
34.00,80.26,0
37.00,77.48,0
40.00,74.01,0
51.00,70.32,0
52.00,66.78,0
67.00,63.73,0
78.00,61.48,0
59.00,60.07,0
71.00,59.22,0
69.00,58.85,0
80.00,59.01,0
73.00,59.68,0
99.00,60.91,0
79.00,62.73,0
112.00,65.08,0
60.00,67.73,0
113.00,70.35,0
56.00,72.85,0
91.00,74.95,0
72.00,76.63,0
125.00,78.35,0
63.00,80.25,0
72.00,81.72,0
51.00,82.26,0
71.00,81.98,0
54.00,81.10,0
80.00,79.89,0
57.00,78.57,0
44.00,76.94,0
61.00,74.86,0
38.00,72.50,0
35.00,69.73,0
57.00,66.67,0
49.00,63.78,0
52.00,61.19,0
53.00,58.90,0
74.00,57.13,0
89.00,56.29,0
83.00,56.55,0
76.00,57.61,0
71.00,59.05,0
96.00,60.78,0
76.00,62.90,0
105.00,65.35,0
63.00,67.94,0
88.00,70.30,0
79.00,72.40,0
111.00,74.54,0
61.00,76.70,0
84.00,78.42,0
51.00,79.45,0
92.00,79.90,0
65.00,80.08,0
90.00,80.14,0
56.00,80.03,0
70.00,79.54,0
41.00,78.50,0
43.00,76.72,0
39.00,74.21,0
58.00,71.34,0
38.00,68.38,0
38.00,65.30,0
40.00,62.07,0
52.00,58.96,0
68.00,56.41,0
59.00,54.64,0
68.00,53.58,0
64.00,53.15,0
98.00,53.49,0
59.00,54.62,0
76.00,56.08,0
72.00,57.68,0
70.00,59.39,0
85.00,61.17,0
104.00,63.37,0
70.00,65.93,0
106.00,68.59,0
72.00,71.27,0
96.00,73.81,0
73.00,76.09,0
126.00,78.34,0
80.00,80.82,0
103.00,83.25,0
40.00,85.04,0
62.00,85.60,0
48.00,84.94,0
55.00,83.39,0
36.00,81.04,0
58.00,78.11,0
36.00,74.86,0
37.00,71.30,0
56.00,67.61,0
43.00,64.15,0
37.00,60.89,0
54.00,57.81,0
77.00,55.39,0
64.00,53.97,0
107.00,53.68,0
73.00,54.60,0
92.00,56.35,0
62.00,58.45,0
96.00,60.69,0
74.00,63.11,0
106.00,65.75,0
77.00,68.59,0
88.00,71.36,0
77.00,73.83,0
91.00,76.02,0
72.00,77.91,0
85.00,79.41,0
65.00,80.47,0
121.00,81.39,0
77.00,82.57,0
72.00,83.60,0
52.00,83.88,0
63.00,83.30,0
47.00,81.98,0
42.00,79.90,0
36.00,77.06,0
36.00,73.60,0
35.00,69.72,0
40.00,65.67,0
62.00,61.88,0
48.00,58.71,0
45.00,56.04,0
85.00,54.00,0
62.00,52.95,0
67.00,52.69,0
80.00,53.02,0
78.00,54.06,0
96.00,55.80,0
87.00,58.23,0
118.00,61.37,0
86.00,65.10,0
103.00,69.03,0
94.00,72.93,0
92.00,76.65,0
74.00,79.85,0
96.00,82.42,0
78.00,84.48,0
92.00,86.11,0
48.00,87.06,0
89.00,87.20,0
49.00,86.69,0
95.00,85.77,0
38.00,84.52,0
39.00,82.50,0
51.00,79.62,0
39.00,76.29,0
36.00,72.61,0
53.00,68.76,0
35.00,65.03,0
37.00,61.37,0
60.00,57.95,0
48.00,55.13,0
62.00,52.97,0
71.00,51.60,0
90.00,51.28,0
75.00,52.04,0
101.00,53.72,0
80.00,56.16,0
99.00,59.14,0
68.00,62.31,0
111.00,65.51,0
95.00,68.96,0
119.00,72.77,0
100.00,76.84,0
103.00,80.87,0
61.00,84.30,0
96.00,86.77,0
68.00,88.43,0
107.00,89.57,0
59.00,90.29,0
60.00,90.21,0
50.00,89.05,0
61.00,87.05,0
43.00,84.44,0
61.00,81.37,0
35.00,78.00,0
38.00,74.27,0
48.00,70.29,0
39.00,66.37,0
48.00,62.64,0
49.00,59.25,0
58.00,56.41,0
55.00,54.20,0
110.00,53.02,0
71.00,53.23,0
89.00,54.45,0
54.00,56.09,0
96.00,57.90,0
83.00,60.09,0
112.00,62.85,0
74.00,66.03,0
100.00,69.24,0
78.00,72.30,0
94.00,75.13,0
65.00,77.53,0
94.00,79.42,0
63.00,80.84,0
105.00,81.93,0
53.00,82.75,0
73.00,82.98,0
53.00,82.49,0
56.00,81.33,0
40.00,79.45,0
75.00,77.15,0
37.00,74.72,0
40.00,71.96,0
55.00,68.90,0
36.00,65.84,0
55.00,62.84,0
50.00,60.10,0
56.00,57.78,0
66.00,55.98,0
96.00,55.12,0
66.00,55.31,0
82.00,56.19,0
56.00,57.36,0
82.00,58.64,0
77.00,60.12,0
131.00,62.29,0
89.00,65.44,0
102.00,69.06,0
56.00,72.41,0
98.00,75.14,0
76.00,77.44,0
132.00,79.79,0
77.00,82.38,0
102.00,84.82,0
53.00,86.64,0
75.00,87.50,0
60.00,87.44,0
56.00,86.56,0
61.00,84.97,0
66.00,82.97,0
38.00,80.62,0
47.00,77.73,0
36.00,74.36,0
36.00,70.63,0
54.00,66.80,0
49.00,63.28,0
47.00,60.15,0
50.00,57.39,0
65.00,55.14,0
61.00,53.61,0
104.00,53.07,0
70.00,53.72,0
92.00,55.23,0
68.00,57.21,0
104.00,59.57,0
77.00,62.31,0
100.00,65.29,0
67.00,68.24,0
120.00,71.16,0
76.00,74.19,0
91.00,77.04,0
62.00,79.31,0
91.00,80.93,0
73.00,82.11,0
106.00,83.13,0
66.00,84.05,0
69.00,84.52,0
52.00,84.20,0
68.00,83.17,0
35.00,81.48,0
46.00,79.03,0
38.00,75.92,0
38.00,72.37,0
35.00,68.52,0
52.00,64.65,0
52.00,61.15,0
56.00,58.22,0
76.00,56.05,0
48.00,54.67,0
83.00,53.93,0
69.00,53.92,0
85.00,54.65,0
69.00,55.95,0
98.00,57.74,0
78.00,60.04,0
125.00,62.93,0
84.00,66.45,0
96.00,70.14,0
60.00,73.40,0
92.00,76.00,0
70.00,78.05,0
82.00,79.63,0
72.00,80.73,0
91.00,81.51,0
50.00,81.92,0
86.00,81.82,0
58.00,81.35,0
110.00,80.88,0
39.00,80.47,0
58.00,79.53,0
38.00,77.79,0
37.00,75.31,0
35.00,72.14,0
36.00,68.53,0
43.00,64.76,0
41.00,61.09,0
62.00,57.83,0
45.00,55.18,0
58.00,53.08,0
49.00,51.46,0
88.00,50.55,0
82.00,50.73,0
115.00,52.22,0
82.00,54.88,0
98.00,58.22,0
74.00,61.74,0
101.00,65.25,0
84.00,68.72,0
127.00,72.36,0
81.00,76.20,0
66.00,79.53,0
53.00,81.63,0
97.00,82.75,0
56.00,83.37,0
88.00,83.55,0
66.00,83.38,0
82.00,82.99,0
59.00,82.34,0
68.00,81.34,0
48.00,79.90,0
53.00,77.95,0
51.00,75.59,0
36.00,72.87,0
35.00,69.71,0
37.00,66.19,0
45.00,62.59,0
47.00,59.22,0
55.00,56.31,0
54.00,53.98,0
88.00,52.51,0
61.00,52.06,0
79.00,52.40,0
69.00,53.30,0
72.00,54.61,0
89.00,56.30,0
109.00,58.69,0
83.00,61.79,0
100.00,65.19,0
67.00,68.52,0
89.00,71.45,0
76.00,73.97,0
107.00,76.31,0
68.00,78.53,0
112.00,80.56,0
62.00,82.36,0
69.00,83.53,0
54.00,83.75,0
88.00,83.35,0
52.00,82.62,0
61.00,81.43,0
50.00,79.68,0
42.00,77.40,0
36.00,74.50,0
47.00,71.16,0
34.00,67.63,0
46.00,64.04,0
45.00,60.60,0
55.00,57.57,0
62.00,55.15,0
62.00,53.48,0
77.00,52.62,0
67.00,52.56,0
107.00,53.40,0
74.00,55.19,0
105.00,57.73,0
85.00,60.80,0
100.00,64.22,0
79.00,67.72,0
103.00,71.12,0
80.00,74.38,0
129.00,77.63,0
79.00,80.99,0
96.00,84.02,0
47.00,86.18,0
88.00,87.27,0
54.00,87.50,0
84.00,87.10,0
60.00,86.24,0
56.00,84.89,0
51.00,82.89,0
39.00,80.25,0
36.00,76.95,0
48.00,73.21,0
40.00,69.37,0
62.00,65.73,0
51.00,62.57,0
46.00,59.83,0
61.00,57.46,0
59.00,55.63,0
73.00,54.48,0
69.00,54.07,0
88.00,54.45,0
87.00,55.69,0
94.00,57.73,0
85.00,60.36,0
79.00,63.20,0
60.00,65.77,0
98.00,68.00,0
85.00,70.27,0
103.00,72.73,0
75.00,75.22,0
89.00,77.45,0
61.00,79.19,0
92.00,80.39,0
63.00,81.18,0
95.00,81.69,0
45.00,81.83,0
53.00,81.19,0
36.00,79.57,0
39.00,77.05,0
70.00,74.10,0
36.00,71.19,0
42.00,68.14,0
48.00,64.95,0
59.00,62.01,0
36.00,59.39,0
78.00,57.17,0
65.00,55.72,0
93.00,55.26,0
76.00,55.79,0
97.00,57.18,0
80.00,59.24,0
98.00,61.78,0
70.00,64.53,0
106.00,67.34,0
80.00,70.23,0
103.00,73.17,0
56.00,75.81,0
98.00,77.90,0
80.00,79.65,0
127.00,81.54,0
70.00,83.61,0
78.00,85.28,0
70.00,86.17,0
55.00,86.26,0
51.00,85.37,0
66.00,83.71,0
42.00,81.55,0
49.00,78.86,0
49.00,75.76,0
36.00,72.41,0
42.00,68.82,0
51.00,65.22,0
55.00,61.98,0
47.00,59.18,0
89.00,57.07,0
72.00,56.03,0
80.00,56.00,0
56.00,56.50,0
88.00,57.33,0
79.00,58.65,0
101.00,60.58,0
76.00,63.00,0
123.00,65.87,0
74.00,69.15,0
94.00,72.38,0
82.00,75.28,0
82.00,77.80,0
65.00,79.73,0
100.00,81.13,0
62.00,82.22,0
76.00,82.80,0
56.00,82.74,0
50.00,81.92,0
53.00,80.31,0
53.00,78.17,0
38.00,75.58,0
44.00,72.55,0
36.00,69.19,0
36.00,65.60,0
43.00,61.96,0
51.00,58.56,0
59.00,55.73,0
61.00,53.64,0
64.00,52.31,0
69.00,51.69,0
99.00,52.01,0
74.00,53.36,0
98.00,55.48,0
70.00,58.07,0
96.00,60.88,0
87.00,63.89,0
89.00,67.02,0
87.00,70.11,0
102.00,73.15,0
71.00,76.04,0
93.00,78.51,0
62.00,80.42,0
72.00,81.61,0
70.00,82.09,0
80.00,82.16,0
60.00,81.89,0
52.00,81.06,0
36.00,79.41,0
66.00,77.10,0
43.00,74.53,0
41.00,71.72,0
53.00,68.68,0
49.00,65.71,0
67.00,63.09,0
44.00,60.89,0
59.00,58.97,0
55.00,57.36,0
72.00,56.22,0
61.00,55.65,0
113.00,55.91,0
66.00,57.17,0
118.00,59.24,0
131.00,62.42,0
109.00,66.83,0
98.00,71.65,0
114.00,76.42,0
150.00,81.45,0
186.00,87.54,0
76.00,94.23,0
128.00,100.05,0
171.00,105.32,0
174.00,111.16,0
127.00,117.28,0
139.00,122.74,0
153.00,127.44,0
135.00,131.59,0
108.00,134.79,0
71.00,136.26,0
77.00,135.55,0
167.00,133.78,0
112.00,132.33,0
188.00,131.65,0
107.00,131.70,0
96.00,131.50,0
89.00,130.20,0
92.00,127.92,0
95.00,124.98,0
104.00,121.79,0
89.00,118.58,0
127.00,115.59,0
108.00,113.23,0
88.00,111.26,0
140.00,109.58,0
195.00,109.37,0
162.00,111.34,0
104.00,114.31,0
192.00,117.44,0
94.00,120.76,0
206.00,124.13,0
114.00,127.72,0
138.00,130.96,0
151.00,133.55,0
108.00,135.64,0
89.00,136.49,0
72.00,135.55,0
94.00,133.05,0
106.00,129.76,0
130.00,126.57,0
110.00,123.89,0
86.00,121.36,0
103.00,118.61,0
74.00,115.62,0
95.00,112.39,0
100.00,109.22,0
108.00,106.54,0
110.00,104.50,0
110.00,103.12,0
105.00,102.26,0
190.00,102.44,0
154.00,104.47,0
143.00,107.87,0
166.00,111.91,0
116.00,116.17,0
134.00,119.96,0
150.00,123.29,0
164.00,126.68,0
114.00,129.96,0
161.00,132.73,0
99.00,134.87,0
122.00,136.01,0
174.00,136.65,0
74.00,137.11,0
87.00,136.31,0
130.00,134.30,0
136.00,132.33,0
221.00,131.61,0
96.00,132.29,0
87.00,132.55,0
76.00,131.23,0
99.00,128.69,0
78.00,125.40,0
102.00,121.71,0
87.00,117.94,0
106.00,114.33,0
75.00,110.89,0
125.00,107.77,0
115.00,105.47,0
102.00,104.02,0
185.00,103.64,0
114.00,104.78,0
102.00,106.44,0
129.00,107.88,0
162.00,109.73,0
140.00,112.42,0
162.00,115.76,0
112.00,119.22,0
211.00,122.86,0
122.00,126.98,0
108.00,130.57,0
84.00,132.45,0
142.00,132.96,0
106.00,132.88,0
74.00,131.96,0
155.00,130.29,0
89.00,128.62,0
93.00,126.62,0
86.00,123.90,0
77.00,120.56,0
123.00,117.03,0
62.00,113.66,0
81.00,110.05,0
76.00,106.15,0
126.00,102.64,0
127.00,100.34,0
126.00,99.47,0
91.00,99.41,0
127.00,99.68,0
143.00,100.62,0
170.00,102.84,0
116.00,106.07,0
110.00,109.25,0
171.00,112.25,0
191.00,116.14,0
97.00,120.63,0
152.00,124.50,0
207.00,128.35,0
127.00,132.76,0
100.00,136.35,0
102.00,138.12,0
173.00,138.84,0
94.00,139.28,0
143.00,139.18,0
112.00,138.56,0
86.00,137.26,0
91.00,134.83,0
103.00,131.58,0
85.00,127.92,0
119.00,124.15,0
62.00,120.37,0
120.00,116.51,0
78.00,112.87,0
115.00,109.60,0
130.00,107.11,0
111.00,105.70,0
86.00,104.75,0
104.00,103.76,0
196.00,103.63,0
148.00,105.41,0
159.00,108.68,0
134.00,112.53,0
125.00,116.30,0
144.00,119.69,0
115.00,122.66,0
101.00,124.79,0
166.00,126.28,0
112.00,127.73,0
104.00,128.70,0
149.00,129.06,0
69.00,128.95,0
99.00,127.80,0
136.00,126.03,0
95.00,124.37,0
121.00,122.69,0
73.00,120.74,0
117.00,118.45,0
87.00,116.05,0
92.00,113.55,0
64.00,110.67,0
106.00,107.50,0
84.00,104.52,0
112.00,101.99,0
81.00,99.90,0
111.00,98.20,0
99.00,96.98,0
125.00,96.44,0
206.00,97.45,0
130.00,100.52,0
177.00,104.84,0
111.00,109.58,0
150.00,114.09,0
174.00,118.59,0
174.00,123.63,0
121.00,128.69,0
139.00,132.86,0
122.00,135.95,0
132.00,138.06,0
167.00,139.67,0
127.00,141.18,0
141.00,142.30,0
158.00,143.13,0
79.00,143.46,0
175.00,143.03,0
110.00,142.43,0
166.00,141.90,0
122.00,141.47,0
84.00,140.55,0
81.00,138.23,0
75.00,134.55,0
90.00,129.95,0
93.00,125.03,0
100.00,120.25,0
116.00,116.03,0
99.00,112.55,0
96.00,109.57,0
128.00,107.15,0
118.00,105.66,0
164.00,105.41,0
118.00,106.38,0
121.00,107.92,0
149.00,109.73,0
184.00,112.47,0
141.00,116.26,0
188.00,120.70,0
100.00,125.20,0
100.00,128.50,0
181.00,130.72,0
83.00,132.59,0
149.00,133.73,0
195.00,134.94,0
118.00,136.82,0
145.00,138.49,0
82.00,139.22,0
127.00,138.78,0
95.00,137.43,0
121.00,135.48,0
67.00,132.84,0
88.00,129.27,0
88.00,125.03,0
107.00,120.72,0
103.00,116.81,0
155.00,113.84,0
123.00,112.26,0
175.00,112.13,0
116.00,113.18,0
154.00,114.88,0
102.00,116.72,0
159.00,118.53,0
112.00,120.38,0
92.00,121.73,0
135.00,122.30,0
121.00,122.67,0
134.00,123.13,0
97.00,123.42,0
75.00,122.90,0
93.00,121.24,0
68.00,118.69,0
102.00,115.55,0
64.00,112.12,0
54.00,108.15,0
96.00,103.76,0
47.00,99.43,0
56.00,94.87,0
70.00,90.15,0
65.00,85.75,0
101.00,82.05,0
60.00,79.24,0
96.00,77.10,0
75.00,75.63,0
102.00,74.90,0
69.00,74.74,0
116.00,75.08,0
91.00,76.12,0
134.00,77.96,0
95.00,80.54,0
85.00,83.22,0
77.00,85.34,0
95.00,86.88,0
68.00,87.94,0
94.00,88.53,0
79.00,88.82,0
78.00,88.83,0
50.00,88.26,0
73.00,86.98,0
41.00,85.09,0
46.00,82.48,0
55.00,79.33,0
48.00,75.99,0
54.00,72.62,0
51.00,69.38,0
85.00,66.61,0
46.00,64.52,0
61.00,62.76,0
51.00,61.16,0
94.00,60.05,0
78.00,59.83,0
92.00,60.52,0
75.00,61.83,0
93.00,63.56,0
80.00,65.59,0
110.00,67.96,0
85.00,70.71,0
126.00,73.81,0
92.00,77.27,0
98.00,80.72,0
78.00,83.69,0
99.00,86.10,0
122.00,88.37,0
58.00,90.50,0
90.00,91.83,0
86.00,92.48,0
60.00,92.58,0
114.00,92.23,0
53.00,91.74,0
47.00,90.52,0
50.00,88.24,0
45.00,85.18,0
47.00,81.59,0
64.00,77.83,0
57.00,74.32,0
64.00,71.19,0
66.00,68.54,0
62.00,66.39,0
65.00,64.66,0
82.00,63.48,0
91.00,63.12,0
69.00,63.52,0
97.00,64.41,0
64.00,65.66,0
109.00,67.20,0
80.00,69.15,0
99.00,71.38,0
83.00,73.70,0
113.00,76.15,0
67.00,78.60,0
123.00,80.92,0
119.00,83.59,0
112.00,86.76,0
72.00,89.74,0
70.00,91.71,0
56.00,92.39,0
65.00,91.90,0
54.00,90.44,0
39.00,88.10,0
37.00,84.79,0
46.00,80.79,0
38.00,76.45,0
53.00,72.07,0
49.00,67.95,0
52.00,64.25,0
92.00,61.34,0
105.00,59.94,0
86.00,60.09,0
50.00,60.92,0
80.00,61.74,0
81.00,62.73,0
107.00,64.29,0
86.00,66.49,0
96.00,69.08,0
76.00,71.69,0
115.00,74.30,0
70.00,76.95,0
101.00,79.36,0
92.00,81.57,0
100.00,83.75,0
79.00,85.70,0
88.00,87.21,0
50.00,88.00,0
61.00,87.73,0
52.00,86.49,0
46.00,84.42,0
39.00,81.57,0
70.00,78.31,0
36.00,75.02,0
42.00,71.56,0
58.00,68.03,0
48.00,64.80,0
59.00,61.97,0
64.00,59.67,0
79.00,58.14,0
79.00,57.55,0
106.00,58.03,0
75.00,59.49,0
84.00,61.45,0
80.00,63.58,0
99.00,65.93,0
89.00,68.57,0
119.00,71.58,0
65.00,74.74,0
91.00,77.49,0
70.00,79.63,0
96.00,81.33,0
103.00,82.95,0
88.00,84.66,0
81.00,86.13,0
83.00,87.16,0
79.00,87.75,0
52.00,87.72,0
47.00,86.70,0
60.00,84.76,0
68.00,82.43,0
39.00,79.86,0
40.00,76.81,0
43.00,73.29,0
48.00,69.63,0
47.00,66.08,0
58.00,62.85,0
81.00,60.33,0
76.00,58.88,0
55.00,58.22,0
87.00,58.05,0
78.00,58.54,0
102.00,59.84,0
96.00,61.96,0
82.00,64.65,0
87.00,67.42,0
101.00,70.25,0
76.00,73.10,0
132.00,76.03,0
78.00,79.20,0
93.00,82.13,0
68.00,84.39,0
90.00,85.96,0
96.00,87.15,0
107.00,88.39,0
53.00,89.41,0
83.00,89.67,0
52.00,89.15,0
83.00,88.03,0
42.00,86.41,0
64.00,84.24,0
36.00,81.51,0
140.00,79.02,0
56.00,77.60,0
65.00,76.57,0
63.00,75.32,0
72.00,74.05,0
81.00,73.01,0
95.00,72.54,0
88.00,72.74,0
84.00,73.42,0
90.00,74.37,0
71.00,75.40,0
100.00,76.43,0
83.00,77.62,0
128.00,79.21,0
88.00,81.32,0
100.00,83.58,0
88.00,85.64,0
97.00,87.46,0
85.00,88.99,0
92.00,90.17,0
60.00,90.80,0
82.00,90.71,0
54.00,89.93,0
63.00,88.46,0
52.00,86.35,0
64.00,83.80,0
51.00,80.99,0
58.00,78.03,0
38.00,74.89,0
38.00,71.44,0
63.00,67.92,0
70.00,64.94,0
48.00,62.60,0
59.00,60.61,0
77.00,59.10,0
67.00,58.32,0
83.00,58.22,0
74.00,58.77,0
84.00,59.85,0
80.00,61.35,0
101.00,63.32,0
91.00,65.81,0
102.00,68.70,0
85.00,71.76,0
84.00,74.66,0
86.00,77.20,0
172.00,80.13,0
56.00,83.72,0
94.00,86.81,0
66.00,88.84,0
93.00,90.09,0
77.00,90.78,0
52.00,90.78,0
71.00,89.85,0
46.00,88.15,0
46.00,85.68,0
80.00,82.76,0
41.00,79.85,0
180.00,77.82,0
64.00,77.54,0
64.00,77.85,0
46.00,77.47,0
69.00,76.49,0
56.00,75.19,0
69.00,73.78,0
77.00,72.52,0
82.00,71.68,0
84.00,71.36,0
87.00,71.54,0
92.00,72.21,0
71.00,73.16,0
103.00,74.25,0
84.00,75.60,0
88.00,77.10,0
57.00,78.31,0
85.00,79.01,0
71.00,79.39,0
90.00,79.68,0
70.00,79.91,0
102.00,80.19,0
59.00,80.51,0
75.00,80.52,0
52.00,80.02,0
98.00,79.29,0
43.00,78.51,0
127.00,77.90,0
42.00,77.66,0
79.00,77.30,0
55.00,76.58,0
93.00,75.83,0
47.00,75.14,0
60.00,74.17,0
67.00,72.91,0
68.00,71.71,0
84.00,70.80,0
112.00,70.65,0
96.00,71.53,0
83.00,73.04,0
100.00,74.77,0
84.00,76.64,0
126.00,78.79,0
82.00,81.28,0
144.00,84.06,0
72.00,87.05,0
144.00,90.02,0
69.00,92.85,0
155.00,95.54,0
70.00,98.14,0
104.00,100.17,0
68.00,101.26,0
86.00,101.44,0
51.00,100.60,0
99.00,99.02,0
37.00,96.90,0
118.00,94.49,0
43.00,92.14,0
59.00,89.48,0
54.00,86.27,0
46.00,82.73,0
62.00,79.02,0
50.00,75.40,0
67.00,72.06,0
77.00,69.29,0
82.00,67.41,0
76.00,66.37,0
122.00,66.33,0
68.00,67.32,0
96.00,68.77,0
78.00,70.40,0
95.00,72.18,0
92.00,74.12,0
96.00,76.25,0
67.00,78.25,0
96.00,79.87,0
96.00,81.39,0
84.00,82.94,0
60.00,84.04,0
66.00,84.33,0
105.00,84.22,0
78.00,84.28,0
80.00,84.35,0
58.00,84.07,0
72.00,83.29,0
36.00,81.90,0
43.00,79.68,0
47.00,76.76,0
53.00,73.57,0
44.00,70.34,0
68.00,67.29,0
42.00,64.58,0
62.00,62.16,0
48.00,60.03,0
60.00,58.23,0
66.00,56.88,0
94.00,56.33,0
62.00,56.66,0
86.00,57.55,0
66.00,58.81,0
81.00,60.29,0
88.00,62.03,0
109.00,64.34,0
82.00,67.18,0
136.00,70.50,0
69.00,74.21,0
121.00,77.84,0
64.00,81.12,0
98.00,83.80,0
61.00,85.71,0
93.00,86.92,0
58.00,87.49,0
62.00,87.26,0
44.00,86.07,0
47.00,83.97,0
37.00,81.03,0
58.00,77.60,0
34.00,73.97,0
37.00,70.11,0
59.00,66.24,0
47.00,62.78,0
53.00,59.77,0
45.00,57.15,0
56.00,54.91,0
74.00,53.31,0
81.00,52.68,0
61.00,52.92,0
77.00,53.68,0
52.00,54.68,0
83.00,55.82,0
67.00,57.20,0
125.00,59.17,0
72.00,61.92,0
84.00,64.88,0
66.00,67.52,0
88.00,69.80,0
72.00,71.82,0
107.00,73.79,0
58.00,75.69,0
74.00,77.08,0
69.00,77.86,0
55.00,78.09,0
52.00,77.59,0
53.00,76.39,0
53.00,74.70,0
39.00,72.59,0
60.00,70.16,0
36.00,67.61,0
38.00,64.84,0
50.00,61.93,0
57.00,59.29,0
44.00,57.04,0
74.00,55.25,0
54.00,54.10,0
64.00,53.46,0
47.00,53.11,0
66.00,52.94,0
60.00,53.03,0
75.00,53.51,0
56.00,54.30,0
80.00,55.31,0
54.00,56.49,0
74.00,57.69,0
64.00,58.88,0
96.00,60.31,0
53.00,61.95,0
80.00,63.49,0
43.00,64.67,0
63.00,65.32,0
52.00,65.48,0
76.00,65.44,0
47.00,65.33,0
79.00,65.14,0
39.00,64.86,0
59.00,64.28,0
41.00,63.35,0
40.00,62.05,0
36.00,60.30,0
44.00,58.26,0
43.00,56.16,0
38.00,54.10,0
50.00,52.14,0
46.00,50.45,0
64.00,49.20,0
45.00,48.43,0
59.00,48.01,0
51.00,47.87,0
85.00,48.21,0
54.00,49.15,0
84.00,50.53,0
40.00,52.06,0
74.00,53.48,0
57.00,54.81,0
74.00,56.17,0
59.00,57.53,0
67.00,58.81,0
44.00,59.79,0
70.00,60.41,0
42.00,60.76,0
115.00,61.24,0
46.00,62.20,0
60.00,63.08,0
39.00,63.36,0
37.00,62.93,0
52.00,61.88,0
59.00,60.68,0
41.00,59.52,0
48.00,58.22,0
42.00,56.79,0
37.00,55.23,0
37.00,53.47,0
