176.00,252.76,1
277.00,249.49,1
213.00,246.55,1
252.00,244.06,1
130.00,241.10,1
139.00,236.25,1
342.00,230.94,1
74.00,226.68,1
120.00,220.96,1
112.00,212.81,1
84.00,203.11,1
43.00,191.67,1
126.00,179.10,1
163.00,167.40,1
110.00,157.63,1
153.00,149.42,1
188.00,143.24,1
134.00,139.32,1
60.00,136.00,1
225.00,132.94,1
261.00,132.62,1
46.00,134.56,1
92.00,135.26,1
174.00,134.63,1
37.00,133.65,1
56.00,130.99,1
135.00,126.96,1
232.00,124.33,1
66.00,123.71,1
147.00,123.38,1
65.00,122.55,1
125.00,121.20,1
79.00,119.41,1
220.00,118.28,1
226.00,119.68,1
74.00,122.98,1
338.00,127.32,1
74.00,133.24,1
56.00,137.81,1
264.00,140.43,1
152.00,143.87,1
44.00,146.79,1
140.00,147.27,1
78.00,146.07,1
88.00,143.50,1
62.00,139.38,1
123.00,134.40,1
64.00,129.24,1
471.00,127.04,1
77.00,130.14,1
119.00,134.34,1
60.00,136.18,1
63.00,135.57,1
279.00,134.47,1
105.00,135.21,1
271.00,137.60,1
93.00,140.99,1
142.00,143.85,1
133.00,145.48,1
38.00,145.58,1
176.00,144.02,1
100.00,142.11,1
78.00,139.71,1
110.00,136.28,1
52.00,132.04,1
58.00,126.70,1
105.00,120.69,1
261.00,116.51,1
181.00,116.18,1
123.00,118.28,1
86.00,120.21,1
43.00,120.49,1
107.00,119.00,1
186.00,117.60,1
111.00,117.53,1
122.00,117.98,1
208.00,119.07,1
47.00,120.79,1
37.00,120.90,1
70.00,118.54,1
130.00,115.36,1
80.00,112.51,1
69.00,109.59,1
121.00,106.55,1
104.00,104.15,1
105.00,102.47,1
162.00,101.75,1
45.00,101.76,1
96.00,101.26,1
109.00,100.40,1
82.00,99.70,1
71.00,98.71,1
120.00,97.53,1
44.00,96.35,1
47.00,94.37,1
54.00,91.33,1
99.00,88.10,1
45.00,85.18,1
72.00,82.31,1
206.00,80.67,1
213.00,82.54,1
83.00,87.17,1
93.00,91.71,1
53.00,94.79,1
146.00,96.84,1
72.00,98.64,1
148.00,100.37,1
113.00,102.35,1
130.00,104.63,1
71.00,106.58,1
117.00,107.74,1
144.00,108.78,1
48.00,109.71,1
70.00,109.34,1
44.00,107.35,1
65.00,104.13,1
80.00,100.34,1
120.00,97.00,1
60.00,94.39,1
39.00,91.59,1
100.00,88.40,1
103.00,85.88,1
72.00,84.25,1
72.00,82.86,1
161.00,82.20,1
114.00,83.18,1
74.00,85.00,1
84.00,86.43,1
68.00,87.22,1
45.00,87.13,1
37.00,85.78,1
39.00,83.22,1
52.00,79.89,1
39.00,76.21,1
60.00,72.46,1
102.00,69.38,1
106.00,67.82,1
57.00,67.46,1
128.00,67.83,1
69.00,69.04,1
83.00,70.56,1
78.00,71.97,1
75.00,73.26,1
69.00,74.27,1
37.00,74.64,1
71.00,74.23,1
100.00,73.77,1
65.00,73.75,1
50.00,73.62,1
127.00,73.50,1
98.00,74.30,1
63.00,75.65,1
50.00,76.44,1
81.00,76.53,1
251.00,77.90,1
53.00,81.67,1
46.00,85.17,1
250.00,88.27,1
157.00,93.57,1
41.00,99.51,1
61.00,103.20,1
71.00,104.51,1
101.00,104.55,1
50.00,103.79,1
43.00,101.80,1
61.00,98.53,1
37.00,94.46,1
89.00,90.08,1
44.00,85.92,1
57.00,81.85,1
146.00,78.56,1
34.00,76.64,1
114.00,75.37,1
130.00,75.14,1
146.00,76.79,1
112.00,79.93,1
110.00,83.65,1
60.00,86.95,1
38.00,88.79,1
158.00,89.69,1
54.00,90.78,1
119.00,91.79,1
60.00,92.43,1
132.00,92.93,1
62.00,93.42,1
83.00,93.51,1
84.00,93.07,1
69.00,92.29,1
50.00,90.89,1
100.00,89.05,1
59.00,87.25,1
84.00,85.50,1
40.00,83.54,1
66.00,81.19,1
68.00,78.71,1
199.00,77.54,1
46.00,78.36,1
43.00,79.15,1
62.00,78.74,1
88.00,77.92,1
70.00,77.27,1
43.00,76.46,1
97.00,75.41,1
57.00,74.54,1
115.00,74.11,1
81.00,74.39,1
116.00,75.39,1
43.00,76.60,1
335.00,79.42,1
45.00,85.23,1
46.00,90.73,1
84.00,93.72,1
114.00,95.60,1
90.00,97.19,1
120.00,98.60,1
44.00,99.51,1
56.00,99.08,1
87.00,97.48,1
74.00,95.55,1
125.00,93.90,1
49.00,92.63,1
82.00,91.12,1
58.00,89.19,1
89.00,87.14,1
51.00,85.07,1
101.00,83.10,1
85.00,81.65,1
61.00,80.60,1
48.00,79.24,1
96.00,77.67,1
111.00,76.83,1
70.00,76.86,1
91.00,77.17,1
121.00,77.93,1
57.00,79.16,1
94.00,80.20,1
81.00,81.03,1
47.00,81.48,1
122.00,81.59,1
49.00,81.78,1
75.00,81.66,1
39.00,80.83,1
82.00,79.47,1
68.00,78.04,1
64.00,76.71,1
40.00,75.12,1
89.00,73.34,1
115.00,72.33,1
85.00,72.51,1
58.00,73.09,1
78.00,73.42,1
144.00,74.20,1
54.00,75.81,1
38.00,76.93,1
68.00,76.87,1
76.00,76.35,1
56.00,75.70,1
50.00,74.68,1
77.00,73.35,1
48.00,72.00,1
114.00,70.97,1
64.00,70.64,1
135.00,71.18,1
79.00,72.65,1
79.00,74.44,1
71.00,75.89,1
98.00,77.11,1
42.00,78.05,1
149.00,78.91,1
166.00,81.17,1
36.00,84.48,1
50.00,86.58,1
104.00,87.28,1
115.00,88.01,1
92.00,89.18,1
94.00,90.38,1
127.00,91.66,1
87.00,93.20,1
47.00,94.16,1
98.00,94.09,1
48.00,93.33,1
126.00,92.31,1
84.00,91.66,1
84.00,91.26,1
104.00,90.89,1
78.00,90.65,1
59.00,90.12,1
66.00,88.90,1
92.00,87.36,1
49.00,85.78,1
141.00,84.47,1
42.00,83.78,1
36.00,82.64,1
102.00,80.82,1
70.00,79.33,1
55.00,78.03,1
46.00,76.33,1
41.00,74.06,1
71.00,71.52,1
38.00,69.06,1
46.00,66.49,1
106.00,64.29,1
42.00,62.98,1
46.00,61.85,1
43.00,60.41,1
38.00,58.71,1
219.00,58.28,1
76.00,60.61,1
95.00,64.24,1
68.00,67.63,1
51.00,70.31,1
40.00,71.75,1
51.00,71.99,1
73.00,71.56,1
103.00,71.35,1
162.00,72.47,1
37.00,74.76,1
116.00,76.94,1
85.00,78.98,1
58.00,80.76,1
62.00,81.61,1
48.00,81.45,1
143.00,81.12,1
94.00,81.75,1
41.00,82.59,1
86.00,82.66,1
103.00,82.60,1
98.00,83.04,1
83.00,83.80,1
48.00,84.18,1
72.00,83.76,1
114.00,83.19,1
38.00,82.81,1
123.00,82.37,1
55.00,82.11,1
54.00,81.57,1
39.00,80.11,1
94.00,78.22,1
84.00,76.77,1
74.00,75.91,1
130.00,75.75,1
38.00,76.19,1
55.00,76.17,1
91.00,75.60,1
41.00,74.97,1
76.00,74.07,1
70.00,73.10,1
112.00,72.67,1
61.00,72.88,1
94.00,73.34,1
55.00,73.78,1
78.00,74.01,1
38.00,73.79,1
61.00,72.96,1
105.00,72.10,1
96.00,72.11,1
86.00,72.89,1
44.00,73.66,1
92.00,74.00,1
56.00,74.17,1
111.00,74.44,1
88.00,75.22,1
81.00,76.36,1
147.00,77.99,1
65.00,80.30,1
64.00,82.21,1
138.00,83.68,1
75.00,85.47,1
37.00,86.69,1
57.00,86.45,1
91.00,85.41,1
46.00,84.15,1
55.00,82.37,1
40.00,79.91,1
35.00,76.79,1
111.00,73.71,1
36.00,71.35,1
132.00,69.81,1
83.00,69.49,1
54.00,69.86,1
128.00,70.47,1
61.00,71.67,1
49.00,72.68,1
64.00,72.89,1
46.00,72.47,1
72.00,71.64,1
196.00,71.83,1
80.00,74.14,1
152.00,77.65,1
127.00,81.96,1
100.00,86.74,1
114.00,91.14,1
50.00,94.60,1
156.00,97.16,1
62.00,99.39,1
75.00,100.73,1
38.00,100.46,1
70.00,98.77,1
60.00,96.18,1
47.00,92.97,1
85.00,89.42,1
36.00,85.86,1
126.00,82.65,1
79.00,80.51,1
127.00,79.62,1
56.00,79.53,1
37.00,79.11,1
105.00,78.12,1
139.00,77.97,1
53.00,78.90,1
69.00,79.59,1
47.00,79.45,1
140.00,79.22,1
62.00,79.64,1
75.00,80.13,1
52.00,80.03,1
94.00,79.57,1
64.00,79.10,1
35.00,78.24,1
91.00,76.86,1
89.00,75.80,1
76.00,75.35,1
39.00,74.82,1
40.00,73.55,1
46.00,71.51,1
41.00,69.03,1
54.00,66.36,1
87.00,64.08,1
35.00,62.41,1
52.00,60.81,1
63.00,59.24,1
50.00,57.98,1
136.00,57.59,1
42.00,58.39,1
40.00,59.21,1
45.00,59.26,1
85.00,59.11,1
52.00,59.26,1
56.00,59.43,1
39.00,59.28,1
47.00,58.69,1
98.00,58.21,1
106.00,58.82,1
48.00,60.29,1
51.00,61.51,1
50.00,62.06,1
120.00,62.66,1
44.00,63.82,1
38.00,64.62,1
51.00,64.50,1
39.00,63.75,1
38.00,62.45,1
67.00,60.90,1
111.00,60.07,1
56.00,60.30,1
91.00,61.08,1
80.00,62.28,1
112.00,64.14,1
40.00,66.28,1
172.00,68.71,1
159.00,72.79,1
97.00,78.34,1
40.00,83.22,1
80.00,86.29,1
49.00,87.82,1
51.00,87.99,1
166.00,87.82,1
68.00,88.51,1
58.00,89.09,1
71.00,88.69,1
59.00,87.59,1
64.00,85.94,1
70.00,83.97,1
60.00,81.87,1
38.00,79.45,1
69.00,76.68,1
60.00,73.99,1
59.00,71.54,1
37.00,69.10,1
68.00,66.62,1
283.00,66.31,1
117.00,70.09,1
63.00,75.44,1
74.00,79.62,1
43.00,82.26,1
40.00,83.19,1
93.00,82.93,1
84.00,82.54,1
42.00,82.03,1
60.00,80.80,1
44.00,78.89,1
57.00,76.54,1
138.00,74.66,1
65.00,74.07,1
147.00,74.60,1
64.00,76.04,1
36.00,77.18,1
80.00,77.28,1
82.00,77.10,1
54.00,76.88,1
115.00,76.69,1
103.00,77.21,1
58.00,78.19,1
38.00,78.48,1
63.00,77.73,1
56.00,76.40,1
45.00,74.67,1
67.00,72.65,1
51.00,70.61,1
126.00,69.17,1
58.00,68.77,1
52.00,68.63,1
66.00,68.13,1
56.00,67.48,1
73.00,66.83,1
81.00,66.47,1
45.00,66.31,1
38.00,65.72,1
101.00,64.93,1
35.00,64.46,1
48.00,63.77,1
64.00,62.76,1
75.00,61.98,1
48.00,61.52,1
104.00,61.40,1
48.00,61.79,1
35.00,62.00,1
49.00,61.47,1
106.00,61.02,1
58.00,61.30,1
80.00,61.98,1
39.00,62.58,1
69.00,62.84,1
36.00,62.72,1
65.00,62.26,1
66.00,61.76,1
38.00,61.29,1
58.00,60.55,1
49.00,59.67,1
52.00,58.74,1
111.00,58.27,1
39.00,58.59,1
61.00,58.95,1
90.00,59.36,1
42.00,60.04,1
97.00,60.82,1
61.00,61.85,1
35.00,62.69,1
36.00,62.63,1
56.00,61.87,1
74.00,61.08,1
40.00,60.48,1
75.00,59.92,1
46.00,59.46,1
73.00,59.12,1
59.00,58.99,1
86.00,59.23,1
67.00,59.93,1
115.00,61.25,1
47.00,63.07,1
39.00,64.42,1
42.00,64.70,1
87.00,64.50,1
60.00,64.50,1
53.00,64.52,1
40.00,64.10,1
75.00,63.37,1
39.00,62.62,1
66.00,61.79,1
102.00,61.37,1
113.00,62.20,1
76.00,64.11,1
127.00,66.68,1
75.00,69.78,1
98.00,72.94,1
60.00,75.66,1
40.00,77.35,1
76.00,77.86,1
51.00,77.68,1
54.00,76.89,1
76.00,75.68,1
93.00,74.73,1
41.00,74.04,1
58.00,72.99,1
48.00,71.47,1
80.00,69.89,1
55.00,68.55,1
42.00,67.18,1
69.00,65.64,1
68.00,64.35,1
32.00,63.20,1
68.00,61.88,1
44.00,60.59,1
37.00,59.20,1
41.00,57.51,1
70.00,55.88,1
41.00,54.63,1
90.00,53.88,1
37.00,53.66,1
47.00,53.46,1
99.00,53.45,1
38.00,54.00,1
50.00,54.50,1
66.00,54.76,1
46.00,55.04,1
46.00,55.11,1
41.00,54.82,1
87.00,54.56,1
77.00,54.98,1
117.00,56.45,1
67.00,58.83,1
66.00,61.32,1
50.00,63.24,1
108.00,64.87,1
83.00,66.85,1
38.00,68.72,1
38.00,69.49,1
55.00,69.17,1
34.00,68.15,1
78.00,66.77,1
75.00,65.70,1
227.00,66.48,1
68.00,69.85,1
70.00,73.69,1
42.00,76.23,1
111.00,77.81,1
66.00,79.18,1
63.00,80.12,1
39.00,80.09,1
180.00,80.08,1
47.00,81.10,1
69.00,82.04,1
102.00,82.40,1
103.00,83.07,1
205.00,85.06,1
55.00,88.48,1
93.00,91.53,1
54.00,93.25,1
58.00,93.61,1
53.00,92.64,1
94.00,90.98,1
106.00,89.58,1
54.00,88.53,1
56.00,87.03,1
43.00,84.74,1
82.00,82.05,1
173.00,80.44,1
86.00,80.81,1
42.00,81.62,1
48.00,81.35,1
98.00,80.39,1
51.00,79.45,1
40.00,78.08,1
70.00,76.12,1
50.00,74.01,1
52.00,71.79,1
101.00,69.83,1
58.00,68.62,1
40.00,67.56,1
48.00,66.05,1
55.00,64.29,1
67.00,62.69,1
43.00,61.32,1
78.00,60.16,1
77.00,59.57,1
64.00,59.61,1
41.00,59.69,1
64.00,59.52,1
132.00,59.91,1
64.00,61.47,1
40.00,63.11,1
57.00,63.93,1
75.00,64.33,1
66.00,64.77,1
52.00,65.10,1
80.00,65.27,1
82.00,65.67,1
163.00,67.18,1
76.00,70.11,1
50.00,73.04,1
38.00,74.61,1
39.00,74.70,1
36.00,73.54,1
74.00,71.75,1
56.00,70.00,1
43.00,68.25,1
86.00,66.54,1
37.00,65.13,1
89.00,63.96,1
119.00,63.73,1
76.00,64.77,1
52.00,66.09,1
39.00,66.71,1
52.00,66.48,1
56.00,65.75,1
151.00,65.62,1
36.00,66.61,1
80.00,67.67,1
41.00,68.19,1
103.00,68.52,1
57.00,69.02,1
96.00,69.71,1
142.00,71.16,1
54.00,73.50,1
37.00,75.22,1
71.00,75.67,1
65.00,75.52,1
52.00,75.00,1
92.00,74.28,1
74.00,73.84,1
36.00,73.35,1
46.00,72.13,1
37.00,70.18,1
66.00,67.92,1
45.00,65.72,1
57.00,63.64,1
63.00,61.79,1
70.00,60.43,1
88.00,59.81,1
59.00,59.88,1
55.00,60.12,1
38.00,60.01,1
47.00,59.42,1
45.00,58.46,1
70.00,57.51,1
65.00,56.95,1
140.00,57.46,1
60.00,59.31,1
45.00,61.28,1
51.00,62.40,1
83.00,63.09,1
36.00,63.62,1
57.00,63.67,1
61.00,63.34,1
71.00,63.06,1
54.00,62.88,1
37.00,62.46,1
71.00,61.72,1
84.00,61.28,1
67.00,61.46,1
66.00,61.91,1
92.00,62.61,1
51.00,63.57,1
156.00,65.10,1
52.00,67.53,1
123.00,70.32,1
36.00,72.87,1
59.00,74.50,1
36.00,74.84,1
69.00,74.27,1
41.00,73.16,1
57.00,71.61,1
132.00,70.43,1
46.00,70.25,1
35.00,69.93,1
56.00,68.79,1
66.00,67.41,1
40.00,66.01,1
42.00,64.32,1
72.00,62.53,1
67.00,61.19,1
83.00,60.54,1
42.00,60.32,1
60.00,60.03,1
126.00,60.21,1
107.00,61.83,1
63.00,64.35,1
52.00,66.50,1
42.00,67.65,1
71.00,68.01,1
142.00,68.73,1
38.00,70.27,1
44.00,71.27,1
59.00,71.20,1
55.00,70.58,1
134.00,70.28,1
45.00,70.78,1
91.00,71.43,1
79.00,72.09,1
84.00,72.96,1
66.00,73.79,1
246.00,75.81,1
69.00,80.06,1
49.00,84.22,1
50.00,86.39,1
64.00,86.91,1
56.00,86.35,1
69.00,85.09,1
80.00,83.58,1
62.00,82.07,1
66.00,80.44,1
48.00,78.53,1
66.00,76.36,1
41.00,74.01,1
102.00,71.84,1
88.00,70.58,1
86.00,70.30,1
39.00,70.23,1
84.00,69.91,1
122.00,70.08,1
61.00,71.11,1
90.00,72.31,1
43.00,73.18,1
72.00,73.47,1
60.00,73.30,1
36.00,72.62,1
92.00,71.56,1
78.00,70.85,1
52.00,70.45,1
78.00,69.97,1
74.00,69.62,1
132.00,70.01,1
41.00,71.15,1
43.00,71.78,1
50.00,71.34,1
59.00,70.31,1
165.00,69.95,1
39.00,70.91,1
35.00,71.58,1
66.00,71.18,1
62.00,70.41,1
44.00,69.43,1
84.00,68.32,1
40.00,67.30,1
40.00,65.99,1
39.00,64.11,1
46.00,61.92,1
61.00,59.79,1
40.00,57.92,1
86.00,56.45,1
89.00,55.97,1
71.00,56.54,1
95.00,57.80,1
124.00,60.04,1
64.00,63.14,1
146.00,66.69,1
56.00,70.59,1
87.00,74.07,1
49.00,76.57,1
104.00,78.33,1
79.00,79.85,1
87.00,81.25,1
40.00,82.04,1
69.00,81.87,1
83.00,81.19,1
62.00,80.44,1
74.00,79.53,1
48.00,78.33,1
49.00,76.64,1
39.00,74.33,1
73.00,71.78,1
96.00,69.78,1
34.00,68.44,1
50.00,66.92,1
49.00,65.06,1
103.00,63.56,1
36.00,62.74,1
34.00,61.76,1
58.00,60.32,1
46.00,58.84,1
64.00,57.55,1
75.00,56.72,1
43.00,56.34,1
55.00,55.97,1
40.00,55.43,1
35.00,54.59,1
97.00,53.86,1
63.00,53.94,1
96.00,54.87,1
60.00,56.36,1
34.00,57.71,1
57.00,58.34,1
55.00,58.57,1
49.00,58.59,1
60.00,58.42,1
50.00,58.17,1
137.00,58.52,1
50.00,59.95,1
88.00,61.75,1
41.00,63.28,1
52.00,64.19,1
52.00,64.37,1
60.00,64.17,1
35.00,63.61,1
115.00,63.10,1
93.00,63.59,1
44.00,64.71,1
54.00,65.37,1
48.00,65.36,1
35.00,64.72,1
65.00,63.60,1
39.00,62.33,1
55.00,60.94,1
47.00,59.50,1
49.00,58.06,1
64.00,56.78,1
79.00,56.04,1
58.00,55.96,1
95.00,56.43,1
52.00,57.42,1
46.00,58.29,1
59.00,58.70,1
50.00,58.84,1
74.00,58.93,1
37.00,58.99,1
36.00,58.60,1
64.00,57.80,1
68.00,57.19,1
37.00,56.80,1
80.00,56.46,1
80.00,56.62,1
62.00,57.38,1
67.00,58.31,1
312.00,61.30,1
53.00,67.73,1
81.00,74.53,1
85.00,79.71,1
48.00,83.47,1
128.00,86.11,1
90.00,88.53,1
37.00,90.29,1
126.00,91.03,1
40.00,91.29,1
127.00,91.22,1
224.00,92.46,1
56.00,95.58,1
149.00,98.80,1
85.00,101.60,1
57.00,103.48,1
60.00,103.63,1
37.00,102.06,1
44.00,98.95,1
72.00,94.94,1
50.00,90.71,1
49.00,86.32,1
82.00,82.03,1
37.00,78.12,1
54.00,74.30,1
80.00,70.79,1
38.00,67.88,1
48.00,65.10,1
40.00,62.27,1
66.00,59.66,1
101.00,57.97,1
44.00,57.36,1
48.00,56.95,1
84.00,56.61,1
40.00,56.61,1
42.00,56.43,1
75.00,56.07,1
70.00,56.11,1
36.00,56.36,1
72.00,56.46,1
44.00,56.52,1
80.00,56.68,1
57.00,57.08,1
124.00,58.13,1
75.00,60.15,1
64.00,62.50,1
58.00,64.37,1
72.00,65.74,1
88.00,67.01,1
42.00,68.15,1
59.00,68.67,1
40.00,68.45,1
96.00,67.96,1
47.00,67.64,1
71.00,67.32,1
57.00,66.89,1
90.00,66.62,1
42.00,66.52,1
64.00,66.21,1
42.00,65.53,1
40.00,64.40,1
35.00,62.69,1
49.00,60.63,1
64.00,58.69,1
52.00,57.17,1
56.00,55.98,1
81.00,55.25,1
70.00,55.24,1
55.00,55.69,1
58.00,56.17,1
90.00,56.83,1
97.00,58.23,1
124.00,60.74,1
47.00,63.90,1
108.00,66.88,1
39.00,69.43,1
56.00,71.07,1
86.00,71.92,1
47.00,72.46,1
53.00,72.39,1
60.00,71.70,1
86.00,70.94,1
54.00,70.39,1
76.00,69.87,1
121.00,69.87,1
85.00,70.90,1
45.00,72.12,1
57.00,72.58,1
76.00,72.47,1
48.00,72.11,1
181.00,72.37,1
108.00,74.48,1
64.00,77.45,1
58.00,79.57,1
40.00,80.35,1
44.00,79.78,1
54.00,78.21,1
62.00,76.18,1
40.00,73.92,1
62.00,71.44,1
84.00,69.24,1
66.00,67.73,1
131.00,67.22,1
95.00,68.11,1
46.00,69.58,1
96.00,70.74,1
58.00,71.73,1
48.00,72.25,1
87.00,72.24,1
90.00,72.43,1
62.00,72.90,1
101.00,73.46,1
48.00,74.03,1
50.00,74.05,1
56.00,73.30,1
57.00,72.12,1
50.00,70.66,1
69.00,69.07,1
40.00,67.47,1
92.00,66.02,1
81.00,65.25,1
36.00,64.90,1
53.00,64.20,1
54.00,63.15,1
75.00,62.21,1
70.00,61.71,1
72.00,61.67,1
115.00,62.33,1
99.00,64.11,1
122.00,66.94,1
37.00,70.02,1
64.00,72.19,1
69.00,73.38,1
67.00,74.07,1
54.00,74.27,1
122.00,74.42,1
48.00,74.93,1
43.00,74.99,1
45.00,74.04,1
71.00,72.54,1
58.00,71.03,1
93.00,69.85,1
41.00,69.00,1
80.00,68.18,1
66.00,67.51,1
78.00,67.17,1
36.00,66.82,1
96.00,66.37,1
58.00,66.21,1
69.00,66.22,1
100.00,66.48,1
50.00,67.13,1
157.00,68.36,1
74.00,70.66,1
136.00,73.73,1
57.00,76.97,1
50.00,79.36,1
53.00,80.28,1
84.00,80.29,1
37.00,79.77,1
67.00,78.59,1
83.00,77.20,1
60.00,76.00,1
75.00,74.88,1
54.00,73.73,1
195.00,73.55,1
106.00,75.55,1
122.00,78.96,1
54.00,82.29,1
38.00,84.31,1
125.00,85.14,1
102.00,86.19,1
70.00,87.44,1
53.00,87.92,1
39.00,87.15,1
86.00,85.48,1
38.00,83.43,1
209.00,82.18,1
98.00,83.09,1
49.00,84.80,1
44.00,85.27,1
53.00,84.38,1
134.00,83.27,1
248.00,84.38,1
92.00,88.39,1
85.00,92.79,1
38.00,95.53,1
53.00,96.22,1
82.00,95.43,1
98.00,94.27,1
61.00,93.08,1
54.00,91.36,1
87.00,89.13,1
102.00,87.22,1
255.00,87.42,1
62.00,90.29,1
70.00,93.20,1
67.00,94.54,1
43.00,94.46,1
77.00,93.18,1
98.00,91.55,1
251.00,91.65,1
56.00,94.13,1
55.00,96.37,1
162.00,97.57,1
139.00,99.56,1
188.00,102.97,1
110.00,107.35,1
78.00,111.15,1
185.00,114.09,1
71.00,116.84,1
44.00,118.14,1
220.00,118.35,1
100.00,119.42,1
125.00,120.80,1
41.00,121.07,1
60.00,119.45,1
83.00,116.27,1
38.00,112.19,1
61.00,107.18,1
53.00,101.58,1
74.00,95.95,1
46.00,90.54,1
97.00,85.60,1
74.00,81.62,1
47.00,78.31,1
67.00,75.15,1
45.00,72.13,1
118.00,69.72,1
151.00,69.16,1
57.00,70.41,1
90.00,71.98,1
91.00,73.50,1
41.00,74.81,1
150.00,76.00,1
58.00,77.70,1
49.00,79.03,1
108.00,79.60,1
65.00,80.14,1
75.00,80.48,1
146.00,81.06,1
122.00,82.89,1
106.00,85.64,1
106.00,88.54,1
69.00,91.02,1
76.00,92.54,1
87.00,93.17,1
72.00,93.22,1
94.00,92.87,1
130.00,92.75,1
95.00,93.31,1
68.00,93.86,1
142.00,94.26,1
56.00,94.82,1
36.00,94.50,1
40.00,92.51,1
63.00,89.40,1
37.00,85.75,1
65.00,81.81,1
118.00,78.47,1
104.00,76.68,1
91.00,76.24,1
77.00,76.39,1
46.00,76.38,1
45.00,75.62,1
38.00,73.98,1
48.00,71.69,1
83.00,69.37,1
57.00,67.56,1
45.00,65.95,1
39.00,64.08,1
39.00,61.88,1
69.00,59.69,1
38.00,57.84,1
166.00,57.09,1
189.00,59.26,1
202.00,65.13,1
80.00,73.02,1
66.00,80.14,1
206.00,86.36,1
84.00,92.88,1
93.00,98.62,1
67.00,102.49,1
144.00,105.10,1
106.00,107.42,1
121.00,109.58,1
56.00,110.93,1
96.00,110.99,1
245.00,111.44,1
85.00,113.67,1
77.00,115.67,1
48.00,115.73,1
46.00,113.74,1
53.00,110.02,1
46.00,105.18,1
98.00,100.02,1
43.00,95.15,1
51.00,90.24,1
184.00,86.24,1
275.00,86.11,1
72.00,89.86,1
68.00,93.76,1
42.00,95.67,1
190.00,96.78,1
62.00,98.43,1
101.00,99.85,1
48.00,100.21,1
76.00,99.43,1
158.00,98.51,1
68.00,98.36,1
210.00,99.16,1
56.00,101.01,1
78.00,102.39,1
100.00,102.63,1
62.00,102.22,1
153.00,101.65,1
329.00,103.61,1
86.00,109.14,1
211.00,115.65,1
129.00,122.04,1
50.00,127.15,1
35.00,128.96,1
66.00,127.59,1
78.00,124.31,1
50.00,119.94,1
155.00,115.41,1
99.00,111.95,1
80.00,109.20,1
224.00,107.50,1
69.00,107.62,1
96.00,107.94,1
43.00,107.12,1
155.00,105.73,1
80.00,104.76,1
40.00,103.49,1
64.00,100.93,1
154.00,98.31,1
157.00,97.45,1
70.00,98.01,1
38.00,97.96,1
37.00,96.20,1
81.00,93.26,1
79.00,90.23,1
69.00,87.50,1
72.00,84.91,1
46.00,82.28,1
214.00,80.69,1
162.00,82.07,1
71.00,85.47,1
90.00,88.49,1
60.00,90.42,1
133.00,91.73,1
114.00,93.32,1
45.00,94.81,1
213.00,96.25,1
88.00,98.80,1
37.00,100.99,1
41.00,101.00,1
199.00,100.29,1
77.00,100.70,1
137.00,101.73,1
53.00,102.49,1
40.00,102.02,1
65.00,99.92,1
96.00,97.20,1
68.00,94.61,1
64.00,91.96,1
253.00,90.63,1
106.00,92.24,1
49.00,94.67,1
35.00,95.33,1
75.00,94.28,1
39.00,92.21,1
222.00,90.70,1
115.00,91.49,1
57.00,93.28,1
158.00,94.75,1
37.00,96.12,1
43.00,96.26,1
63.00,94.71,1
120.00,92.78,1
116.00,91.72,1
40.00,91.11,1
38.00,89.56,1
86.00,87.08,1
144.00,85.25,1
180.00,85.64,1
47.00,87.67,1
88.00,89.30,1
50.00,89.84,1
64.00,89.35,1
206.00,89.20,1
62.00,90.61,1
55.00,91.87,1
116.00,92.16,1
106.00,92.58,1
53.00,92.99,1
265.00,94.18,1
53.00,97.23,1
237.00,101.38,1
92.00,106.31,1
218.00,111.82,1
106.00,117.56,1
124.00,122.62,1
130.00,126.41,1
36.00,128.57,1
81.00,128.29,1
110.00,126.38,1
48.00,123.62,1
86.00,119.84,1
317.00,117.45,1
60.00,118.25,1
216.00,120.33,1
157.00,123.31,1
55.00,126.33,1
52.00,127.06,1
149.00,125.97,1
44.00,124.22,1
84.00,121.41,1
127.00,118.08,1
42.00,114.78,1
142.00,111.38,1
92.00,108.58,1
100.00,106.38,1
103.00,104.46,1
60.00,102.57,1
192.00,101.17,1
35.00,100.72,1
36.00,99.51,1
101.00,97.03,1
84.00,94.59,1
92.00,92.60,1
118.00,91.22,1
38.00,90.17,1
41.00,88.33,1
62.00,85.50,1
71.00,82.48,1
137.00,80.28,1
71.00,79.40,1
127.00,79.46,1
54.00,80.01,1
169.00,81.14,1
41.00,82.89,1
49.00,83.97,1
45.00,83.52,1
73.00,82.16,1
93.00,80.76,1
210.00,80.92,1
88.00,83.34,1
102.00,86.46,1
186.00,89.93,1
57.00,93.99,1
37.00,96.75,1
48.00,97.10,1
91.00,96.01,1
40.00,94.23,1
129.00,92.24,1
51.00,90.56,1
54.00,88.65,1
116.00,86.53,1
50.00,84.83,1
44.00,82.89,1
60.00,80.29,1
53.00,77.46,1
58.00,74.60,1
174.00,72.78,1
154.00,73.63,1
56.00,76.29,1
82.00,78.67,1
45.00,80.07,1
192.00,81.50,1
181.00,84.93,1
156.00,90.62,1
44.00,96.40,1
61.00,100.11,1
38.00,101.30,1
256.00,102.10,1
36.00,104.18,1
84.00,105.73,1
71.00,105.67,1
131.00,105.07,1
127.00,104.95,1
75.00,105.19,1
139.00,105.34,1
110.00,105.79,1
87.00,106.33,1
103.00,106.42,1
89.00,106.12,1
66.00,105.26,1
67.00,103.50,1
128.00,101.45,1
96.00,100.00,1
118.00,99.23,1
257.00,100.21,1
99.00,103.71,1
98.00,107.51,1
52.00,109.72,1
86.00,110.14,1
50.00,109.07,1
57.00,106.64,1
40.00,102.95,1
54.00,98.30,1
101.00,93.57,1
54.00,89.45,1
62.00,85.60,1
160.00,82.64,1
85.00,81.53,1
144.00,81.92,1
44.00,82.96,1
59.00,83.41,1
117.00,83.30,1
89.00,83.63,1
214.00,85.31,1
48.00,88.46,1
71.00,91.07,1
104.00,92.48,1
71.00,93.38,1
53.00,93.44,1
43.00,92.21,1
127.00,90.43,1
64.00,89.07,1
136.00,88.33,1
50.00,88.03,1
71.00,87.43,1
41.00,86.01,1
69.00,83.90,1
44.00,81.38,1
231.00,79.98,1
37.00,80.78,1
72.00,81.82,1
98.00,82.21,1
61.00,82.51,1
178.00,83.29,1
36.00,84.88,1
199.00,87.00,1
62.00,89.85,1
52.00,92.14,1
110.00,93.12,1
55.00,93.48,1
111.00,93.39,1
51.00,92.95,1
128.00,92.36,1
113.00,92.33,1
113.00,93.13,1
180.00,94.95,1
59.00,97.58,1
54.00,99.26,1
34.00,98.90,1
54.00,96.82,1
43.00,93.54,1
88.00,89.84,1
37.00,86.18,1
151.00,83.13,1
56.00,81.33,1
37.00,79.76,1
181.00,78.49,1
187.00,79.81,1
70.00,83.33,1
142.00,87.14,1
93.00,90.85,1
47.00,93.77,1
72.00,95.03,1
111.00,95.33,1
76.00,95.46,1
62.00,95.09,1
40.00,93.64,1
61.00,91.12,1
48.00,87.92,1
40.00,84.21,1
67.00,80.21,1
178.00,77.43,1
54.00,76.71,1
51.00,76.41,1
67.00,75.49,1
41.00,74.17,1
145.00,73.14,1
132.00,73.78,1
297.00,77.63,1
127.00,85.09,1
68.00,93.08,1
62.00,98.74,1
87.00,102.07,1
54.00,103.63,1
41.00,103.33,1
169.00,102.19,1
95.00,101.88,1
65.00,101.77,1
37.00,100.47,1
131.00,98.39,1
81.00,96.70,1
47.00,95.02,1
86.00,92.76,1
94.00,90.56,1
147.00,89.39,1
169.00,90.14,1
127.00,92.77,1
36.00,95.50,1
143.00,97.23,1
49.00,98.40,1
86.00,98.73,1
43.00,97.88,1
56.00,95.88,1
45.00,92.83,1
65.00,89.18,1
75.00,85.52,1
106.00,82.56,1
64.00,80.50,1
113.00,79.13,1
55.00,78.33,1
82.00,77.66,1
38.00,76.70,1
44.00,75.10,1
37.00,72.74,1
65.00,70.05,1
75.00,67.70,1
99.00,66.27,1
104.00,66.11,1
46.00,66.72,1
99.00,67.42,1
109.00,68.65,1
75.00,70.55,1
85.00,72.50,1
143.00,74.80,1
68.00,77.70,1
64.00,80.17,1
64.00,81.54,1
155.00,82.76,1
43.00,84.40,1
42.00,85.19,1
92.00,84.78,1
35.00,83.82,1
50.00,82.07,1
41.00,79.48,1
109.00,76.87,1
40.00,74.82,1
38.00,72.67,1
63.00,70.10,1
94.00,67.97,1
46.00,66.56,1
47.00,65.21,1
108.00,64.08,1
168.00,64.68,1
38.00,67.00,1
42.00,68.91,1
60.00,69.58,1
38.00,69.44,1
121.00,69.15,1
57.00,69.43,1
80.00,69.96,1
43.00,70.20,1
52.00,69.86,1
39.00,68.83,1
133.00,67.95,1
209.00,69.27,1
80.00,73.19,1
48.00,77.21,1
77.00,79.80,1
201.00,82.46,1
98.00,86.54,1
159.00,91.39,1
92.00,96.26,1
58.00,100.09,1
44.00,101.77,1
66.00,101.43,1
67.00,99.83,1
111.00,97.88,1
136.00,96.67,1
146.00,96.93,1
131.00,98.56,1
98.00,100.73,1
56.00,102.20,1
40.00,101.99,1
54.00,100.02,1
122.00,97.44,1
44.00,95.09,1
44.00,92.26,1
51.00,88.56,1
111.00,84.94,1
170.00,83.05,1
37.00,82.89,1
111.00,82.96,1
93.00,83.18,1
93.00,83.82,1
54.00,84.29,1
35.00,83.81,1
109.00,82.59,1
42.00,81.37,1
42.00,79.69,1
68.00,77.38,1
38.00,74.85,1
41.00,71.97,1
108.00,69.30,1
66.00,67.64,1
43.00,66.49,1
92.00,65.44,1
57.00,64.82,1
40.00,64.24,1
91.00,63.56,1
71.00,63.37,1
74.00,63.67,1
62.00,64.12,1
50.00,64.39,1
78.00,64.44,1
107.00,64.95,1
49.00,66.01,1
54.00,66.77,1
149.00,67.68,1
87.00,69.76,1
59.00,72.20,1
192.00,74.95,1
72.00,78.82,1
65.00,82.48,1
62.00,84.71,1
49.00,85.57,1
115.00,85.67,1
53.00,85.65,1
61.00,85.13,1
79.00,84.03,1
66.00,82.77,1
133.00,81.92,1
45.00,81.68,1
106.00,81.52,1
50.00,81.24,1
131.00,81.13,1
104.00,81.79,1
54.00,82.85,1
50.00,83.07,1
53.00,82.20,1
52.00,80.54,1
61.00,78.41,1
71.00,76.22,1
55.00,74.17,1
36.00,71.95,1
142.00,70.11,1
44.00,69.41,1
114.00,69.43,1
61.00,69.91,1
82.00,70.59,1
90.00,71.38,1
72.00,72.38,1
90.00,73.43,1
53.00,74.31,1
82.00,74.83,1
86.00,75.25,1
94.00,75.96,1
56.00,76.71,1
120.00,77.45,1
76.00,78.52,1
39.00,79.31,1
102.00,79.39,1
151.00,80.09,1
63.00,81.85,1
82.00,83.45,1
46.00,84.16,1
82.00,84.02,1
78.00,83.51,1
146.00,83.55,1
41.00,84.21,1
91.00,84.57,1
165.00,85.26,1
65.00,86.99,1
251.00,89.95,1
35.00,94.21,1
54.00,97.43,1
117.00,98.80,1
73.00,99.55,1
73.00,99.61,1
132.00,99.26,1
158.00,99.81,1
63.00,101.15,1
35.00,101.45,1
64.00,99.97,1
126.00,97.93,1
109.00,96.65,1
155.00,96.62,1
90.00,97.61,1
66.00,98.45,1
54.00,98.12,1
56.00,96.54,1
39.00,93.83,1
46.00,90.14,1
76.00,86.07,1
40.00,82.09,1
43.00,78.00,1
37.00,73.65,1
57.00,69.35,1
98.00,65.85,1
120.00,64.10,1
77.00,64.08,1
117.00,65.19,1
73.00,67.05,1
169.00,69.83,1
62.00,73.56,1
212.00,78.15,1
42.00,83.42,1
74.00,87.72,1
78.00,90.30,1
39.00,91.49,1
36.00,90.93,1
51.00,88.82,1
48.00,85.82,1
107.00,82.80,1
39.00,80.25,1
89.00,77.92,1
60.00,75.87,1
127.00,74.59,1
54.00,74.19,1
55.00,73.83,1
90.00,73.21,1
106.00,73.14,1
111.00,74.08,1
89.00,75.80,1
51.00,77.41,1
73.00,78.26,1
50.00,78.36,1
80.00,77.93,1
40.00,77.10,1
72.00,75.83,1
39.00,74.20,1
40.00,72.08,1
44.00,69.42,1
168.00,67.56,1
46.00,67.44,1
222.00,69.13,1
156.00,73.43,1
99.00,79.54,1
59.00,84.96,1
125.00,89.10,1
69.00,92.42,1
65.00,94.60,1
106.00,95.65,1
37.00,95.87,1
94.00,95.12,1
54.00,93.71,1
56.00,91.66,1
100.00,89.27,1
73.00,87.22,1
40.00,85.14,1
124.00,83.03,1
94.00,81.85,1
71.00,81.41,1
80.00,81.00,1
104.00,80.78,1
115.00,81.28,1
102.00,82.59,1
116.00,84.45,1
61.00,86.34,1
75.00,87.50,1
35.00,87.52,1
54.00,86.28,1
117.00,84.63,1
47.00,83.35,1
100.00,82.20,1
42.00,80.98,1
196.00,80.52,1
84.00,81.78,1
106.00,83.92,1
64.00,85.74,1
44.00,86.59,1
90.00,86.37,1
97.00,85.99,1
84.00,85.91,1
140.00,86.35,1
67.00,87.40,1
136.00,88.70,1
48.00,89.96,1
38.00,90.16,1
90.00,89.10,1
100.00,87.97,1
56.00,87.07,1
99.00,86.07,1
131.00,85.65,1
118.00,86.49,1
56.00,87.77,1
84.00,88.43,1
82.00,88.53,1
58.00,88.21,1
60.00,87.18,1
55.00,85.43,1
57.00,83.15,1
37.00,80.37,1
39.00,77.00,1
71.00,73.43,1
36.00,70.08,1
103.00,67.26,1
68.00,65.45,1
35.00,64.19,1
53.00,62.68,1
72.00,61.22,1
53.00,60.16,1
52.00,59.26,1
36.00,58.21,1
84.00,57.21,1
53.00,56.68,1
117.00,56.95,1
93.00,58.41,1
184.00,61.63,1
48.00,66.28,1
80.00,70.59,1
56.00,73.72,1
118.00,76.22,1
43.00,78.36,1
88.00,79.82,1
88.00,80.81,1
82.00,81.76,1
112.00,82.79,1
62.00,83.87,1
137.00,85.01,1
104.00,86.71,1
88.00,88.71,1
82.00,90.28,1
104.00,91.44,1
56.00,92.15,1
52.00,91.85,1
44.00,90.27,1
71.00,87.83,1
57.00,85.07,1
38.00,82.01,1
82.00,78.74,1
149.00,76.56,1
195.00,77.17,1
73.00,80.16,1
59.00,83.09,1
71.00,84.72,1
111.00,85.74,1
53.00,86.53,1
142.00,87.24,1
39.00,88.01,1
88.00,88.23,1
93.00,88.01,1
74.00,87.81,1
67.00,87.31,1
60.00,86.24,1
76.00,84.75,1
62.00,83.08,1
110.00,81.63,1
104.00,81.03,1
62.00,81.04,1
52.00,80.68,1
128.00,80.16,1
76.00,80.30,1
43.00,80.41,1
160.00,80.50,1
58.00,81.40,1
78.00,82.31,1
48.00,82.44,1
98.00,82.06,1
198.00,82.72,1
98.00,85.42,1
52.00,88.34,1
61.00,89.81,1
93.00,90.15,1
53.00,89.91,1
88.00,89.13,1
52.00,87.91,1
87.00,86.38,1
112.00,85.15,1
86.00,84.69,1
202.00,85.57,1
106.00,88.33,1
45.00,91.31,1
93.00,92.94,1
56.00,93.48,1
60.00,92.98,1
66.00,91.54,1
94.00,89.77,1
84.00,88.25,1
132.00,87.44,1
63.00,87.33,1
73.00,87.10,1
77.00,86.41,1
38.00,85.22,1
196.00,84.38,1
54.00,84.95,1
48.00,85.49,1
114.00,85.25,1
102.00,85.37,1
121.00,86.28,1
52.00,87.39,1
37.00,87.51,1
100.00,86.56,1
39.00,85.25,1
71.00,83.49,1
41.00,81.22,1
69.00,78.64,1
132.00,76.65,1
46.00,75.72,1
94.00,75.15,1
34.00,74.45,1
38.00,73.10,1
117.00,71.53,1
52.00,70.65,1
80.00,70.14,1
36.00,69.48,1
99.00,68.75,1
105.00,68.73,1
126.00,70.05,1
53.00,72.13,1
94.00,74.02,1
76.00,75.63,1
50.00,76.79,1
66.00,77.14,1
61.00,76.85,1
126.00,76.69,1
63.00,77.14,1
60.00,77.52,1
46.00,77.13,1
47.00,75.92,1
50.00,74.06,1
55.00,71.87,1
51.00,69.57,1
109.00,67.72,1
60.00,66.81,1
40.00,66.13,1
47.00,64.98,1
41.00,63.40,1
36.00,61.46,1
41.00,59.22,1
68.00,57.11,1
50.00,55.48,1
38.00,54.12,1
38.00,52.65,1
54.00,51.18,1
74.00,50.19,1
74.00,50.06,1
56.00,50.60,1
69.00,51.45,1
64.00,52.53,1
72.00,53.84,1
42.00,55.12,1
59.00,56.05,1
54.00,56.67,1
129.00,57.72,1
85.00,59.90,1
43.00,62.40,1
46.00,64.03,1
56.00,64.72,1
73.00,65.02,1
52.00,65.19,1
67.00,65.19,1
45.00,64.94,1
116.00,64.86,1
66.00,65.50,1
41.00,66.22,1
125.00,66.83,1
56.00,67.95,1
40.00,68.85,1
57.00,68.85,1
34.00,68.12,1
87.00,67.06,1
80.00,66.43,1
55.00,66.25,1
69.00,66.07,1
38.00,65.65,1
59.00,64.84,1
71.00,63.96,1
160.00,64.17,1
69.00,66.03,1
90.00,68.47,1
94.00,70.90,1
136.00,73.83,1
47.00,77.04,1
71.00,79.41,1
47.00,80.54,1
79.00,80.74,1
79.00,80.56,1
56.00,80.19,1
38.00,79.13,1
56.00,77.25,1
36.00,74.80,1
57.00,71.98,1
44.00,69.06,1
69.00,66.32,1
74.00,64.16,1
44.00,62.56,1
100.00,61.45,1
76.00,61.22,1
96.00,61.92,1
82.00,63.30,1
36.00,64.70,1
58.00,65.37,1
82.00,65.65,1
105.00,66.40,1
137.00,68.33,1
104.00,71.54,1
70.00,75.04,1
43.00,77.58,1
77.00,78.87,1
91.00,79.62,1
100.00,80.53,1
127.00,82.02,1
53.00,83.80,1
42.00,84.64,1
46.00,84.00,1
72.00,82.44,1
72.00,80.68,1
132.00,79.56,1
210.00,80.59,1
75.00,83.95,1
116.00,87.66,1
34.00,90.40,1
118.00,91.98,1
43.00,92.73,1
63.00,92.42,1
66.00,91.08,1
102.00,89.49,1
42.00,87.91,1
66.00,85.88,1
44.00,83.28,1
36.00,80.12,1
62.00,76.54,1
60.00,73.10,1
56.00,70.04,1
59.00,67.31,1
59.00,64.93,1
61.00,62.95,1
36.00,61.15,1
87.00,59.58,1
74.00,58.77,1
50.00,58.56,1
185.00,59.46,1
109.00,62.55,1
42.00,66.52,1
54.00,69.37,1
66.00,71.03,1
64.00,72.01,1
50.00,72.39,1
55.00,72.09,1
42.00,71.15,1
86.00,69.94,1
58.00,68.95,1
36.00,67.89,1
123.00,66.93,1
127.00,67.40,1
58.00,69.12,1
143.00,71.34,1
52.00,73.94,1
52.00,75.94,1
42.00,76.60,1
40.00,76.00,1
92.00,74.79,1
91.00,74.01,1
111.00,74.17,1
57.00,74.89,1
78.00,75.47,1
70.00,75.75,1
64.00,75.79,1
40.00,75.28,1
47.00,73.98,1
37.00,71.95,1
112.00,69.95,1
47.00,68.67,1
89.00,67.86,1
148.00,68.10,1
166.00,70.60,1
42.00,74.49,1
62.00,77.56,1
51.00,79.12,1
76.00,79.67,1
49.00,79.53,1
95.00,79.02,1
42.00,78.35,1
47.00,77.10,1
89.00,75.47,1
36.00,73.89,1
61.00,72.07,1
46.00,70.00,1
67.00,67.92,1
78.00,66.24,1
40.00,64.94,1
186.00,64.65,1
104.00,66.60,1
41.00,69.48,1
52.00,71.34,1
46.00,71.95,1
47.00,71.61,1
44.00,70.51,1
150.00,69.69,1
126.00,70.65,1
36.00,72.67,1
107.00,74.31,1
79.00,75.83,1
72.00,77.26,1
87.00,78.36,1
76.00,79.26,1
77.00,79.93,1
56.00,80.17,1
38.00,79.56,1
57.00,78.03,1
64.00,76.06,1
69.00,74.15,1
45.00,72.29,1
43.00,70.16,1
76.00,67.92,1
112.00,66.52,1
38.00,66.05,1
124.00,66.09,1
98.00,67.11,1
125.00,69.35,1
48.00,72.04,1
156.00,74.82,1
123.00,78.46,1
39.00,82.27,1
44.00,84.47,1
66.00,84.93,1
99.00,84.74,1
39.00,84.29,1
47.00,83.02,1
88.00,81.14,1
89.00,79.60,1
57.00,78.47,1
63.00,77.21,1
48.00,75.61,1
43.00,73.56,1
59.00,71.17,1
142.00,69.50,1
53.00,69.22,1
61.00,69.27,1
40.00,68.80,1
45.00,67.70,1
98.00,66.51,1
71.00,65.99,1
42.00,65.74,1
48.00,65.05,1
124.00,64.54,1
150.00,65.72,1
49.00,68.37,1
40.00,70.50,1
65.00,71.39,1
41.00,71.45,1
95.00,71.13,1
67.00,70.99,1
64.00,70.97,1
80.00,70.87,1
61.00,70.82,1
55.00,70.55,1
51.00,69.85,1
140.00,69.46,1
41.00,69.95,1
74.00,70.45,1
114.00,71.01,1
99.00,72.40,1
60.00,74.15,1
100.00,75.66,1
127.00,77.51,1
109.00,80.18,1
44.00,82.78,1
75.00,84.27,1
54.00,84.66,1
61.00,84.17,1
36.00,82.76,1
43.00,80.40,1
46.00,77.31,1
107.00,74.41,1
43.00,72.26,1
69.00,70.39,1
62.00,68.66,1
68.00,67.23,1
46.00,65.94,1
80.00,64.76,1
84.00,64.12,1
35.00,63.86,1
40.00,63.16,1
40.00,61.81,1
79.00,60.38,1
70.00,59.52,1
40.00,59.04,1
154.00,59.24,1
93.00,61.10,1
40.00,63.63,1
86.00,65.59,1
78.00,67.31,1
40.00,68.73,1
70.00,69.41,1
129.00,70.20,1
38.00,71.50,1
37.00,72.13,1
52.00,71.55,1
47.00,70.29,1
130.00,69.29,1
57.00,69.27,1
71.00,69.57,1
176.00,70.60,1
103.00,73.45,1
42.00,76.69,1
56.00,78.61,1
118.00,79.72,1
67.00,80.89,1
39.00,81.51,1
76.00,81.11,1
62.00,80.20,1
137.00,79.66,1
67.00,79.94,1
54.00,80.20,1
52.00,79.61,1
45.00,78.20,1
72.00,76.32,1
80.00,74.58,1
49.00,73.12,1
88.00,71.79,1
108.00,71.16,1
121.00,71.85,1
64.00,73.42,1
36.00,74.54,1
57.00,74.51,1
124.00,74.29,1
127.00,75.24,1
62.00,77.12,1
37.00,78.38,1
88.00,78.60,1
65.00,78.47,1
35.00,77.86,1
120.00,76.93,1
75.00,76.57,1
68.00,76.57,1
70.00,76.36,1
53.00,75.83,1
40.00,74.69,1
36.00,72.75,1
66.00,70.33,1
114.00,68.50,1
117.00,68.25,1
73.00,69.30,1
128.00,71.05,1
121.00,73.75,1
33.00,76.70,1
43.00,78.28,1
133.00,78.98,1
35.00,79.75,1
36.00,79.65,1
67.00,78.37,1
65.00,76.76,1
123.00,75.64,1
42.00,75.20,1
66.00,74.64,1
106.00,74.06,1
111.00,74.40,1
69.00,75.47,1
61.00,76.35,1
34.00,76.35,1
61.00,75.40,1
52.00,73.90,1
114.00,72.63,1
72.00,72.17,1
39.00,71.89,1
100.00,71.37,1
32.00,70.85,1
73.00,70.08,1
68.00,69.20,1
114.00,68.92,1
79.00,69.53,1
69.00,70.51,1
42.00,71.06,1
40.00,70.73,1
52.00,69.56,1
50.00,67.98,1
86.00,66.49,1
75.00,65.62,1
66.00,65.29,1
62.00,65.11,1
64.00,64.91,1
60.00,64.69,1
79.00,64.55,1
71.00,64.70,1
91.00,65.26,1
137.00,66.75,1
51.00,69.12,1
76.00,71.23,1
40.00,72.49,1
42.00,72.68,1
59.00,71.93,1
67.00,70.86,1
83.00,69.99,1
94.00,69.71,1
37.00,69.74,1
81.00,69.52,1
95.00,69.48,1
46.00,69.79,1
111.00,70.17,1
87.00,71.08,1
67.00,72.34,1
116.00,73.69,1
56.00,75.22,1
56.00,76.24,1
91.00,76.63,1
77.00,77.00,1
123.00,77.78,1
44.00,78.84,1
104.00,79.64,1
75.00,80.31,1
94.00,81.05,1
48.00,81.50,1
80.00,81.38,1
41.00,80.66,1
64.00,79.30,1
60.00,77.55,1
55.00,75.62,1
44.00,73.43,1
56.00,70.97,1
73.00,68.65,1
58.00,66.77,1
53.00,65.13,1
82.00,63.77,1
84.00,63.12,1
89.00,63.34,1
67.00,64.14,1
67.00,65.03,1
58.00,65.69,1
57.00,66.00,1
78.00,66.12,1
128.00,66.86,1
44.00,68.33,1
41.00,69.31,1
63.00,69.33,1
96.00,69.22,1
42.00,69.31,1
77.00,69.21,1
84.00,69.15,1
39.00,69.17,1
62.00,68.75,1
60.00,68.00,1
36.00,66.98,1
106.00,65.96,1
119.00,66.04,1
38.00,67.09,1
78.00,67.92,1
50.00,68.32,1
58.00,68.31,1
34.00,67.70,1
92.00,66.79,1
70.00,66.27,1
113.00,66.55,1
190.00,68.61,1
49.00,72.40,1
68.00,75.83,1
39.00,77.78,1
87.00,78.62,1
63.00,78.93,1
109.00,79.22,1
46.00,79.53,1
86.00,79.50,1
43.00,79.01,1
58.00,77.92,1
116.00,76.78,1
36.00,76.08,1
58.00,75.05,1
59.00,73.53,1
56.00,71.87,1
62.00,70.15,1
61.00,68.51,1
86.00,67.24,1
62.00,66.48,1
114.00,66.40,1
66.00,67.07,1
115.00,68.35,1
62.00,70.03,1
50.00,71.38,1
77.00,72.02,1
35.00,72.10,1
48.00,71.38,1
42.00,69.90,1
78.00,68.19,1
170.00,67.68,1
231.00,70.42,1
129.00,76.47,1
73.00,83.19,1
120.00,88.81,1
60.00,93.23,1
58.00,95.96,1
71.00,96.89,1
48.00,96.45,1
109.00,95.20,1
170.00,94.72,1
37.00,95.24,1
88.00,95.23,1
45.00,94.20,1
59.00,92.24,1
51.00,89.47,1
45.00,86.10,1
60.00,82.35,1
45.00,78.51,1
81.00,74.90,1
66.00,71.94,1
38.00,69.38,1
56.00,66.78,1
52.00,64.26,1
46.00,61.92,1
129.00,60.36,1
70.00,60.28,1
70.00,61.02,1
64.00,61.83,1
69.00,62.61,1
57.00,63.27,1
92.00,63.96,1
117.00,65.33,1
44.00,67.27,1
59.00,68.70,1
181.00,70.36,1
55.00,73.23,1
65.00,75.93,1
40.00,77.32,1
106.00,77.89,1
54.00,78.28,1
84.00,78.45,1
62.00,78.32,1
89.00,78.10,1
44.00,77.69,1
56.00,76.74,1
40.00,75.09,1
130.00,73.56,1
145.00,73.66,1
48.00,75.17,1
97.00,76.63,1
80.00,77.87,1
76.00,78.99,1
80.00,79.81,1
117.00,80.71,1
169.00,82.73,1
73.00,85.90,1
87.00,88.79,1
58.00,90.56,1
125.00,91.62,1
178.00,93.42,1
74.00,96.30,1
77.00,98.64,1
72.00,99.63,1
122.00,99.91,1
53.00,99.87,1
40.00,98.75,1
151.00,96.98,1
91.00,96.02,1
45.00,95.24,1
47.00,93.38,1
40.00,90.34,1
62.00,86.59,1
35.00,82.52,1
126.00,78.83,1
207.00,77.49,1
59.00,78.87,1
34.00,80.28,1
67.00,80.30,1
50.00,79.46,1
44.00,77.93,1
76.00,75.96,1
81.00,74.24,1
49.00,72.85,1
36.00,71.17,1
40.00,68.86,1
66.00,66.33,1
38.00,63.95,1
85.00,61.90,1
157.00,61.32,1
135.00,63.32,1
43.00,66.63,1
84.00,69.46,1
40.00,71.39,1
39.00,72.17,1
81.00,72.03,1
48.00,71.58,1
122.00,71.35,1
142.00,72.41,1
65.00,74.72,1
127.00,77.31,1
42.00,79.70,1
47.00,81.01,1
68.00,81.00,1
178.00,81.31,1
112.00,83.28,1
84.00,86.06,1
112.00,88.56,1
111.00,91.00,1
70.00,93.18,1
39.00,94.16,1
181.00,94.51,1
127.00,96.03,1
69.00,98.18,1
130.00,99.83,1
38.00,100.81,1
35.00,100.20,1
113.00,98.25,1
37.00,95.98,1
39.00,92.94,1
55.00,88.97,1
61.00,84.75,1
72.00,80.80,1
54.00,77.26,1
72.00,74.11,1
137.00,72.03,1
37.00,71.25,1
48.00,70.44,1
60.00,69.09,1
63.00,67.69,1
43.00,66.28,1
75.00,64.88,1
49.00,63.66,1
76.00,62.69,1
55.00,62.00,1
75.00,61.58,1
145.00,62.12,1
98.00,64.30,1
35.00,66.94,1
86.00,68.82,1
39.00,70.01,1
52.00,70.38,1
59.00,70.00,1
124.00,69.83,1
87.00,70.65,1
64.00,71.94,1
74.00,72.93,1
76.00,73.65,1
65.00,74.17,1
64.00,74.34,1
38.00,73.92,1
69.00,72.89,1
138.00,72.29,1
60.00,72.81,1
42.00,73.27,1
63.00,72.91,1
50.00,72.02,1
45.00,70.69,1
74.00,69.10,1
51.00,67.63,1
57.00,66.20,1
87.00,65.01,1
53.00,64.30,1
68.00,63.80,1
38.00,63.18,1
45.00,62.18,1
50.00,60.83,1
37.00,59.31,1
117.00,58.18,1
58.00,58.12,1
54.00,58.52,1
46.00,58.65,1
90.00,58.75,1
43.00,59.11,1
40.00,59.21,1
92.00,59.10,1
54.00,59.37,1
84.00,59.96,1
56.00,60.72,1
94.00,61.69,1
51.00,62.83,1
44.00,63.60,1
96.00,64.03,1
60.00,64.68,1
60.00,65.32,1
104.00,66.00,1
80.00,67.21,1
42.00,68.44,1
54.00,68.91,1
42.00,68.57,1
132.00,68.28,1
65.00,68.87,1
101.00,70.04,1
41.00,71.16,1
40.00,71.50,1
86.00,71.11,1
64.00,70.74,1
70.00,70.47,1
57.00,70.09,1
67.00,69.56,1
72.00,69.03,1
54.00,68.53,1
63.00,67.90,1
123.00,67.68,1
92.00,68.59,1
138.00,70.69,1
69.00,73.57,1
40.00,75.95,1
76.00,77.10,1
73.00,77.61,1
57.00,77.74,1
96.00,77.60,1
54.00,77.43,1
94.00,77.21,1
36.00,76.78,1
45.00,75.66,1
47.00,73.72,1
107.00,71.85,1
69.00,70.78,1
39.00,69.97,1
82.00,68.94,1
76.00,68.18,1
54.00,67.73,1
68.00,67.23,1
78.00,66.85,1
42.00,66.54,1
54.00,65.89,1
71.00,65.05,1
42.00,64.22,1
82.00,63.43,1
77.00,63.07,1
40.00,62.99,1
78.00,62.79,1
131.00,63.27,1
41.00,64.70,1
70.00,65.98,1
37.00,66.57,1
56.00,66.46,1
74.00,66.03,1
44.00,65.57,1
61.00,64.89,1
86.00,64.31,1
78.00,64.32,1
134.00,65.31,1
37.00,67.08,1
54.00,68.37,1
75.00,68.90,1
57.00,69.18,1
166.00,70.05,1
60.00,72.11,1
78.00,74.30,1
58.00,75.77,1
45.00,76.36,1
94.00,76.27,1
117.00,76.58,1
106.00,77.87,1
51.00,79.41,1
50.00,80.09,1
70.00,79.79,1
74.00,79.09,1
68.00,78.31,1
44.00,77.23,1
64.00,75.66,1
94.00,74.17,1
40.00,72.99,1
39.00,71.44,1
87.00,69.60,1
158.00,68.97,1
38.00,69.86,1
90.00,70.90,1
195.00,72.77,1
44.00,76.10,1
65.00,78.99,1
58.00,80.49,1
135.00,81.58,1
133.00,83.54,1
39.00,85.90,1
67.00,87.16,1
95.00,87.45,1
41.00,87.24,1
78.00,86.30,1
38.00,84.66,1
44.00,82.24,1
46.00,79.10,1
64.00,75.75,1
66.00,72.67,1
110.00,70.47,1
216.00,70.62,1
53.00,73.36,1
50.00,76.09,1
48.00,77.31,1
40.00,77.19,1
36.00,75.90,1
136.00,74.46,1
57.00,73.93,1
61.00,73.66,1
70.00,73.07,1
53.00,72.31,1
164.00,72.14,1
72.00,73.37,1
46.00,74.81,1
50.00,75.21,1
50.00,74.64,1
43.00,73.33,1
57.00,71.50,1
77.00,69.68,1
125.00,68.78,1
71.00,69.12,1
42.00,69.64,1
82.00,69.70,1
46.00,69.51,1
71.00,69.10,1
104.00,68.91,1
42.00,69.15,1
45.00,68.97,1
65.00,68.18,1
35.00,67.05,1
35.00,65.38,1
108.00,63.71,1
53.00,62.86,1
66.00,62.45,1
49.00,62.01,1
92.00,61.74,1
128.00,62.49,1
50.00,64.29,1
85.00,66.12,1
83.00,67.83,1
92.00,69.72,1
37.00,71.37,1
53.00,72.06,1
85.00,72.08,1
88.00,72.29,1
46.00,72.59,1
94.00,72.69,1
105.00,73.16,1
84.00,74.32,1
40.00,75.32,1
112.00,75.88,1
143.00,77.16,1
40.00,79.21,1
72.00,80.58,1
71.00,81.07,1
76.00,81.16,1
62.00,80.89,1
212.00,81.43,1
80.00,83.85,1
78.00,86.64,1
43.00,88.21,1
129.00,88.90,1
85.00,89.68,1
43.00,90.13,1
54.00,89.35,1
104.00,87.90,1
75.00,86.68,1
47.00,85.37,1
78.00,83.60,1
92.00,81.92,1
47.00,80.49,1
56.00,78.75,1
60.00,76.62,1
48.00,74.33,1
92.00,72.17,1
164.00,71.43,1
46.00,72.34,1
41.00,73.09,1
56.00,72.75,1
40.00,71.68,1
105.00,70.49,1
103.00,70.18,1
42.00,70.55,1
71.00,70.63,1
57.00,70.34,1
35.00,69.62,1
46.00,68.20,1
88.00,66.64,1
61.00,65.59,1
142.00,65.54,1
54.00,66.64,1
63.00,67.86,1
93.00,68.81,1
46.00,69.69,1
43.00,69.94,1
211.00,70.65,1
85.00,73.41,1
34.00,76.52,1
58.00,78.08,1
39.00,78.25,1
87.00,77.62,1
55.00,76.79,1
69.00,75.83,1
35.00,74.47,1
105.00,72.99,1
74.00,72.09,1
45.00,71.49,1
68.00,70.59,1
45.00,69.44,1
39.00,67.89,1
46.00,65.87,1
39.00,63.55,1
65.00,61.26,1
100.00,59.71,1
72.00,59.36,1
103.00,60.00,1
86.00,61.51,1
124.00,63.94,1
70.00,67.01,1
38.00,69.63,1
72.00,71.11,1
113.00,72.33,1
34.00,73.61,1
131.00,74.72,1
118.00,76.53,1
99.00,79.22,1
45.00,81.64,1
116.00,83.28,1
57.00,84.54,1
104.00,85.47,1
128.00,86.59,1
62.00,88.08,1
52.00,88.81,1
71.00,88.36,1
91.00,87.45,1
100.00,86.79,1
81.00,86.49,1
72.00,86.17,1
42.00,85.28,1
81.00,83.74,1
54.00,81.94,1
44.00,79.79,1
127.00,77.74,1
145.00,77.27,1
111.00,78.72,1
55.00,80.71,1
58.00,81.86,1
73.00,82.04,1
93.00,81.92,1
191.00,82.83,1
89.00,85.48,1
150.00,88.95,1
58.00,92.35,1
45.00,94.43,1
78.00,94.76,1
123.00,94.55,1
60.00,94.44,1
59.00,93.73,1
54.00,92.00,1
64.00,89.56,1
53.00,86.68,1
40.00,83.36,1
45.00,79.54,1
67.00,75.64,1
149.00,72.88,1
39.00,71.72,1
92.00,71.11,1
96.00,70.93,1
77.00,71.43,1
84.00,72.21,1
38.00,72.76,1
90.00,72.83,1
103.00,73.13,1
38.00,73.71,1
69.00,73.76,1
36.00,73.11,1
37.00,71.65,1
103.00,69.93,1
49.00,68.73,1
179.00,68.70,1
87.00,70.50,1
38.00,72.77,1
107.00,74.31,1
44.00,75.47,1
42.00,75.82,1
61.00,75.13,1
140.00,74.63,1
78.00,75.26,1
42.00,76.04,1
69.00,76.03,1
69.00,75.56,1
74.00,75.03,1
71.00,74.53,1
64.00,73.99,1
61.00,73.29,1
36.00,72.16,1
118.00,70.99,1
54.00,70.46,1
50.00,70.00,1
68.00,69.17,1
85.00,68.50,1
96.00,68.49,1
122.00,69.52,1
114.00,71.77,1
56.00,74.46,1
58.00,76.39,1
42.00,77.08,1
75.00,76.86,1
112.00,76.66,1
81.00,77.12,1
54.00,77.64,1
40.00,77.34,1
118.00,76.63,1
81.00,76.52,1
66.00,76.77,1
74.00,76.80,1
78.00,76.69,1
42.00,76.31,1
41.00,75.18,1
105.00,73.72,1
63.00,72.78,1
98.00,72.38,1
61.00,72.33,1
56.00,72.18,1
52.00,71.54,1
77.00,70.65,1
139.00,70.49,1
59.00,71.47,1
70.00,72.55,1
73.00,73.22,1
69.00,73.66,1
177.00,74.77,1
89.00,77.39,1
93.00,80.54,1
46.00,82.92,1
44.00,83.86,1
86.00,83.62,1
86.00,83.16,1
40.00,82.53,1
109.00,81.59,1
37.00,80.62,1
71.00,79.31,1
82.00,77.84,1
72.00,76.70,1
55.00,75.61,1
41.00,74.12,1
52.00,72.09,1
123.00,70.38,1
45.00,69.60,1
83.00,69.15,1
122.00,69.27,1
103.00,70.62,1
41.00,72.37,1
134.00,73.94,1
58.00,75.72,1
42.00,76.98,1
91.00,77.32,1
43.00,77.23,1
36.00,76.36,1
83.00,74.81,1
46.00,73.20,1
81.00,71.68,1
50.00,70.28,1
52.00,68.82,1
71.00,67.30,1
51.00,65.94,1
42.00,64.50,1
70.00,62.96,1
97.00,62.03,1
48.00,61.85,1
77.00,61.90,1
49.00,61.97,1
67.00,61.97,1
38.00,61.74,1
69.00,61.28,1
67.00,60.91,1
49.00,60.70,1
70.00,60.48,1
54.00,60.32,1
99.00,60.50,1
50.00,61.13,1
84.00,61.93,1
111.00,63.23,1
40.00,64.99,1
68.00,66.32,1
63.00,67.10,1
94.00,67.86,1
77.00,68.91,1
32.00,69.74,1
44.00,69.59,1
70.00,68.74,1
77.00,67.98,1
38.00,67.31,1
64.00,66.38,1
51.00,65.26,1
61.00,64.13,1
44.00,62.94,1
171.00,62.61,1
63.00,64.00,1
50.00,65.82,1
114.00,67.31,1
58.00,68.99,1
106.00,70.77,1
86.00,72.73,1
79.00,74.77,1
40.00,76.19,1
89.00,76.80,1
51.00,76.95,1
48.00,76.49,1
147.00,76.04,1
50.00,76.44,1
56.00,76.72,1
64.00,76.27,1
120.00,75.91,1
150.00,76.89,1
40.00,78.90,1
43.00,80.06,1
37.00,79.64,1
55.00,78.12,1
58.00,76.07,1
97.00,74.21,1
71.00,73.02,1
78.00,72.32,1
89.00,72.01,1
41.00,71.85,1
72.00,71.36,1
74.00,70.77,1
36.00,70.10,1
118.00,69.45,1
54.00,69.36,1
83.00,69.55,1
66.00,69.76,1
98.00,70.20,1
114.00,71.33,1
44.00,72.89,1
40.00,73.67,1
35.00,73.12,1
107.00,72.08,1
49.00,71.37,1
136.00,71.30,1
67.00,72.10,1
100.00,73.39,1
103.00,75.01,1
40.00,76.62,1
79.00,77.48,1
157.00,78.51,1
80.00,80.61,1
59.00,82.65,1
58.00,83.59,1
75.00,83.59,1
83.00,83.23,1
73.00,82.80,1
65.00,82.17,1
106.00,81.52,1
42.00,80.98,1
153.00,80.71,1
62.00,81.24,1
54.00,81.69,1
62.00,81.24,1
56.00,80.14,1
89.00,78.82,1
59.00,77.64,1
95.00,76.66,1
62.00,75.96,1
63.00,75.25,1
153.00,75.04,1
71.00,76.04,1
43.00,77.09,1
50.00,77.04,1
100.00,76.46,1
36.00,75.86,1
79.00,74.96,1
116.00,74.37,1
48.00,74.43,1
37.00,74.07,1
51.00,72.76,1
57.00,70.97,1
42.00,68.98,1
160.00,67.68,1
46.00,67.81,1
127.00,68.81,1
38.00,70.10,1
42.00,70.78,1
59.00,70.45,1
61.00,69.69,1
83.00,68.99,1
35.00,68.34,1
58.00,67.34,1
51.00,66.02,1
42.00,64.50,1
56.00,62.79,1
35.00,60.97,1
37.00,58.92,1
67.00,56.87,1
54.00,55.30,1
58.00,54.20,1
83.00,53.66,1
110.00,54.25,1
78.00,56.06,1
42.00,58.13,1
104.00,59.98,1
110.00,62.39,1
63.00,65.35,1
43.00,67.74,1
119.00,69.54,1
54.00,71.37,1
105.00,73.15,1
75.00,74.89,1
44.00,76.20,1
48.00,76.42,1
45.00,75.57,1
65.00,74.11,1
73.00,72.59,1
48.00,71.18,1
102.00,69.99,1
56.00,69.32,1
77.00,68.93,1
42.00,68.43,1
37.00,67.43,1
51.00,65.80,1
75.00,64.15,1
131.00,63.53,1
36.00,64.07,1
53.00,64.47,1
47.00,64.20,1
35.00,63.38,1
48.00,62.02,1
62.00,60.53,1
93.00,59.58,1
47.00,59.35,1
73.00,59.35,1
48.00,59.39,1
47.00,59.24,1
193.00,59.93,1
50.00,62.48,1
111.00,65.71,1
73.00,68.83,1
90.00,71.81,1
65.00,74.32,1
66.00,76.13,1
96.00,77.41,1
68.00,78.52,1
152.00,79.95,1
91.00,82.21,1
164.00,85.34,1
91.00,89.12,1
36.00,92.20,1
94.00,93.60,1
60.00,93.93,1
149.00,94.07,1
54.00,94.47,1
43.00,94.11,1
39.00,92.20,1
41.00,89.04,1
107.00,85.57,1
222.00,84.05,1
52.00,85.10,1
60.00,86.28,1
79.00,86.41,1
102.00,86.29,1
50.00,86.10,1
169.00,86.18,1
41.00,86.94,1
67.00,87.27,1
68.00,86.64,1
336.00,87.75,1
196.00,93.45,1
69.00,101.30,1
41.00,107.01,1
33.00,109.34,1
60.00,108.84,1
105.00,107.00,1
80.00,104.96,1
130.00,103.21,1
44.00,101.64,1
147.00,100.10,1
83.00,99.10,1
37.00,97.95,1
66.00,95.68,1
82.00,92.86,1
86.00,90.26,1
127.00,88.45,1
37.00,87.26,1
51.00,85.57,1
49.00,82.99,1
64.00,80.05,1
45.00,77.00,1
129.00,74.49,1
39.00,72.94,1
72.00,71.66,1
108.00,70.72,1
54.00,70.50,1
122.00,70.80,1
110.00,72.06,1
35.00,73.76,1
97.00,74.90,1
54.00,75.64,1
45.00,75.75,1
140.00,75.68,1
127.00,76.87,1
123.00,79.53,1
53.00,82.44,1
62.00,84.33,1
86.00,85.14,1
41.00,85.22,1
78.00,84.48,1
81.00,83.42,1
41.00,82.18,1
60.00,80.35,1
58.00,78.12,1
48.00,75.68,1
71.00,73.19,1
112.00,71.37,1
96.00,70.88,1
59.00,71.16,1
144.00,71.99,1
50.00,73.54,1
59.00,74.79,1
70.00,75.23,1
95.00,75.50,1
53.00,75.80,1
62.00,75.69,1
76.00,75.19,1
36.00,74.38,1
75.00,73.15,1
47.00,71.72,1
46.00,70.03,1
55.00,68.04,1
37.00,65.86,1
276.00,65.39,1
91.00,68.53,1
50.00,72.86,1
158.00,76.63,1
47.00,80.38,1
204.00,84.35,1
57.00,88.81,1
42.00,92.23,1
34.00,93.21,1
89.00,92.52,1
70.00,91.27,1
72.00,89.78,1
92.00,88.21,1
60.00,86.71,1
77.00,85.09,1
44.00,83.17,1
38.00,80.64,1
92.00,77.81,1
37.00,75.22,1
50.00,72.55,1
86.00,69.96,1
38.00,67.83,1
83.00,65.99,1
74.00,64.71,1
52.00,63.94,1
101.00,63.56,1
38.00,63.58,1
91.00,63.71,1
88.00,64.24,1
36.00,65.04,1
102.00,65.65,1
55.00,66.39,1
36.00,66.80,1
39.00,66.27,1
36.00,64.91,1
46.00,63.02,1
103.00,61.40,1
72.00,60.83,1
47.00,60.82,1
70.00,60.75,1
89.00,60.97,1
61.00,61.68,1
63.00,62.44,1
43.00,62.86,1
66.00,62.87,1
73.00,62.85,1
68.00,63.08,1
82.00,63.57,1
119.00,64.73,1
112.00,67.07,1
108.00,70.36,1
55.00,73.70,1
49.00,76.00,1
69.00,77.08,1
83.00,77.57,1
110.00,78.24,1
93.00,79.44,1
40.00,80.50,1
47.00,80.46,1
88.00,79.60,1
38.00,78.48,1
60.00,76.88,1
52.00,74.85,1
369.00,75.25,1
290.00,82.01,1
44.00,92.70,1
66.00,101.44,1
57.00,106.65,1
46.00,108.96,1
68.00,108.88,1
58.00,107.19,1
37.00,104.20,1
107.00,100.45,1
82.00,97.04,1
56.00,93.94,1
36.00,90.38,1
53.00,86.18,1
52.00,81.75,1
59.00,77.47,1
50.00,73.46,1
70.00,69.88,1
148.00,67.65,1
40.00,67.09,1
48.00,66.73,1
90.00,66.12,1
52.00,65.79,1
35.00,65.25,1
95.00,64.48,1
62.00,64.13,1
58.00,64.04,1
52.00,63.75,1
57.00,63.23,1
49.00,62.52,1
141.00,62.36,1
35.00,63.21,1
61.00,64.01,1
106.00,64.68,1
52.00,65.74,1
64.00,66.63,1
79.00,67.25,1
175.00,68.78,1
69.00,71.82,1
52.00,74.77,1
70.00,76.54,1
53.00,77.37,1
78.00,77.54,1
63.00,77.35,1
171.00,77.76,1
51.00,79.28,1
44.00,80.43,1
106.00,80.67,1
54.00,80.74,1
101.00,80.73,1
75.00,80.79,1
56.00,80.70,1
182.00,81.02,1
136.00,83.20,1
43.00,86.22,1
43.00,87.85,1
98.00,88.07,1
93.00,88.07,1
81.00,88.17,1
123.00,88.46,1
71.00,89.05,1
97.00,89.54,1
99.00,89.97,1
68.00,90.31,1
47.00,89.92,1
158.00,89.29,1
42.00,89.21,1
110.00,89.11,1
62.00,88.77,1
62.00,88.01,1
71.00,86.65,1
196.00,86.06,1
78.00,87.28,1
64.00,88.76,1
40.00,88.98,1
67.00,87.96,1
50.00,86.12,1
45.00,83.63,1
75.00,80.75,1
73.00,78.11,1
54.00,75.79,1
125.00,74.05,1
40.00,73.13,1
60.00,72.21,1
154.00,71.71,1
64.00,72.55,1
106.00,74.00,1
64.00,75.46,1
41.00,76.35,1
54.00,76.13,1
55.00,75.14,1
41.00,73.59,1
63.00,71.62,1
109.00,70.04,1
87.00,69.56,1
74.00,69.86,1
46.00,70.09,1
34.00,69.60,1
134.00,68.98,1
79.00,69.39,1
40.00,70.15,1
69.00,70.30,1
50.00,69.96,1
44.00,69.15,1
94.00,68.16,1
37.00,67.39,1
66.00,66.50,1
94.00,65.80,1
86.00,65.92,1
39.00,66.36,1
83.00,66.53,1
81.00,66.84,1
41.00,67.22,1
78.00,67.28,1
88.00,67.46,1
65.00,68.01,1
55.00,68.43,1
52.00,68.36,1
42.00,67.71,1
48.00,66.49,1
68.00,65.07,1
151.00,64.62,1
62.00,65.72,1
57.00,67.13,1
55.00,67.88,1
52.00,68.01,1
112.00,68.11,1
44.00,68.58,1
80.00,68.98,1
73.00,69.30,1
55.00,69.57,1
55.00,69.44,1
39.00,68.73,1
47.00,67.40,1
44.00,65.62,1
99.00,64.03,1
127.00,63.77,1
38.00,64.70,1
41.00,65.28,1
134.00,65.67,1
43.00,66.71,1
105.00,67.98,1
100.00,69.61,1
52.00,71.51,1
39.00,72.60,1
108.00,72.99,1
48.00,73.38,1
38.00,73.25,1
111.00,72.67,1
45.00,72.35,1
38.00,71.69,1
92.00,70.57,1
64.00,69.76,1
39.00,68.97,1
120.00,68.26,1
42.00,68.12,1
82.00,68.12,1
39.00,67.89,1
64.00,67.32,1
57.00,66.52,1
80.00,65.83,1
57.00,65.41,1
66.00,65.07,1
41.00,64.56,1
104.00,64.12,1
52.00,64.15,1
77.00,64.42,1
99.00,65.01,1
53.00,66.03,1
72.00,66.90,1
47.00,67.37,1
57.00,67.34,1
82.00,67.10,1
112.00,67.45,1
105.00,68.90,1
40.00,70.71,1
106.00,72.14,1
87.00,73.66,1
96.00,75.48,1
84.00,77.38,1
68.00,79.00,1
67.00,80.00,1
123.00,80.79,1
70.00,81.90,1
81.00,82.87,1
111.00,83.71,1
166.00,85.47,1
81.00,88.31,1
103.00,91.11,1
46.00,92.97,1
65.00,93.46,1
123.00,93.22,1
50.00,92.93,1
48.00,91.88,1
192.00,90.84,1
39.00,90.94,1
92.00,91.00,1
116.00,90.84,1
64.00,90.92,1
92.00,90.75,1
44.00,90.04,1
60.00,88.50,1
52.00,86.17,1
113.00,83.84,1
63.00,82.12,1
58.00,80.55,1
40.00,78.50,1
115.00,76.44,1
87.00,75.30,1
149.00,75.57,1
98.00,77.27,1
38.00,79.17,1
79.00,80.08,1
76.00,80.36,1
110.00,80.74,1
98.00,81.62,1
129.00,83.19,1
35.00,84.87,1
121.00,85.98,1
36.00,86.57,1
107.00,86.63,1
115.00,86.83,1
88.00,87.62,1
68.00,88.30,1
84.00,88.43,1
127.00,88.62,1
91.00,89.37,1
73.00,90.15,1
42.00,90.07,1
66.00,88.87,1
113.00,87.39,1
90.00,86.55,1
56.00,85.92,1
60.00,84.77,1
52.00,82.98,1
51.00,80.65,1
129.00,78.55,1
67.00,77.47,1
91.00,77.02,1
68.00,76.75,1
46.00,76.26,1
42.00,75.04,1
64.00,73.23,1
52.00,71.27,1
73.00,69.41,1
74.00,67.96,1
132.00,67.52,1
45.00,68.13,1
120.00,69.16,1
58.00,70.50,1
52.00,71.56,1
42.00,71.67,1
84.00,71.20,1
67.00,70.78,1
107.00,70.81,1
155.00,72.11,1
46.00,74.55,1
44.00,76.33,1
35.00,76.55,1
36.00,75.43,1
88.00,73.67,1
69.00,72.23,1
58.00,71.09,1
114.00,70.35,1
60.00,70.32,1
76.00,70.54,1
67.00,70.68,1
124.00,71.21,1
92.00,72.63,1
76.00,74.49,1
62.00,75.97,1
56.00,76.69,1
165.00,77.52,1
65.00,79.32,1
46.00,80.88,1
44.00,81.04,1
54.00,80.04,1
48.00,78.29,1
36.00,75.90,1
55.00,73.02,1
85.00,70.33,1
76.00,68.44,1
46.00,67.09,1
60.00,65.73,1
114.00,64.83,1
86.00,65.11,1
44.00,65.90,1
50.00,66.17,1
96.00,66.17,1
49.00,66.39,1
56.00,66.43,1
116.00,66.56,1
296.00,69.30,1
42.00,75.32,1
40.00,80.88,1
69.00,83.98,1
88.00,85.76,1
279.00,88.62,1
62.00,93.72,1
93.00,98.61,1
58.00,101.59,1
50.00,102.64,1
35.00,101.61,1
139.00,99.61,1
42.00,97.73,1
45.00,95.27,1
141.00,92.51,1
65.00,90.59,1
72.00,88.97,1
114.00,87.47,1
64.00,86.45,1
63.00,85.33,1
97.00,84.03,1
43.00,82.75,1
62.00,81.05,1
140.00,79.62,1
39.00,79.05,1
80.00,78.46,1
80.00,77.72,1
151.00,77.83,1
68.00,79.05,1
60.00,80.24,1
94.00,80.81,1
56.00,81.09,1
72.00,80.91,1
63.00,80.27,1
38.00,79.08,1
34.00,76.98,1
70.00,74.29,1
113.00,72.16,1
167.00,72.01,1
97.00,74.01,1
46.00,76.45,1
37.00,77.64,1
60.00,77.47,1
37.00,76.38,1
75.00,74.74,1
194.00,74.18,1
61.00,75.65,1
54.00,77.32,1
110.00,78.34,1
84.00,79.49,1
55.00,80.48,1
54.00,80.62,1
40.00,79.73,1
51.00,77.95,1
93.00,75.96,1
50.00,74.30,1
37.00,72.49,1
71.00,70.32,1
82.00,68.50,1
49.00,67.21,1
41.00,65.82,1
43.00,64.03,1
163.00,62.96,1
101.00,63.98,1
100.00,66.48,1
52.00,69.11,1
234.00,72.44,1
36.00,77.19,1
46.00,81.15,1
108.00,83.43,1
92.00,85.33,1
38.00,86.69,1
127.00,87.28,1
89.00,87.99,1
68.00,88.71,1
94.00,88.96,1
66.00,88.87,1
60.00,88.22,1
96.00,87.15,1
72.00,86.13,1
107.00,85.37,1
43.00,84.69,1
64.00,83.50,1
57.00,81.71,1
38.00,79.43,1
63.00,76.69,1
94.00,74.21,1
78.00,72.59,1
51.00,71.45,1
45.00,70.08,1
80.00,68.55,1
60.00,67.31,1
52.00,66.22,1
122.00,65.58,1
67.00,65.92,1
74.00,66.72,1
70.00,67.49,1
71.00,68.19,1
64.00,68.76,1
94.00,69.33,1
114.00,70.50,1
70.00,72.30,1
88.00,74.11,1
163.00,76.41,1
46.00,79.44,1
60.00,81.71,1
147.00,83.32,1
67.00,85.27,1
138.00,87.40,1
89.00,89.70,1
56.00,91.56,1
73.00,92.22,1
72.00,91.91,1
83.00,91.12,1
57.00,89.94,1
64.00,88.22,1
73.00,86.13,1
81.00,84.09,1
76.00,82.34,1
59.00,80.69,1
115.00,79.33,1
39.00,78.39,1
91.00,77.42,1
142.00,77.14,1
76.00,78.10,1
58.00,79.16,1
63.00,79.45,1
45.00,78.94,1
48.00,77.59,1
92.00,75.93,1
130.00,75.15,1
174.00,76.43,1
90.00,79.58,1
59.00,82.75,1
93.00,84.91,1
96.00,86.57,1
115.00,88.27,1
95.00,90.12,1
45.00,91.44,1
74.00,91.56,1
85.00,90.92,1
67.00,89.98,1
128.00,89.17,1
101.00,89.11,1
129.00,89.92,1
48.00,90.93,1
49.00,90.96,1
83.00,89.84,1
57.00,88.26,1
59.00,86.26,1
36.00,83.62,1
232.00,81.85,1
60.00,82.43,1
50.00,83.47,1
64.00,83.36,1
57.00,82.46,1
114.00,81.46,1
43.00,80.72,1
77.00,79.77,1
56.00,78.50,1
76.00,77.14,1
76.00,75.89,1
51.00,74.74,1
77.00,73.51,1
66.00,72.38,1
128.00,71.92,1
95.00,72.65,1
53.00,73.88,1
59.00,74.51,1
43.00,74.29,1
54.00,73.30,1
232.00,73.30,1
65.00,75.69,1
62.00,78.51,1
45.00,79.98,1
78.00,80.34,1
66.00,80.17,1
136.00,80.25,1
55.00,80.92,1
62.00,81.29,1
123.00,81.38,1
86.00,82.02,1
69.00,82.81,1
58.00,83.00,1
47.00,82.30,1
146.00,81.52,1
86.00,81.74,1
83.00,82.53,1
42.00,82.83,1
50.00,82.11,1
86.00,80.72,1
40.00,79.16,1
61.00,77.23,1
116.00,75.51,1
59.00,74.62,1
75.00,74.02,1
49.00,73.26,1
38.00,71.98,1
66.00,70.22,1
66.00,68.50,1
61.00,67.07,1
49.00,65.73,1
56.00,64.32,1
67.00,63.00,1
59.00,61.97,1
109.00,61.57,1
117.00,62.51,1
96.00,64.79,1
40.00,67.26,1
38.00,68.67,1
78.00,69.07,1
55.00,69.15,1
69.00,69.05,1
86.00,68.99,1
52.00,69.09,1
59.00,68.93,1
150.00,69.19,1
111.00,70.98,1
79.00,73.74,1
51.00,76.05,1
73.00,77.39,1
38.00,77.78,1
126.00,77.79,1
183.00,79.13,1
37.00,81.90,1
70.00,84.00,1
36.00,84.58,1
61.00,83.91,1
76.00,82.55,1
104.00,81.42,1
49.00,80.61,1
122.00,80.01,1
65.00,79.87,1
89.00,79.94,1
75.00,79.99,1
138.00,80.49,1
35.00,81.41,1
130.00,82.21,1
46.00,82.92,1
41.00,82.88,1
69.00,81.74,1
82.00,80.32,1
93.00,79.28,1
44.00,78.44,1
37.00,77.02,1
88.00,75.09,1
44.00,73.26,1
46.00,71.29,1
43.00,68.90,1
77.00,66.53,1
63.00,64.68,1
67.00,63.37,1
48.00,62.30,1
58.00,61.26,1
39.00,60.11,1
69.00,58.95,1
100.00,58.41,1
177.00,59.77,1
87.00,63.31,1
57.00,67.28,1
100.00,70.57,1
52.00,73.28,1
36.00,74.90,1
40.00,75.01,1
79.00,74.22,1
83.00,73.48,1
90.00,73.27,1
62.00,73.37,1
65.00,73.33,1
61.00,72.97,1
88.00,72.55,1
77.00,72.43,1
81.00,72.61,1
49.00,72.73,1
139.00,73.05,1
64.00,74.10,1
44.00,75.03,1
39.00,74.82,1
75.00,73.82,1
61.00,72.68,1
42.00,71.39,1
90.00,69.99,1
41.00,68.78,1
69.00,67.58,1
100.00,66.74,1
116.00,67.09,1
109.00,68.79,1
68.00,71.14,1
116.00,73.56,1
45.00,75.82,1
146.00,77.94,1
56.00,80.22,1
42.00,81.79,1
102.00,82.26,1
95.00,82.71,1
48.00,83.14,1
50.00,82.70,1
107.00,81.73,1
74.00,81.10,1
67.00,80.59,1
87.00,79.98,1
46.00,79.25,1
39.00,77.85,1
51.00,75.67,1
57.00,73.14,1
70.00,70.74,1
42.00,68.55,1
41.00,66.23,1
80.00,63.96,1
40.00,62.11,1
40.00,60.31,1
40.00,58.27,1
94.00,56.55,1
90.00,56.01,1
126.00,57.05,1
68.00,59.37,1
62.00,61.84,1
39.00,63.59,1
35.00,64.25,1
99.00,64.35,1
46.00,64.60,1
37.00,64.54,1
62.00,63.86,1
80.00,63.22,1
93.00,63.26,1
52.00,63.82,1
127.00,64.82,1
127.00,67.01,1
45.00,70.00,1
91.00,72.50,1
99.00,74.70,1
100.00,77.12,1
158.00,80.19,1
127.00,84.36,1
58.00,88.62,1
68.00,91.49,1
68.00,92.82,1
41.00,92.77,1
80.00,91.57,1
73.00,89.89,1
47.00,87.90,1
38.00,85.16,1
121.00,82.28,1
45.00,80.06,1
47.00,77.86,1
110.00,75.66,1
38.00,74.02,1
72.00,72.46,1
132.00,71.47,1
41.00,71.48,1
62.00,71.40,1
48.00,70.74,1
61.00,69.70,1
39.00,68.33,1
68.00,66.73,1
60.00,65.25,1
63.00,64.05,1
172.00,63.98,1
42.00,65.53,1
98.00,67.48,1
41.00,69.03,1
79.00,70.07,1
64.00,70.71,1
48.00,70.97,1
111.00,71.05,1
48.00,71.40,1
78.00,71.66,1
46.00,71.55,1
36.00,70.80,1
112.00,69.78,1
68.00,69.42,1
44.00,69.26,1
55.00,68.59,1
80.00,67.74,1
41.00,66.97,1
72.00,66.11,1
208.00,66.52,1
48.00,69.08,1
68.00,71.82,1
48.00,73.43,1
38.00,73.89,1
56.00,73.27,1
99.00,72.44,1
93.00,72.29,1
43.00,72.50,1
75.00,72.36,1
54.00,71.89,1
48.00,71.07,1
47.00,69.72,1
70.00,68.14,1
50.00,66.64,1
50.00,65.12,1
48.00,63.44,1
102.00,62.11,1
163.00,62.48,1
36.00,64.56,1
67.00,66.50,1
48.00,67.58,1
42.00,67.85,1
39.00,67.23,1
52.00,65.94,1
48.00,64.36,1
210.00,63.99,1
39.00,65.78,1
102.00,68.19,1
64.00,70.31,1
104.00,72.36,1
67.00,74.33,1
92.00,76.10,1
39.00,77.32,1
64.00,77.62,1
49.00,77.06,1
116.00,76.38,1
71.00,76.25,1
50.00,76.18,1
46.00,75.40,1
55.00,73.94,1
90.00,72.41,1
82.00,71.48,1
53.00,70.94,1
51.00,70.16,1
61.00,69.04,1
71.00,67.91,1
67.00,67.05,1
59.00,66.36,1
118.00,66.14,1
106.00,67.11,1
64.00,68.89,1
411.00,73.31,1
36.00,81.87,1
46.00,90.05,1
154.00,95.61,1
63.00,100.13,1
53.00,102.99,1
136.00,104.28,1
48.00,104.90,1
66.00,104.36,1
61.00,102.47,1
94.00,99.98,1
43.00,97.20,1
72.00,93.95,1
37.00,90.23,1
47.00,86.00,1
57.00,81.51,1
112.00,77.65,1
157.00,75.78,1
58.00,75.86,1
77.00,76.32,1
51.00,76.31,1
65.00,75.80,1
51.00,74.82,1
86.00,73.69,1
40.00,72.57,1
60.00,71.18,1
48.00,69.50,1
167.00,68.59,1
36.00,69.09,1
41.00,69.50,1
58.00,68.97,1
135.00,68.70,1
78.00,69.59,1
127.00,71.41,1
47.00,73.58,1
128.00,75.68,1
50.00,77.69,1
54.00,78.98,1
61.00,79.16,1
64.00,78.66,1
69.00,77.82,1
52.00,76.70,1
65.00,75.28,1
86.00,73.92,1
54.00,72.86,1
62.00,71.75,1
93.00,70.78,1
57.00,70.22,1
38.00,69.49,1
77.00,68.38,1
55.00,67.31,1
34.00,66.10,1
66.00,64.56,1
70.00,63.20,1
44.00,62.14,1
60.00,61.09,1
53.00,60.06,1
63.00,59.19,1
66.00,58.60,1
40.00,58.15,1
64.00,57.63,1
82.00,57.39,1
44.00,57.56,1
60.00,57.69,1
83.00,57.92,1
68.00,58.61,1
36.00,59.31,1
113.00,59.98,1
48.00,61.07,1
61.00,62.11,1
95.00,63.03,1
115.00,64.69,1
127.00,67.55,1
78.00,71.19,1
53.00,74.38,1
64.00,76.39,1
44.00,77.24,1
47.00,76.97,1
92.00,76.11,1
77.00,75.50,1
177.00,76.04,1
127.00,78.57,1
43.00,81.82,1
53.00,83.77,1
70.00,84.28,1
64.00,84.01,1
55.00,83.11,1
109.00,82.01,1
76.00,81.35,1
41.00,80.65,1
44.00,79.13,1
60.00,76.92,1
127.00,75.10,1
39.00,74.16,1
60.00,73.18,1
37.00,71.64,1
54.00,69.64,1
40.00,67.35,1
41.00,64.83,1
60.00,62.27,1
70.00,60.17,1
73.00,58.84,1
53.00,58.11,1
41.00,57.46,1
38.00,56.49,1
37.00,55.15,1
52.00,53.66,1
112.00,52.84,1
64.00,53.32,1
91.00,54.65,1
71.00,56.47,1
44.00,58.29,1
36.00,59.35,1
58.00,59.63,1
46.00,59.52,1
46.00,59.08,1
54.00,58.38,1
58.00,57.67,1
37.00,56.93,1
73.00,56.18,1
39.00,55.59,1
66.00,55.10,1
50.00,54.73,1
51.00,54.43,1
70.00,54.24,1
50.00,54.30,1
55.00,54.41,1
51.00,54.43,1
37.00,54.25,1
43.00,53.71,1
72.00,53.14,1
53.00,52.93,1
75.00,53.11,1
182.00,54.68,1
42.00,58.08,1
64.00,61.48,1
71.00,64.02,1
38.00,65.84,1
40.00,66.59,1
74.00,66.55,1
54.00,66.31,1
84.00,66.14,1
35.00,65.95,1
94.00,65.67,1
134.00,66.24,1
76.00,68.11,1
113.00,70.58,1
78.00,73.27,1
37.00,75.42,1
96.00,76.61,1
68.00,77.44,1
63.00,77.94,1
71.00,77.94,1
97.00,77.86,1
78.00,78.05,1
40.00,78.05,1
99.00,77.57,1
58.00,77.10,1
117.00,76.93,1
46.00,77.07,1
113.00,77.28,1
40.00,77.47,1
57.00,77.11,1
52.00,75.98,1
61.00,74.45,1
40.00,72.58,1
87.00,70.64,1
65.00,69.15,1
103.00,68.37,1
71.00,68.34,1
76.00,68.72,1
37.00,68.89,1
46.00,68.36,1
69.00,67.33,1
47.00,66.23,1
156.00,65.85,1
100.00,67.17,1
72.00,69.49,1
55.00,71.42,1
56.00,72.49,1
53.00,72.73,1
39.00,72.16,1
63.00,70.93,1
64.00,69.55,1
144.00,68.97,1
84.00,69.88,1
91.00,71.59,1
70.00,73.30,1
42.00,74.43,1
64.00,74.63,1
55.00,74.17,1
114.00,73.75,1
54.00,73.77,1
93.00,73.96,1
42.00,73.98,1
43.00,73.37,1
50.00,71.94,1
59.00,70.15,1
178.00,69.33,1
34.00,70.13,1
96.00,71.26,1
71.00,72.21,1
32.00,72.77,1
55.00,72.36,1
59.00,71.31,1
41.00,69.93,1
94.00,68.50,1
70.00,67.63,1
102.00,67.51,1
79.00,68.11,1
88.00,69.20,1
59.00,70.34,1
82.00,71.26,1
55.00,71.89,1
55.00,72.04,1
41.00,71.47,1
81.00,70.47,1
138.00,70.20,1
53.00,71.05,1
93.00,72.14,1
64.00,73.08,1
70.00,73.79,1
35.00,73.86,1
78.00,73.26,1
56.00,72.42,1
53.00,71.40,1
40.00,69.92,1
195.00,69.20,1
74.00,70.52,1
48.00,72.44,1
150.00,74.14,1
59.00,76.35,1
45.00,78.09,1
94.00,78.83,1
127.00,79.77,1
43.00,81.07,1
44.00,81.48,1
37.00,80.49,1
63.00,78.58,1
85.00,76.58,1
73.00,75.05,1
105.00,74.19,1
110.00,74.34,1
85.00,75.39,1
48.00,76.40,1
59.00,76.63,1
65.00,76.18,1
39.00,75.20,1
79.00,73.81,1
41.00,72.27,1
127.00,71.10,1
88.00,71.02,1
128.00,72.19,1
47.00,73.94,1
54.00,75.10,1
59.00,75.25,1
66.00,74.84,1
37.00,73.94,1
49.00,72.37,1
127.00,70.95,1
53.00,70.47,1
73.00,70.31,1
80.00,70.17,1
38.00,69.98,1
56.00,69.27,1
40.00,68.01,1
54.00,66.37,1
41.00,64.49,1
58.00,62.53,1
53.00,60.71,1
63.00,59.19,1
48.00,57.96,1
38.00,56.73,1
102.00,55.80,1
63.00,55.76,1
96.00,56.59,1
49.00,57.85,1
36.00,58.80,1
43.00,58.92,1
103.00,58.93,1
54.00,59.49,1
72.00,60.29,1
38.00,60.86,1
70.00,61.08,1
59.00,61.19,1
101.00,61.64,1
118.00,63.08,1
190.00,66.44,1
73.00,71.57,1
56.00,76.33,1
46.00,79.35,1
36.00,80.53,1
37.00,80.04,1
63.00,78.45,1
54.00,76.44,1
64.00,74.33,1
53.00,72.20,1
39.00,69.92,1
94.00,67.74,1
72.00,66.31,1
39.00,65.33,1
56.00,64.12,1
35.00,62.62,1
39.00,60.77,1
47.00,58.67,1
43.00,56.59,1
47.00,54.62,1
41.00,52.79,1
137.00,51.86,1
50.00,52.46,1
39.00,53.46,1
62.00,54.03,1
99.00,54.84,1
68.00,56.35,1
43.00,57.94,1
75.00,59.12,1
122.00,60.67,1
48.00,62.89,1
57.00,64.77,1
72.00,65.99,1
93.00,67.17,1
44.00,68.34,1
82.00,69.14,1
118.00,70.16,1
90.00,71.98,1
55.00,73.91,1
101.00,75.42,1
57.00,76.66,1
48.00,77.24,1
52.00,76.82,1
36.00,75.50,1
89.00,73.75,1
79.00,72.40,1
96.00,71.84,1
67.00,71.83,1
73.00,71.95,1
57.00,71.90,1
84.00,71.72,1
38.00,71.38,1
93.00,70.85,1
41.00,70.30,1
59.00,69.49,1
106.00,68.76,1
54.00,68.62,1
50.00,68.43,1
74.00,67.91,1
91.00,67.66,1
50.00,67.75,1
48.00,67.57,1
86.00,67.10,1
58.00,66.83,1
98.00,66.91,1
70.00,67.43,1
106.00,68.44,1
49.00,69.68,1
65.00,70.55,1
38.00,70.67,1
76.00,70.20,1
56.00,69.56,1
87.00,69.05,1
40.00,68.61,1
46.00,67.77,1
158.00,67.28,1
41.00,68.03,1
50.00,68.74,1
42.00,68.53,1
44.00,67.56,1
37.00,65.96,1
94.00,64.32,1
69.00,63.38,1
83.00,63.19,1
39.00,63.21,1
96.00,63.27,1
38.00,63.44,1
36.00,63.19,1
47.00,62.21,1
132.00,61.57,1
45.00,61.99,1
39.00,62.42,1
145.00,62.90,1
63.00,64.42,1
84.00,66.39,1
102.00,68.44,1
73.00,70.73,1
88.00,72.90,1
35.00,74.50,1
61.00,75.06,1
37.00,74.59,1
67.00,73.44,1
144.00,72.74,1
41.00,73.09,1
34.00,73.08,1
220.00,73.39,1
141.00,76.33,1
53.00,80.62,1
104.00,84.12,1
49.00,86.54,1
48.00,87.59,1
37.00,86.98,1
55.00,85.08,1
48.00,82.44,1
93.00,79.72,1
121.00,77.96,1
65.00,77.35,1
37.00,76.71,1
65.00,75.37,1
75.00,73.85,1
66.00,72.58,1
35.00,71.21,1
40.00,69.27,1
105.00,67.33,1
84.00,66.38,1
41.00,66.06,1
80.00,65.67,1
115.00,65.82,1
92.00,67.09,1
64.00,68.83,1
40.00,70.03,1
38.00,70.11,1
52.00,69.23,1
40.00,67.78,1
99.00,66.35,1
62.00,65.54,1
71.00,65.19,1
41.00,64.79,1
40.00,63.94,1
80.00,62.84,1
66.00,62.12,1
118.00,62.26,1
53.00,63.24,1
80.00,64.41,1
68.00,65.50,1
70.00,66.52,1
95.00,67.60,1
70.00,68.92,1
52.00,70.02,1
178.00,71.45,1
88.00,74.29,1
64.00,77.45,1
48.00,79.47,1
81.00,80.36,1
56.00,80.58,1
125.00,80.72,1
65.00,81.21,1
39.00,81.33,1
187.00,81.46,1
39.00,82.61,1
111.00,83.86,1
35.00,84.49,1
246.00,85.70,1
99.00,88.96,1
92.00,92.94,1
72.00,95.82,1
42.00,97.13,1
36.00,96.48,1
45.00,94.11,1
39.00,90.54,1
57.00,86.31,1
43.00,81.86,1
61.00,77.44,1
44.00,73.26,1
52.00,69.32,1
40.00,65.58,1
104.00,62.52,1
42.00,60.53,1
60.00,59.07,1
64.00,57.88,1
98.00,57.42,1
59.00,57.81,1
43.00,58.34,1
134.00,59.12,1
47.00,60.71,1
75.00,62.43,1
68.00,63.85,1
60.00,65.07,1
98.00,66.21,1
48.00,67.39,1
78.00,68.32,1
41.00,68.78,1
71.00,68.77,1
68.00,68.56,1
105.00,68.72,1
56.00,69.33,1
95.00,70.08,1
73.00,70.97,1
114.00,72.25,1
102.00,74.15,1
42.00,76.13,1
46.00,77.04,1
43.00,76.63,1
83.00,75.56,1
123.00,75.00,1
206.00,76.52,1
55.00,80.03,1
44.00,83.02,1
40.00,84.05,1
51.00,83.50,1
45.00,81.87,1
39.00,79.39,1
117.00,76.87,1
206.00,76.39,1
56.00,78.36,1
83.00,80.58,1
52.00,81.87,1
141.00,82.86,1
106.00,84.51,1
93.00,86.66,1
111.00,88.76,1
48.00,90.42,1
54.00,90.85,1
47.00,89.86,1
36.00,87.62,1
41.00,84.34,1
46.00,80.41,1
124.00,76.89,1
71.00,74.69,1
219.00,74.57,1
118.00,77.22,1
101.00,81.27,1
109.00,85.21,1
49.00,88.42,1
57.00,90.12,1
95.00,90.55,1
89.00,90.66,1
77.00,90.64,1
286.00,92.01,1
46.00,95.76,1
36.00,98.87,1
114.00,99.88,1
74.00,100.14,1
165.00,100.56,1
103.00,101.75,1
93.00,103.13,1
45.00,103.51,1
38.00,102.20,1
59.00,99.31,1
48.00,95.50,1
66.00,91.27,1
112.00,87.45,1
150.00,85.31,1
59.00,84.76,1
70.00,84.33,1
67.00,83.41,1
47.00,82.03,1
44.00,79.95,1
36.00,77.14,1
43.00,73.76,1
50.00,70.16,1
67.00,66.85,1
95.00,64.43,1
219.00,64.39,1
60.00,67.13,1
156.00,71.09,1
48.00,75.23,1
72.00,78.57,1
58.00,80.56,1
89.00,81.69,1
52.00,82.22,1
62.00,82.01,1
96.00,81.38,1
36.00,80.61,1
35.00,79.04,1
61.00,76.60,1
36.00,73.81,1
64.00,70.87,1
44.00,68.01,1
124.00,65.87,1
86.00,65.20,1
64.00,65.51,1
67.00,65.91,1
64.00,66.20,1
120.00,66.84,1
137.00,68.77,1
67.00,71.78,1
83.00,74.62,1
58.00,76.71,1
85.00,78.12,1
48.00,78.87,1
88.00,79.07,1
113.00,79.38,1
36.00,79.89,1
66.00,79.72,1
62.00,78.85,1
40.00,77.47,1
112.00,75.97,1
80.00,75.15,1
37.00,74.60,1
40.00,73.30,1
71.00,71.45,1
52.00,69.61,1
88.00,68.08,1
70.00,67.14,1
117.00,67.06,1
75.00,67.91,1
107.00,69.41,1
83.00,71.33,1
61.00,73.19,1
139.00,75.03,1
61.00,77.25,1
93.00,79.32,1
116.00,81.27,1
38.00,83.06,1
148.00,84.49,1
64.00,86.08,1
54.00,87.16,1
48.00,86.91,1
53.00,85.50,1
56.00,83.33,1
53.00,80.72,1
75.00,78.03,1
36.00,75.37,1
72.00,72.67,1
54.00,70.15,1
104.00,68.26,1
79.00,67.39,1
59.00,67.17,1
64.00,66.94,1
40.00,66.42,1
37.00,65.32,1
143.00,64.45,1
84.00,65.02,1
37.00,66.19,1
50.00,66.60,1
58.00,66.33,1
68.00,65.86,1
57.00,65.40,1
45.00,64.77,1
43.00,63.72,1
75.00,62.51,1
81.00,61.79,1
130.00,62.23,1
67.00,63.88,1
70.00,65.79,1
51.00,67.19,1
104.00,68.32,1
40.00,69.39,1
60.00,69.92,1
40.00,69.67,1
90.00,69.07,1
80.00,68.81,1
53.00,68.84,1
41.00,68.46,1
54.00,67.46,1
45.00,66.07,1
43.00,64.37,1
74.00,62.65,1
42.00,61.19,1
56.00,59.83,1
48.00,58.49,1
35.00,57.07,1
62.00,55.60,1
83.00,54.65,1
41.00,54.35,1
94.00,54.46,1
42.00,54.99,1
36.00,55.34,1
114.00,55.66,1
104.00,57.12,1
62.00,59.50,1
81.00,61.89,1
70.00,64.10,1
44.00,65.84,1
50.00,66.71,1
52.00,66.79,1
76.00,66.54,1
66.00,66.38,1
41.00,66.12,1
72.00,65.55,1
92.00,65.24,1
54.00,65.41,1
152.00,66.29,1
36.00,68.03,1
95.00,69.74,1
172.00,72.02,1
127.00,76.09,1
59.00,80.68,1
133.00,84.62,1
55.00,87.96,1
41.00,89.94,1
66.00,90.13,1
95.00,89.50,1
56.00,88.65,1
88.00,87.50,1
107.00,86.54,1
140.00,86.60,1
37.00,87.29,1
36.00,87.00,1
52.00,85.22,1
95.00,82.99,1
51.00,80.98,1
43.00,78.75,1
56.00,76.04,1
113.00,73.69,1
65.00,72.34,1
68.00,71.49,1
149.00,71.38,1
38.00,72.29,1
35.00,72.74,1
54.00,72.02,1
60.00,70.75,1
137.00,70.03,1
51.00,70.34,1
51.00,70.64,1
100.00,70.63,1
35.00,70.65,1
109.00,70.63,1
52.00,70.81,1
93.00,71.13,1
83.00,71.68,1
121.00,72.87,1
62.00,74.56,1
53.00,75.85,1
79.00,76.36,1
63.00,76.49,1
97.00,76.55,1
35.00,76.48,1
70.00,75.85,1
75.00,74.93,1
42.00,73.92,1
102.00,72.86,1
78.00,72.33,1
37.00,71.97,1
91.00,71.32,1
124.00,71.31,1
90.00,72.50,1
76.00,74.16,1
42.00,75.32,1
58.00,75.50,1
59.00,74.93,1
91.00,74.22,1
60.00,73.72,1
63.00,73.17,1
42.00,72.21,1
47.00,70.70,1
48.00,68.73,1
68.00,66.71,1
76.00,65.11,1
36.00,63.86,1
76.00,62.65,1
48.00,61.61,1
76.00,60.84,1
38.00,60.20,1
129.00,60.05,1
50.00,60.82,1
62.00,61.80,1
42.00,62.28,1
68.00,62.36,1
77.00,62.46,1
64.00,62.85,1
130.00,63.83,1
48.00,65.56,1
40.00,66.91,1
56.00,67.23,1
105.00,67.37,1
61.00,67.96,1
127.00,69.09,1
61.00,70.79,1
48.00,72.19,1
78.00,72.81,1
37.00,72.87,1
57.00,72.23,1
50.00,71.02,1
69.00,69.62,1
39.00,68.13,1
36.00,66.25,1
47.00,63.93,1
65.00,61.67,1
44.00,59.74,1
40.00,57.89,1
79.00,56.25,1
42.00,55.13,1
93.00,54.57,1
84.00,54.92,1
37.00,55.84,1
98.00,56.81,1
51.00,58.02,1
38.00,58.98,1
62.00,59.32,1
72.00,59.56,1
65.00,60.00,1
49.00,60.43,1
77.00,60.75,1
43.00,61.01,1
43.00,60.89,1
47.00,60.24,1
107.00,59.77,1
62.00,60.11,1
149.00,61.53,1
36.00,63.85,1
47.00,65.72,1
93.00,66.81,1
39.00,67.67,1
44.00,67.87,1
36.00,67.12,1
45.00,65.66,1
97.00,64.22,1
129.00,64.05,1
62.00,65.24,1
78.00,66.73,1
60.00,67.96,1
114.00,69.22,1
59.00,70.76,1
48.00,71.90,1
66.00,72.21,1
41.00,71.89,1
83.00,71.17,1
41.00,70.32,1
90.00,69.45,1
92.00,69.09,1
119.00,69.79,1
37.00,71.04,1
143.00,72.42,1
75.00,74.38,1
131.00,76.91,1
56.00,79.55,1
157.00,82.23,1
131.00,85.70,1
63.00,89.50,1
35.00,91.82,1
85.00,92.37,1
148.00,92.64,1
65.00,93.48,1
102.00,94.17,1
46.00,94.18,1
68.00,93.22,1
81.00,91.58,1
46.00,89.59,1
82.00,87.21,1
65.00,84.80,1
53.00,82.34,1
53.00,79.60,1
114.00,77.14,1
148.00,76.26,1
68.00,77.04,1
78.00,78.08,1
91.00,78.89,1
71.00,79.64,1
203.00,81.19,1
63.00,84.14,1
95.00,87.12,1
86.00,89.31,1
41.00,90.55,1
40.00,90.20,1
131.00,89.03,1
115.00,88.65,1
36.00,88.71,1
150.00,88.61,1
79.00,89.04,1
49.00,89.37,1
44.00,88.49,1
73.00,86.62,1
184.00,85.44,1
56.00,85.84,1
42.00,86.10,1
53.00,85.03,1
62.00,83.14,1
61.00,80.92,1
119.00,79.05,1
78.00,78.16,1
127.00,78.21,1
65.00,78.95,1
55.00,79.48,1
64.00,79.24,1
40.00,78.28,1
80.00,76.82,1
57.00,75.29,1
224.00,75.08,1
65.00,77.17,1
118.00,80.12,1
106.00,83.07,1
43.00,85.65,1
57.00,86.84,1
55.00,86.60,1
133.00,86.03,1
99.00,86.22,1
39.00,86.58,1
152.00,86.71,1
38.00,87.09,1
124.00,87.41,1
60.00,87.62,1
140.00,88.06,1
102.00,89.14,1
61.00,90.36,1
73.00,90.76,1
168.00,91.16,1
115.00,92.78,1
114.00,95.19,1
91.00,97.47,1
68.00,98.97,1
103.00,99.57,1
60.00,99.49,1
38.00,98.27,1
79.00,95.86,1
83.00,93.17,1
58.00,90.55,1
45.00,87.57,1
124.00,84.66,1
40.00,82.40,1
81.00,80.32,1
41.00,78.09,1
42.00,75.49,1
110.00,72.96,1
130.00,71.88,1
72.00,72.36,1
42.00,72.95,1
39.00,72.59,1
48.00,71.29,1
44.00,69.41,1
44.00,67.18,1
105.00,65.21,1
48.00,64.07,1
68.00,63.30,1
332.00,64.93,1
45.00,70.45,1
46.00,76.20,1
58.00,79.63,1
110.00,81.84,1
102.00,83.97,1
77.00,86.03,1
149.00,88.11,1
48.00,90.27,1
59.00,91.42,1
104.00,91.50,1
85.00,91.45,1
97.00,91.45,1
61.00,91.24,1
47.00,90.26,1
55.00,88.25,1
52.00,85.53,1
59.00,82.43,1
55.00,79.20,1
52.00,75.96,1
44.00,72.66,1
56.00,69.37,1
44.00,66.23,1
37.00,63.15,1
48.00,60.09,1
71.00,57.46,1
39.00,55.46,1
48.00,53.73,1
59.00,52.25,1
58.00,51.25,1
89.00,50.97,1
94.00,51.80,1
63.00,53.55,1
61.00,55.42,1
36.00,56.84,1
61.00,57.64,1
52.00,58.08,1
35.00,58.14,1
65.00,57.81,1
80.00,57.67,1
47.00,57.90,1
52.00,58.03,1
88.00,58.19,1
218.00,60.06,1
105.00,64.75,1
76.00,70.33,1
166.00,75.75,1
71.00,81.32,1
71.00,85.99,1
94.00,89.23,1
121.00,91.89,1
54.00,94.09,1
162.00,95.89,1
38.00,97.52,1
68.00,98.06,1
42.00,97.02,1
44.00,94.64,1
50.00,91.19,1
103.00,87.59,1
93.00,84.84,1
38.00,82.64,1
90.00,80.38,1
157.00,79.10,1
87.00,79.59,1
62.00,80.58,1
118.00,81.39,1
47.00,82.16,1
40.00,82.10,1
35.00,80.67,1
56.00,78.29,1
86.00,75.82,1
43.00,73.68,1
72.00,71.63,1
38.00,69.56,1
104.00,67.77,1
52.00,66.63,1
112.00,66.21,1
78.00,66.63,1
91.00,67.72,1
43.00,68.81,1
119.00,69.82,1
62.00,71.11,1
82.00,72.43,1
72.00,73.50,1
127.00,74.81,1
95.00,76.81,1
76.00,79.03,1
45.00,80.52,1
94.00,81.14,1
95.00,81.63,1
146.00,82.88,1
58.00,84.76,1
64.00,86.09,1
103.00,86.62,1
51.00,86.82,1
42.00,86.14,1
68.00,84.45,1
43.00,82.19,1
53.00,79.47,1
47.00,76.39,1
57.00,73.20,1
56.00,70.16,1
96.00,67.71,1
92.00,66.43,1
73.00,66.18,1
75.00,66.40,1
167.00,67.59,1
58.00,70.14,1
128.00,73.16,1
71.00,76.22,1
60.00,78.76,1
68.00,80.23,1
118.00,81.29,1
86.00,82.63,1
106.00,84.20,1
104.00,85.93,1
112.00,87.93,1
44.00,89.62,1
75.00,90.21,1
43.00,89.62,1
48.00,87.93,1
93.00,85.65,1
62.00,83.54,1
126.00,82.00,1
60.00,81.21,1
154.00,81.24,1
116.00,82.58,1
50.00,84.48,1
42.00,85.24,1
155.00,85.38,1
65.00,86.12,1
80.00,86.86,1
64.00,86.93,1
43.00,86.18,1
57.00,84.46,1
177.00,83.12,1
61.00,83.26,1
64.00,83.61,1
73.00,83.28,1
74.00,82.62,1
76.00,81.84,1
47.00,80.80,1
106.00,79.61,1
120.00,79.22,1
69.00,79.73,1
47.00,80.01,1
53.00,79.36,1
38.00,77.82,1
47.00,75.51,1
67.00,72.91,1
207.00,71.74,1
42.00,72.80,1
56.00,74.08,1
136.00,74.99,1
64.00,76.45,1
83.00,77.91,1
39.00,78.65,1
68.00,78.50,1
69.00,77.81,1
42.00,76.75,1
83.00,75.36,1
51.00,73.95,1
69.00,72.53,1
111.00,71.54,1
68.00,71.39,1
57.00,71.43,1
55.00,71.06,1
36.00,70.10,1
60.00,68.60,1
78.00,67.12,1
139.00,66.72,1
68.00,67.71,1
44.00,68.86,1
194.00,70.36,1
41.00,73.08,1
58.00,75.50,1
157.00,77.43,1
48.00,79.81,1
37.00,81.37,1
66.00,81.42,1
65.00,80.69,1
107.00,79.97,1
55.00,79.55,1
38.00,78.69,1
90.00,77.27,1
102.00,76.27,1
42.00,75.78,1
97.00,75.24,1
41.00,74.63,1
100.00,74.00,1
69.00,73.64,1
98.00,73.71,1
48.00,73.92,1
51.00,73.65,1
44.00,72.62,1
85.00,71.28,1
89.00,70.41,1
97.00,70.40,1
37.00,70.71,1
64.00,70.55,1
62.00,69.96,1
52.00,69.18,1
58.00,68.15,1
35.00,66.79,1
72.00,65.20,1
37.00,63.62,1
77.00,62.16,1
57.00,61.05,1
45.00,60.13,1
39.00,58.99,1
60.00,57.68,1
38.00,56.40,1
64.00,55.23,1
124.00,54.90,1
38.00,55.74,1
50.00,56.60,1
165.00,57.88,1
49.00,60.49,1
48.00,63.04,1
50.00,64.50,1
68.00,65.26,1
50.00,65.63,1
99.00,65.95,1
77.00,66.70,1
65.00,67.69,1
48.00,68.31,1
44.00,68.22,1
80.00,67.67,1
62.00,67.22,1
44.00,66.70,1
39.00,65.67,1
38.00,64.03,1
94.00,62.39,1
76.00,61.59,1
167.00,62.36,1
57.00,64.77,1
199.00,68.43,1
77.00,73.33,1
40.00,77.88,1
60.00,80.55,1
35.00,81.51,1
97.00,81.43,1
42.00,80.90,1
35.00,79.61,1
155.00,78.20,1
42.00,77.75,1
75.00,77.44,1
61.00,76.73,1
68.00,75.84,1
36.00,74.58,1
41.00,72.66,1
72.00,70.37,1
64.00,68.36,1
80.00,66.89,1
63.00,65.93,1
108.00,65.63,1
64.00,66.06,1
80.00,66.82,1
64.00,67.57,1
90.00,68.37,1
54.00,69.18,1
79.00,69.80,1
44.00,70.07,1
60.00,69.84,1
56.00,69.17,1
35.00,68.08,1
40.00,66.37,1
131.00,64.91,1
147.00,65.38,1
55.00,67.55,1
43.00,69.44,1
58.00,70.22,1
98.00,70.62,1
38.00,71.00,1
66.00,70.91,1
153.00,71.18,1
38.00,72.42,1
91.00,73.61,1
41.00,74.24,1
38.00,74.01,1
162.00,73.69,1
59.00,74.51,1
72.00,75.57,1
163.00,76.91,1
48.00,79.07,1
136.00,81.37,1
116.00,84.03,1
94.00,87.11,1
44.00,89.44,1
50.00,90.18,1
37.00,89.23,1
44.00,86.94,1
46.00,83.74,1
44.00,80.01,1
97.00,76.44,1
127.00,74.23,1
119.00,73.99,1
54.00,74.84,1
47.00,75.28,1
51.00,74.77,1
54.00,73.59,1
45.00,71.94,1
47.00,69.88,1
84.00,67.85,1
59.00,66.33,1
60.00,65.15,1
36.00,63.87,1
45.00,62.25,1
65.00,60.54,1
42.00,59.04,1
41.00,57.51,1
102.00,56.31,1
37.00,55.88,1
41.00,55.50,1
84.00,55.05,1
110.00,55.53,1
104.00,57.44,1
41.00,59.97,1
38.00,61.77,1
71.00,62.63,1
173.00,64.14,1
42.00,66.97,1
60.00,69.52,1
36.00,70.80,1
51.00,70.93,1
203.00,71.51,1
39.00,73.70,1
54.00,75.70,1
41.00,76.26,1
41.00,75.60,1
102.00,74.46,1
127.00,74.21,1
84.00,75.22,1
58.00,76.42,1
88.00,77.18,1
86.00,77.85,1
152.00,79.19,1
56.00,81.28,1
61.00,82.87,1
83.00,83.49,1
40.00,83.41,1
59.00,82.40,1
50.00,80.63,1
134.00,79.05,1
45.00,78.23,1
128.00,77.93,1
42.00,77.97,1
108.00,78.06,1
122.00,78.70,1
56.00,79.95,1
104.00,81.06,1
46.00,81.78,1
93.00,82.01,1
67.00,81.94,1
40.00,81.39,1
53.00,79.93,1
51.00,77.80,1
38.00,75.20,1
65.00,72.32,1
37.00,69.44,1
60.00,66.60,1
77.00,64.18,1
127.00,63.04,1
56.00,63.29,1
42.00,63.71,1
39.00,63.41,1
57.00,62.54,1
57.00,61.55,1
40.00,60.50,1
62.00,59.35,1
63.00,58.39,1
46.00,57.67,1
45.00,56.86,1
69.00,56.06,1
73.00,55.73,1
61.00,55.91,1
40.00,56.15,1
52.00,56.06,1
48.00,55.73,1
138.00,55.99,1
52.00,57.46,1
55.00,59.13,1
43.00,60.14,1
54.00,60.53,1
61.00,60.58,1
46.00,60.44,1
44.00,59.97,1
40.00,59.06,1
63.00,57.96,1
57.00,57.05,1
54.00,56.39,1
71.00,55.97,1
92.00,56.18,1
42.00,56.94,1
140.00,58.26,1
39.00,60.32,1
77.00,62.33,1
102.00,64.24,1
38.00,66.20,1
120.00,67.97,1
38.00,69.68,1
37.00,70.60,1
91.00,70.64,1
148.00,71.37,1
78.00,73.41,1
64.00,75.57,1
58.00,76.89,1
144.00,78.03,1
142.00,80.36,1
130.00,84.11,1
162.00,88.85,1
56.00,93.73,1
51.00,97.02,1
68.00,98.18,1
52.00,97.79,1
36.00,95.95,1
55.00,92.85,1
86.00,89.35,1
77.00,86.24,1
70.00,83.59,1
62.00,81.12,1
56.00,78.62,1
54.00,76.01,1
46.00,73.24,1
153.00,71.19,1
87.00,70.90,1
72.00,71.65,1
180.00,73.24,1
40.00,75.94,1
66.00,78.18,1
68.00,79.28,1
45.00,79.54,1
44.00,78.75,1
51.00,77.08,1
131.00,75.55,1
86.00,75.19,1
142.00,76.13,1
36.00,77.68,1
149.00,79.29,1
62.00,81.17,1
37.00,82.47,1
79.00,82.49,1
108.00,82.29,1
112.00,82.79,1
79.00,83.83,1
169.00,85.48,1
86.00,88.08,1
44.00,90.32,1
82.00,91.14,1
96.00,91.26,1
132.00,91.70,1
84.00,92.67,1
56.00,93.29,1
50.00,92.70,1
54.00,90.91,1
106.00,88.72,1
139.00,87.47,1
40.00,87.14,1
41.00,86.16,1
128.00,84.64,1
92.00,83.90,1
68.00,83.72,1
58.00,83.17,1
59.00,82.02,1
82.00,80.55,1
83.00,79.31,1
51.00,78.21,1
62.00,76.83,1
58.00,75.16,1
80.00,73.54,1
49.00,72.09,1
44.00,70.43,1
58.00,68.45,1
59.00,66.49,1
55.00,64.71,1
44.00,62.98,1
100.00,61.60,1
59.00,61.01,1
69.00,60.93,1
70.00,61.06,1
38.00,61.18,1
43.00,60.81,1
64.00,60.07,1
130.00,60.01,1
58.00,61.14,1
123.00,63.03,1
43.00,65.26,1
43.00,66.88,1
74.00,67.58,1
36.00,67.75,1
71.00,67.43,1
95.00,67.22,1
47.00,67.38,1
58.00,67.32,1
44.00,66.76,1
35.00,65.62,1
90.00,64.27,1
51.00,63.32,1
73.00,62.69,1
69.00,62.34,1
41.00,62.10,1
44.00,61.48,1
45.00,60.40,1
43.00,59.04,1
110.00,58.05,1
47.00,57.96,1
99.00,58.47,1
50.00,59.36,1
46.00,60.10,1
40.00,60.18,1
58.00,59.77,1
69.00,59.35,1
39.00,59.00,1
62.00,58.51,1
50.00,57.97,1
47.00,57.37,1
36.00,56.50,1
74.00,55.57,1
47.00,54.93,1
53.00,54.46,1
35.00,53.86,1
61.00,53.13,1
53.00,52.56,1
92.00,52.53,1
61.00,53.24,1
78.00,54.43,1
39.00,55.65,1
74.00,56.64,1
38.00,57.38,1
36.00,57.57,1
68.00,57.29,1
51.00,57.02,1
86.00,57.05,1
40.00,57.36,1
72.00,57.66,1
63.00,58.03,1
73.00,58.63,1
36.00,59.18,1
61.00,59.34,1
70.00,59.38,1
53.00,59.55,1
76.00,59.80,1
87.00,60.42,1
37.00,61.27,1
55.00,61.68,1
79.00,61.81,1
42.00,61.98,1
78.00,62.05,1
75.00,62.31,1
108.00,63.22,1
43.00,64.60,1
49.00,65.51,1
135.00,66.32,1
77.00,68.02,1
53.00,69.89,1
58.00,71.00,1
57.00,71.35,1
68.00,71.24,1
80.00,71.06,1
47.00,70.84,1
55.00,70.22,1
56.00,69.18,1
78.00,68.13,1
172.00,68.26,1
54.00,70.04,1
81.00,72.06,1
57.00,73.47,1
53.00,74.15,1
64.00,74.09,1
56.00,73.55,1
54.00,72.61,1
130.00,71.92,1
53.00,72.06,1
49.00,72.13,1
59.00,71.54,1
49.00,70.51,1
47.00,69.08,1
57.00,67.36,1
60.00,65.65,1
44.00,64.01,1
109.00,62.77,1
49.00,62.32,1
52.00,62.07,1
96.00,61.88,1
54.00,62.16,1
72.00,62.60,1
59.00,62.98,1
53.00,63.20,1
62.00,63.15,1
46.00,62.87,1
104.00,62.71,1
80.00,63.27,1
62.00,64.30,1
48.00,65.04,1
63.00,65.29,1
71.00,65.33,1
58.00,65.39,1
67.00,65.36,1
43.00,65.12,1
70.00,64.63,1
40.00,63.96,1
74.00,63.19,1
47.00,62.45,1
40.00,61.55,1
