107.00,213.56,0
174.00,204.61,0
99.00,195.59,0
97.00,186.13,0
70.00,175.77,0
55.00,164.44,0
49.00,152.29,0
40.00,139.59,0
114.00,127.32,0
126.00,117.03,0
135.00,109.50,0
174.00,104.87,0
143.00,103.05,0
262.00,104.25,0
234.00,109.19,0
252.00,117.44,0
244.00,127.95,0
272.00,140.08,0
250.00,153.30,0
252.00,166.75,0
284.00,180.05,0
268.00,193.20,0
211.00,205.34,0
208.00,215.20,0
183.00,222.26,0
112.00,225.92,0
242.00,226.62,0
82.00,225.23,0
164.00,221.45,0
76.00,215.24,0
89.00,206.72,0
67.00,196.03,0
91.00,184.01,0
47.00,171.20,0
52.00,157.76,0
71.00,144.15,0
71.00,131.23,0
147.00,120.05,0
196.00,112.24,0
179.00,108.51,0
195.00,108.31,0
218.00,111.10,0
205.00,116.44,0
236.00,123.85,0
199.00,132.64,0
253.00,142.27,0
268.00,152.98,0
281.00,164.89,0
206.00,177.04,0
212.00,187.90,0
195.00,196.76,0
118.00,202.96,0
116.00,205.45,0
85.00,204.14,0
46.00,199.17,0
80.00,190.93,0
48.00,180.48,0
41.00,168.34,0
76.00,155.23,0
92.00,142.50,0
134.00,131.38,0
103.00,122.41,0
132.00,115.44,0
188.00,110.92,0
189.00,109.61,0
224.00,111.49,0
263.00,116.70,0
280.00,125.33,0
274.00,136.77,0
269.00,149.99,0
233.00,163.74,0
266.00,177.04,0
234.00,189.55,0
252.00,200.94,0
270.00,211.29,0
230.00,220.62,0
212.00,228.20,0
172.00,233.21,0
198.00,235.53,0
105.00,235.06,0
123.00,231.28,0
48.00,224.03,0
87.00,213.65,0
75.00,201.15,0
46.00,187.31,0
92.00,172.74,0
65.00,158.40,0
89.00,144.82,0
114.00,132.67,0
118.00,122.63,0
124.00,114.89,0
156.00,109.52,0
157.00,106.71,0
220.00,106.75,0
252.00,110.25,0
234.00,117.16,0
243.00,126.55,0
216.00,137.31,0
277.00,148.84,0
269.00,161.25,0
244.00,174.12,0
231.00,186.31,0
232.00,197.17,0
250.00,206.71,0
220.00,215.00,0
219.00,221.70,0
136.00,226.03,0
122.00,226.92,0
136.00,224.39,0
75.00,218.89,0
80.00,210.52,0
75.00,199.77,0
36.00,187.22,0
81.00,173.39,0
56.00,159.22,0
69.00,145.36,0
127.00,132.68,0
118.00,122.31,0
135.00,114.49,0
144.00,109.14,0
140.00,106.13,0
174.00,105.29,0
188.00,106.75,0
288.00,111.25,0
247.00,119.34,0
241.00,130.00,0
272.00,142.07,0
297.00,155.51,0
267.00,169.94,0
253.00,184.26,0
280.00,197.75,0
277.00,210.49,0
246.00,222.15,0
191.00,231.59,0
179.00,237.75,0
119.00,240.11,0
164.00,238.77,0
60.00,234.07,0
101.00,225.89,0
36.00,214.66,0
55.00,200.91,0
51.00,185.41,0
59.00,169.27,0
76.00,153.45,0
111.00,139.01,0
98.00,126.72,0
108.00,116.62,0
114.00,108.61,0
158.00,103.04,0
249.00,100.99,0
247.00,103.54,0
207.00,109.92,0
261.00,118.74,0
240.00,129.52,0
300.00,142.04,0
226.00,155.68,0
274.00,169.38,0
274.00,182.84,0
249.00,195.86,0
252.00,207.76,0
240.00,218.14,0
263.00,227.04,0
202.00,234.29,0
225.00,239.44,0
187.00,242.37,0
143.00,242.71,0
94.00,239.61,0
100.00,232.91,0
57.00,223.06,0
52.00,210.38,0
45.00,195.51,0
44.00,179.26,0
71.00,162.68,0
76.00,146.87,0
142.00,133.02,0
114.00,122.02,0
132.00,113.77,0
101.00,107.71,0
160.00,103.62,0
188.00,102.12,0
252.00,104.16,0
261.00,110.13,0
240.00,119.46,0
248.00,130.82,0
266.00,143.43,0
284.00,157.06,0
280.00,171.45,0
231.00,185.59,0
253.00,198.42,0
227.00,209.58,0
229.00,218.86,0
187.00,225.89,0
200.00,230.39,0
126.00,232.07,0
158.00,230.69,0
59.00,226.16,0
108.00,218.37,0
36.00,207.79,0
38.00,194.65,0
41.00,179.47,0
50.00,163.41,0
100.00,147.79,0
72.00,133.70,0
126.00,121.63,0
118.00,112.08,0
130.00,105.18,0
147.00,100.83,0
244.00,99.73,0
243.00,102.85,0
240.00,109.84,0
258.00,119.59,0
279.00,131.61,0
256.00,145.22,0
241.00,159.33,0
252.00,172.97,0
227.00,185.64,0
223.00,196.81,0
273.00,206.62,0
197.00,215.22,0
250.00,222.22,0
186.00,227.50,0
162.00,230.45,0
108.00,230.19,0
188.00,227.07,0
53.00,221.57,0
124.00,213.50,0
48.00,203.21,0
38.00,190.77,0
87.00,176.74,0
50.00,162.39,0
46.00,148.02,0
90.00,134.12,0
90.00,121.73,0
110.00,111.43,0
162.00,103.84,0
202.00,99.88,0
190.00,99.80,0
215.00,103.08,0
262.00,109.49,0
295.00,119.27,0
278.00,132.16,0
236.00,146.56,0
232.00,160.77,0
249.00,174.09,0
256.00,186.62,0
188.00,197.82,0
220.00,206.83,0
213.00,213.78,0
196.00,218.95,0
149.00,221.85,0
134.00,221.87,0
111.00,218.93,0
56.00,212.83,0
43.00,203.33,0
73.00,191.20,0
57.00,177.66,0
74.00,163.65,0
122.00,150.28,0
112.00,138.71,0
224.00,130.04,0
136.00,124.94,0
150.00,122.28,0
161.00,121.16,0
231.00,122.10,0
234.00,125.89,0
227.00,132.25,0
276.00,140.68,0
268.00,151.07,0
268.00,162.87,0
235.00,175.06,0
235.00,186.57,0
289.00,197.36,0
207.00,207.48,0
238.00,216.08,0
204.00,222.80,0
266.00,228.09,0
208.00,232.36,0
157.00,234.85,0
78.00,233.95,0
134.00,229.22,0
84.00,221.61,0
92.00,211.75,0
38.00,199.75,0
39.00,185.70,0
91.00,170.55,0
98.00,156.04,0
103.00,143.07,0
105.00,131.86,0
100.00,122.40,0
180.00,115.17,0
159.00,111.00,0
212.00,110.04,0
225.00,112.42,0
262.00,118.17,0
246.00,126.87,0
256.00,137.61,0
269.00,149.74,0
245.00,162.62,0
244.00,175.32,0
246.00,187.28,0
260.00,198.41,0
229.00,208.53,0
218.00,217.07,0
190.00,223.45,0
168.00,227.23,0
128.00,228.02,0
116.00,225.49,0
85.00,219.80,0
206.00,212.28,0
48.00,204.03,0
43.00,193.89,0
43.00,181.23,0
80.00,167.34,0
81.00,153.60,0
83.00,140.78,0
101.00,129.26,0
124.00,119.61,0
199.00,112.83,0
172.00,109.72,0
206.00,109.92,0
194.00,112.86,0
220.00,118.11,0
272.00,125.66,0
263.00,135.76,0
282.00,147.90,0
227.00,160.94,0
248.00,173.65,0
240.00,185.54,0
229.00,196.35,0
274.00,206.11,0
238.00,215.10,0
253.00,223.11,0
171.00,229.39,0
161.00,232.78,0
117.00,232.70,0
108.00,229.09,0
72.00,222.11,0
110.00,212.45,0
46.00,200.89,0
80.00,187.77,0
60.00,173.76,0
71.00,159.60,0
103.00,146.08,0
107.00,134.16,0
107.00,124.16,0
155.00,116.39,0
135.00,111.23,0
216.00,108.95,0
161.00,109.60,0
271.00,113.19,0
224.00,119.84,0
278.00,129.14,0
268.00,140.62,0
303.00,153.92,0
259.00,168.29,0
272.00,182.67,0
263.00,196.37,0
251.00,208.97,0
252.00,220.04,0
225.00,229.28,0
207.00,236.21,0
129.00,240.01,0
148.00,240.06,0
79.00,236.32,0
122.00,229.21,0
61.00,219.43,0
87.00,207.48,0
37.00,193.72,0
40.00,178.49,0
106.00,162.86,0
62.00,148.19,0
61.00,134.54,0
97.00,122.05,0
114.00,111.56,0
160.00,103.92,0
180.00,99.77,0
204.00,99.28,0
252.00,102.63,0
267.00,109.82,0
267.00,120.35,0
268.00,133.17,0
225.00,147.05,0
240.00,160.64,0
224.00,173.35,0
238.00,184.93,0
254.00,195.50,0
230.00,205.14,0
240.00,213.57,0
154.00,220.05,0
221.00,224.07,0
186.00,226.17,0
116.00,226.14,0
82.00,222.80,0
118.00,216.15,0
39.00,206.92,0
43.00,195.01,0
45.00,180.90,0
100.00,166.09,0
89.00,152.12,0
112.00,139.69,0
104.00,129.08,0
100.00,120.22,0
168.00,113.42,0
148.00,109.32,0
194.00,108.09,0
272.00,110.27,0
224.00,116.24,0
293.00,125.29,0
227.00,136.59,0
285.00,149.18,0
313.00,163.02,0
238.00,177.66,0
259.00,191.57,0
219.00,203.87,0
223.00,214.08,0
172.00,221.67,0
206.00,226.50,0
181.00,229.01,0
136.00,229.17,0
77.00,226.11,0
104.00,219.56,0
39.00,209.94,0
105.00,198.06,0
37.00,184.84,0
34.00,170.40,0
83.00,155.34,0
66.00,140.95,0
102.00,127.97,0
72.00,116.71,0
129.00,107.38,0
138.00,100.61,0
171.00,96.89,0
124.00,95.85,0
226.00,97.24,0
266.00,102.10,0
193.00,110.27,0
242.00,120.23,0
264.00,131.62,0
262.00,144.46,0
246.00,157.99,0
250.00,171.32,0
235.00,183.92,0
258.00,195.48,0
262.00,206.19,0
197.00,215.60,0
188.00,222.59,0
150.00,226.54,0
131.00,227.11,0
101.00,224.29,0
74.00,218.10,0
47.00,208.67,0
76.00,196.59,0
105.00,183.44,0
39.00,170.06,0
72.00,156.35,0
123.00,143.30,0
111.00,132.19,0
71.00,122.82,0
153.00,115.00,0
172.00,109.80,0
191.00,107.94,0
240.00,109.53,0
249.00,114.74,0
294.00,123.41,0
278.00,135.20,0
280.00,149.05,0
259.00,163.71,0
255.00,178.17,0
247.00,191.66,0
229.00,203.66,0
275.00,214.14,0
261.00,223.63,0
201.00,231.70,0
182.00,237.13,0
150.00,239.33,0
88.00,237.81,0
120.00,232.45,0
82.00,224.02,0
68.00,213.16,0
35.00,199.98,0
46.00,184.80,0
80.00,168.86,0
42.00,153.21,0
151.00,138.85,0
126.00,127.24,0
119.00,118.53,0
206.00,112.72,0
208.00,110.72,0
250.00,112.78,0
235.00,118.48,0
256.00,126.95,0
309.00,137.93,0
270.00,151.14,0
266.00,165.39,0
247.00,179.43,0
258.00,192.58,0
212.00,204.26,0
256.00,214.15,0
259.00,222.70,0
282.00,230.57,0
206.00,237.43,0
165.00,241.89,0
156.00,243.01,0
152.00,240.99,0
61.00,235.78,0
80.00,226.99,0
37.00,214.95,0
66.00,200.53,0
45.00,184.66,0
38.00,168.13,0
143.00,152.16,0
94.00,138.46,0
118.00,127.18,0
109.00,118.05,0
194.00,111.58,0
205.00,108.77,0
180.00,109.49,0
247.00,113.12,0
225.00,119.54,0
290.00,128.62,0
239.00,139.86,0
228.00,152.04,0
264.00,164.20,0
278.00,176.55,0
264.00,189.05,0
279.00,201.26,0
234.00,212.62,0
214.00,222.17,0
214.00,229.31,0
175.00,233.92,0
134.00,235.42,0
122.00,233.40,0
119.00,228.26,0
66.00,220.31,0
102.00,209.88,0
39.00,197.54,0
37.00,183.40,0
79.00,168.14,0
88.00,153.32,0
82.00,139.78,0
120.00,127.94,0
139.00,118.52,0
131.00,111.81,0
199.00,107.97,0
99.00,106.69,0
272.00,107.73,0
255.00,112.40,0
306.00,121.25,0
262.00,133.32,0
283.00,147.27,0
274.00,162.13,0
266.00,177.16,0
258.00,191.51,0
274.00,204.82,0
258.00,216.96,0
261.00,227.69,0
198.00,236.41,0
180.00,242.13,0
150.00,244.34,0
125.00,242.97,0
68.00,237.73,0
113.00,228.95,0
54.00,217.56,0
64.00,204.05,0
41.00,188.90,0
73.00,172.92,0
105.00,157.47,0
144.00,144.05,0
114.00,133.28,0
123.00,124.78,0
152.00,118.42,0
150.00,114.45,0
169.00,112.78,0
225.00,113.67,0
328.00,118.49,0
271.00,127.77,0
389.00,140.99,0
228.00,156.97,0
283.00,173.22,0
252.00,188.48,0
272.00,202.60,0
280.00,215.53,0
270.00,227.34,0
279.00,237.88,0
214.00,246.63,0
179.00,252.44,0
202.00,254.89,0
169.00,254.52,0
227.00,252.16,0
81.00,247.83,0
51.00,239.98,0
39.00,227.87,0
76.00,212.86,0
39.00,196.28,0
61.00,178.97,0
94.00,162.01,0
149.00,147.05,0
136.00,135.20,0
158.00,126.50,0
165.00,120.83,0
212.00,118.35,0
254.00,119.50,0
288.00,124.76,0
252.00,133.59,0
260.00,144.60,0
259.00,156.71,0
297.00,169.63,0
328.00,183.65,0
230.00,198.03,0
286.00,211.29,0
228.00,222.89,0
206.00,232.17,0
216.00,238.62,0
186.00,242.44,0
130.00,243.23,0
122.00,240.46,0
34.00,233.68,0
51.00,222.74,0
44.00,208.50,0
91.00,192.61,0
95.00,176.81,0
67.00,161.83,0
138.00,148.11,0
170.00,137.05,0
159.00,129.38,0
175.00,124.79,0
211.00,123.15,0
251.00,124.84,0
268.00,130.17,0
272.00,138.63,0
310.00,149.76,0
268.00,162.84,0
293.00,176.80,0
268.00,190.83,0
278.00,204.34,0
221.00,216.49,0
268.00,226.73,0
210.00,235.01,0
189.00,240.77,0
170.00,243.46,0
150.00,243.05,0
116.00,239.56,0
101.00,232.93,0
44.00,223.17,0
71.00,210.51,0
66.00,195.99,0
48.00,180.53,0
78.00,164.80,0
96.00,149.87,0
125.00,136.83,0
91.00,126.01,0
127.00,117.20,0
144.00,110.69,0
151.00,106.77,0
201.00,105.60,0
228.00,107.71,0
315.00,113.77,0
272.00,123.92,0
235.00,136.58,0
238.00,149.79,0
243.00,162.76,0
268.00,175.43,0
269.00,187.91,0
282.00,200.18,0
235.00,211.71,0
255.00,221.80,0
212.00,230.03,0
210.00,236.02,0
179.00,239.48,0
155.00,240.12,0
114.00,237.61,0
107.00,231.89,0
36.00,222.81,0
37.00,210.29,0
43.00,195.08,0
108.00,178.94,0
78.00,163.54,0
71.00,149.21,0
155.00,136.48,0
134.00,126.56,0
155.00,119.62,0
213.00,115.86,0
189.00,115.52,0
261.00,118.46,0
260.00,124.83,0
285.00,134.41,0
307.00,146.68,0
224.00,160.40,0
270.00,174.03,0
288.00,187.32,0
265.00,200.41,0
225.00,212.35,0
276.00,222.60,0
255.00,231.55,0
191.00,238.77,0
153.00,242.90,0
148.00,243.33,0
98.00,240.13,0
129.00,233.59,0
62.00,224.37,0
89.00,212.80,0
43.00,199.30,0
60.00,184.41,0
64.00,168.89,0
59.00,153.54,0
70.00,138.87,0
119.00,125.76,0
151.00,115.44,0
141.00,108.44,0
207.00,104.81,0
216.00,104.97,0
253.00,109.03,0
309.00,117.07,0
292.00,128.90,0
244.00,143.04,0
289.00,157.92,0
267.00,173.01,0
250.00,187.60,0
236.00,200.79,0
291.00,212.54,0
275.00,223.48,0
258.00,233.49,0
194.00,241.51,0
196.00,246.58,0
162.00,248.47,0
152.00,247.27,0
101.00,242.86,0
133.00,235.54,0
79.00,225.86,0
118.00,214.35,0
37.00,201.40,0
53.00,186.94,0
83.00,171.58,0
68.00,156.60,0
99.00,142.67,0
115.00,130.52,0
159.00,121.01,0
103.00,114.20,0
188.00,109.81,0
205.00,108.54,0
231.00,110.80,0
258.00,116.49,0
249.00,125.16,0
284.00,136.24,0
245.00,148.96,0
260.00,162.22,0
283.00,175.60,0
224.00,188.65,0
270.00,200.60,0
294.00,211.79,0
279.00,222.71,0
238.00,232.65,0
204.00,240.44,0
163.00,245.10,0
146.00,246.15,0
93.00,243.35,0
112.00,236.84,0
64.00,227.15,0
75.00,214.88,0
47.00,200.57,0
60.00,184.94,0
45.00,168.71,0
81.00,152.68,0
109.00,138.05,0
135.00,125.97,0
143.00,116.92,0
179.00,111.18,0
197.00,108.90,0
256.00,110.47,0
242.00,115.84,0
296.00,124.64,0
263.00,136.30,0
270.00,149.66,0
248.00,163.56,0
278.00,177.37,0
269.00,190.88,0
264.00,203.78,0
249.00,215.49,0
245.00,225.58,0
192.00,233.48,0
182.00,238.47,0
169.00,240.37,0
114.00,239.11,0
127.00,234.59,0
100.00,227.28,0
84.00,217.60,0
61.00,205.79,0
37.00,192.00,0
35.00,176.57,0
86.00,160.59,0
79.00,145.49,0
122.00,132.23,0
105.00,121.32,0
183.00,113.29,0
196.00,108.96,0
239.00,108.79,0
223.00,112.46,0
266.00,119.40,0
251.00,129.07,0
278.00,140.81,0
300.00,154.23,0
249.00,168.62,0
252.00,182.67,0
234.00,195.46,0
259.00,206.82,0
268.00,217.03,0
274.00,226.46,0
213.00,234.64,0
221.00,240.71,0
139.00,243.94,0
139.00,243.53,0
140.00,239.77,0
119.00,233.42,0
65.00,224.50,0
66.00,212.93,0
57.00,199.21,0
74.00,184.29,0
52.00,168.97,0
54.00,153.65,0
90.00,138.99,0
126.00,126.23,0
131.00,116.26,0
193.00,109.64,0
176.00,106.68,0
264.00,107.59,0
244.00,112.54,0
271.00,121.05,0
275.00,132.29,0
270.00,145.50,0
255.00,159.59,0
268.00,173.66,0
268.00,187.39,0
249.00,200.33,0
275.00,212.15,0
193.00,222.31,0
234.00,230.08,0
164.00,235.21,0
138.00,237.05,0
104.00,235.14,0
150.00,230.01,0
75.00,222.42,0
108.00,212.68,0
39.00,200.97,0
66.00,187.52,0
57.00,172.99,0
69.00,158.28,0
106.00,144.36,0
106.00,132.21,0
135.00,122.35,0
89.00,114.66,0
188.00,109.17,0
156.00,106.51,0
220.00,106.93,0
263.00,110.80,0
236.00,118.27,0
292.00,128.56,0
299.00,141.34,0
248.00,155.76,0
268.00,170.37,0
268.00,184.53,0
264.00,198.01,0
249.00,210.36,0
234.00,221.02,0
200.00,229.39,0
184.00,234.90,0
121.00,237.03,0
135.00,235.45,0
113.00,230.63,0
106.00,223.21,0
52.00,213.28,0
83.00,201.12,0
43.00,187.36,0
53.00,172.56,0
62.00,157.36,0
88.00,142.76,0
82.00,129.59,0
99.00,118.21,0
135.00,109.07,0
179.00,103.09,0
190.00,100.75,0
229.00,102.12,0
223.00,107.08,0
280.00,115.19,0
272.00,126.30,0
276.00,139.72,0
264.00,154.32,0
277.00,169.27,0
273.00,184.07,0
239.00,198.02,0
235.00,210.23,0
260.00,220.56,0
158.00,228.66,0
155.00,233.30,0
149.00,234.18,0
129.00,231.95,0
129.00,227.00,0
74.00,219.54,0
61.00,209.38,0
47.00,196.73,0
44.00,182.27,0
73.00,166.91,0
36.00,151.60,0
132.00,137.24,0
120.00,125.26,0
118.00,116.06,0
184.00,109.71,0
216.00,107.04,0
202.00,108.26,0
199.00,112.39,0
305.00,119.28,0
258.00,129.41,0
290.00,142.01,0
244.00,155.83,0
192.00,169.19,0
304.00,181.45,0
255.00,193.48,0
276.00,205.24,0
243.00,216.08,0
224.00,225.32,0
150.00,231.84,0
202.00,235.14,0
134.00,235.53,0
120.00,232.89,0
77.00,226.90,0
106.00,217.96,0
65.00,206.88,0
52.00,194.02,0
61.00,179.73,0
54.00,164.80,0
113.00,150.32,0
51.00,137.08,0
136.00,125.40,0
99.00,115.85,0
145.00,108.72,0
169.00,104.30,0
211.00,103.27,0
264.00,106.11,0
242.00,112.85,0
286.00,122.87,0
282.00,135.46,0
268.00,149.81,0
258.00,164.67,0
265.00,179.18,0
279.00,193.10,0
202.00,205.77,0
277.00,216.53,0
234.00,225.73,0
204.00,233.10,0
137.00,237.39,0
130.00,237.84,0
66.00,234.14,0
106.00,226.54,0
64.00,216.10,0
82.00,203.62,0
36.00,189.58,0
36.00,174.22,0
58.00,158.16,0
100.00,142.81,0
102.00,129.40,0
73.00,118.04,0
160.00,108.89,0
200.00,103.24,0
252.00,102.22,0
210.00,105.66,0
246.00,112.36,0
320.00,122.21,0
235.00,134.91,0
263.00,148.81,0
266.00,162.97,0
276.00,177.18,0
280.00,191.21,0
240.00,204.45,0
245.00,216.05,0
231.00,225.68,0
288.00,233.76,0
215.00,240.61,0
171.00,245.21,0
124.00,246.22,0
132.00,243.33,0
50.00,236.72,0
92.00,226.54,0
36.00,213.54,0
35.00,198.25,0
38.00,181.24,0
80.00,163.90,0
111.00,147.85,0
104.00,134.12,0
125.00,122.92,0
134.00,114.40,0
160.00,108.72,0
222.00,106.38,0
242.00,108.07,0
272.00,113.90,0
273.00,123.28,0
323.00,135.77,0
270.00,150.68,0
232.00,166.08,0
235.00,180.31,0
266.00,193.17,0
301.00,205.37,0
230.00,216.94,0
279.00,227.15,0
213.00,235.68,0
162.00,241.54,0
146.00,243.61,0
157.00,242.21,0
82.00,237.61,0
112.00,229.80,0
36.00,219.11,0
62.00,205.81,0
40.00,190.59,0
40.00,174.21,0
87.00,157.70,0
47.00,142.09,0
147.00,128.25,0
114.00,117.25,0
178.00,109.59,0
184.00,105.56,0
219.00,105.32,0
295.00,109.24,0
258.00,117.42,0
330.00,129.22,0
244.00,143.57,0
274.00,158.76,0
262.00,173.76,0
256.00,188.14,0
266.00,201.44,0
262.00,213.57,0
283.00,224.60,0
243.00,234.40,0
263.00,242.64,0
205.00,248.92,0
168.00,252.40,0
123.00,252.17,0
123.00,248.10,0
80.00,240.53,0
110.00,230.09,0
37.00,217.32,0
43.00,202.32,0
56.00,185.66,0
43.00,168.48,0
54.00,151.50,0
128.00,135.87,0
55.00,122.53,0
167.00,111.67,0
145.00,104.14,0
182.00,100.26,0
210.00,99.93,0
268.00,103.54,0
245.00,111.08,0
297.00,121.87,0
252.00,135.04,0
271.00,149.44,0
294.00,164.50,0
285.00,179.93,0
265.00,195.05,0
228.00,208.72,0
273.00,220.42,0
224.00,230.27,0
178.00,237.55,0
160.00,241.37,0
190.00,242.01,0
88.00,239.62,0
114.00,233.89,0
63.00,224.94,0
70.00,213.28,0
40.00,199.39,0
68.00,184.03,0
39.00,168.05,0
76.00,152.15,0
109.00,137.52,0
127.00,125.32,0
163.00,116.25,0
157.00,110.55,0
178.00,107.99,0
252.00,108.78,0
242.00,113.45,0
234.00,121.24,0
347.00,131.88,0
269.00,145.45,0
262.00,160.45,0
270.00,175.33,0
309.00,190.03,0
237.00,204.24,0
288.00,217.13,0
228.00,228.35,0
278.00,237.78,0
237.00,245.52,0
240.00,251.49,0
165.00,255.02,0
169.00,255.34,0
96.00,252.10,0
124.00,245.28,0
36.00,235.12,0
52.00,221.57,0
83.00,205.77,0
39.00,189.07,0
90.00,172.15,0
108.00,156.31,0
118.00,142.60,0
182.00,131.83,0
162.00,124.60,0
162.00,120.51,0
243.00,119.47,0
253.00,122.18,0
276.00,128.69,0
291.00,138.43,0
267.00,150.56,0
302.00,164.14,0
279.00,178.55,0
265.00,192.90,0
255.00,206.21,0
251.00,217.99,0
288.00,228.37,0
262.00,237.71,0
284.00,246.01,0
200.00,252.70,0
189.00,256.64,0
130.00,256.98,0
89.00,253.22,0
70.00,245.13,0
98.00,233.55,0
37.00,219.54,0
38.00,203.34,0
59.00,185.68,0
94.00,168.21,0
176.00,152.86,0
101.00,140.68,0
83.00,130.59,0
166.00,122.17,0
178.00,116.63,0
152.00,114.16,0
226.00,114.35,0
248.00,117.73,0
319.00,124.97,0
288.00,136.08,0
314.00,150.01,0
255.00,165.28,0
228.00,180.16,0
268.00,193.60,0
289.00,206.12,0
184.00,217.33,0
285.00,226.45,0
216.00,233.91,0
191.00,239.34,0
132.00,241.57,0
155.00,240.33,0
74.00,235.67,0
125.00,227.83,0
54.00,217.45,0
73.00,204.92,0
35.00,190.53,0
61.00,174.98,0
70.00,159.28,0
80.00,144.41,0
125.00,131.28,0
119.00,120.67,0
135.00,112.73,0
208.00,107.94,0
215.00,107.05,0
205.00,109.79,0
255.00,115.51,0
282.00,124.29,0
251.00,135.66,0
259.00,148.46,0
283.00,162.01,0
272.00,176.02,0
275.00,189.94,0
212.00,202.79,0
272.00,213.88,0
264.00,223.66,0
235.00,232.26,0
196.00,238.79,0
143.00,242.21,0
115.00,241.77,0
123.00,237.55,0
102.00,230.33,0
73.00,220.57,0
38.00,208.25,0
63.00,193.68,0
82.00,178.24,0
64.00,163.01,0
84.00,148.46,0
100.00,135.25,0
127.00,124.13,0
134.00,115.61,0
150.00,109.81,0
171.00,106.76,0
204.00,106.64,0
233.00,109.71,0
369.00,116.98,0
285.00,129.01,0
270.00,143.91,0
176.00,158.75,0
280.00,172.23,0
287.00,185.24,0
267.00,198.27,0
264.00,210.58,0
293.00,221.97,0
211.00,232.06,0
258.00,240.10,0
201.00,245.94,0
174.00,249.13,0
67.00,248.38,0
132.00,243.28,0
86.00,234.82,0
123.00,224.16,0
40.00,211.72,0
43.00,197.29,0
54.00,181.32,0
43.00,164.76,0
89.00,148.63,0
87.00,134.00,0
84.00,121.32,0
137.00,110.93,0
225.00,104.16,0
223.00,102.25,0
190.00,104.57,0
239.00,109.84,0
256.00,117.87,0
322.00,128.94,0
281.00,142.89,0
244.00,158.08,0
274.00,173.03,0
271.00,187.46,0
269.00,201.20,0
245.00,213.71,0
264.00,224.60,0
233.00,233.77,0
228.00,240.93,0
207.00,245.82,0
189.00,248.24,0
86.00,247.45,0
139.00,242.79,0
66.00,234.74,0
94.00,223.87,0
38.00,210.60,0
50.00,195.33,0
65.00,178.93,0
37.00,162.35,0
122.00,146.53,0
53.00,132.42,0
127.00,120.26,0
150.00,110.82,0
193.00,105.12,0
186.00,103.25,0
242.00,105.12,0
297.00,111.02,0
271.00,121.02,0
265.00,133.77,0
266.00,147.85,0
268.00,162.48,0
255.00,176.97,0
279.00,190.87,0
294.00,204.29,0
247.00,216.95,0
249.00,227.97,0
213.00,236.72,0
196.00,242.76,0
183.00,245.82,0
148.00,245.87,0
95.00,242.53,0
111.00,235.68,0
44.00,225.68,0
64.00,212.76,0
43.00,197.69,0
69.00,181.51,0
86.00,165.40,0
130.00,150.76,0
147.00,138.72,0
131.00,129.57,0
178.00,123.19,0
204.00,119.99,0
210.00,120.14,0
226.00,123.30,0
289.00,129.48,0
283.00,138.86,0
339.00,151.26,0
292.00,166.07,0
281.00,181.79,0
260.00,196.92,0
274.00,210.79,0
262.00,223.20,0
266.00,234.05,0
244.00,243.14,0
256.00,250.35,0
251.00,255.87,0
196.00,259.49,0
132.00,260.06,0
144.00,256.82,0
118.00,250.33,0
102.00,241.07,0
42.00,229.04,0
58.00,214.31,0
42.00,197.70,0
77.00,180.28,0
77.00,163.33,0
127.00,148.01,0
127.00,135.26,0
128.00,125.31,0
154.00,118.03,0
182.00,113.68,0
206.00,112.66,0
260.00,115.22,0
264.00,121.56,0
308.00,131.39,0
270.00,144.02,0
292.00,158.30,0
266.00,173.18,0
225.00,187.45,0
247.00,200.05,0
261.00,211.11,0
258.00,221.03,0
209.00,229.41,0
212.00,235.54,0
172.00,239.02,0
149.00,239.58,0
85.00,236.68,0
101.00,230.04,0
37.00,220.11,0
46.00,207.10,0
58.00,191.84,0
51.00,175.67,0
60.00,159.39,0
77.00,143.79,0
100.00,129.78,0
155.00,118.40,0
147.00,110.45,0
160.00,105.79,0
184.00,104.12,0
274.00,106.01,0
236.00,111.95,0
294.00,121.35,0
276.00,133.58,0
285.00,147.82,0
298.00,163.24,0
319.00,179.49,0
283.00,195.96,0
258.00,211.48,0
276.00,225.16,0
238.00,236.78,0
221.00,245.80,0
173.00,251.59,0
173.00,253.78,0
114.00,252.25,0
102.00,246.86,0
86.00,237.98,0
104.00,226.47,0
53.00,213.07,0
47.00,197.99,0
67.00,181.73,0
72.00,165.42,0
88.00,150.03,0
98.00,136.23,0
144.00,124.78,0
166.00,116.53,0
193.00,111.96,0
236.00,111.36,0
240.00,114.71,0
254.00,121.49,0
245.00,130.90,0
248.00,141.93,0
269.00,153.96,0
272.00,166.77,0
263.00,179.88,0
224.00,192.34,0
268.00,203.54,0
253.00,213.70,0
227.00,222.63,0
196.00,229.51,0
162.00,233.58,0
132.00,234.31,0
144.00,231.83,0
62.00,226.24,0
90.00,217.46,0
50.00,206.00,0
40.00,192.41,0
45.00,177.13,0
92.00,161.48,0
112.00,147.08,0
128.00,134.95,0
127.00,125.36,0
95.00,117.87,0
175.00,112.37,0
260.00,110.32,0
266.00,113.04,0
285.00,120.42,0
280.00,131.29,0
310.00,144.76,0
240.00,159.65,0
268.00,174.45,0
263.00,188.50,0
234.00,201.45,0
277.00,212.97,0
234.00,223.12,0
254.00,231.72,0
168.00,238.12,0
175.00,241.44,0
73.00,240.84,0
136.00,236.17,0
78.00,228.27,0
117.00,218.06,0
59.00,206.17,0
43.00,192.57,0
73.00,177.67,0
58.00,162.52,0
84.00,147.91,0
87.00,134.50,0
112.00,122.92,0
148.00,113.84,0
160.00,107.91,0
159.00,105.02,0
204.00,104.99,0
312.00,108.82,0
254.00,117.10,0
301.00,128.79,0
276.00,142.74,0
275.00,157.99,0
213.00,172.93,0
316.00,186.97,0
254.00,200.55,0
214.00,212.82,0
273.00,223.01,0
234.00,231.59,0
263.00,238.75,0
188.00,244.13,0
156.00,246.74,0
136.00,245.83,0
140.00,241.69,0
86.00,234.74,0
124.00,225.33,0
58.00,213.90,0
38.00,200.42,0
46.00,185.05,0
66.00,168.85,0
102.00,153.27,0
82.00,139.27,0
153.00,127.50,0
117.00,118.51,0
168.00,112.34,0
197.00,109.32,0
217.00,109.85,0
264.00,113.99,0
267.00,121.72,0
290.00,132.57,0
267.00,145.71,0
289.00,160.09,0
270.00,174.95,0
258.00,189.44,0
262.00,202.86,0
179.00,214.30,0
279.00,223.33,0
244.00,230.92,0
222.00,237.23,0
232.00,241.78,0
181.00,244.43,0
112.00,244.19,0
130.00,240.40,0
67.00,233.14,0
93.00,222.88,0
63.00,210.36,0
77.00,196.33,0
64.00,181.46,0
56.00,166.31,0
77.00,151.40,0
121.00,137.80,0
122.00,126.57,0
139.00,118.02,0
176.00,112.37,0
168.00,109.83,0
208.00,110.25,0
211.00,113.48,0
257.00,119.55,0
291.00,128.61,0
266.00,140.43,0
260.00,153.79,0
290.00,167.76,0
298.00,182.23,0
249.00,196.60,0
208.00,209.31,0
240.00,219.54,0
255.00,227.86,0
194.00,234.44,0
163.00,238.38,0
141.00,238.94,0
111.00,236.05,0
106.00,229.91,0
38.00,220.63,0
72.00,208.42,0
50.00,194.10,0
42.00,178.59,0
44.00,162.40,0
95.00,146.58,0
103.00,132.50,0
119.00,120.89,0
137.00,112.01,0
134.00,105.94,0
185.00,102.70,0
190.00,102.57,0
269.00,105.97,0
246.00,113.13,0
301.00,123.60,0
294.00,136.87,0
294.00,152.28,0
290.00,168.63,0
292.00,185.11,0
237.00,200.72,0
278.00,214.58,0
220.00,226.38,0
256.00,235.91,0
164.00,242.76,0
164.00,246.11,0
94.00,245.35,0
109.00,240.41,0
90.00,232.05,0
103.00,221.27,0
42.00,208.57,0
54.00,193.99,0
44.00,178.10,0
63.00,161.83,0
112.00,146.44,0
102.00,133.12,0
90.00,121.95,0
144.00,112.96,0
159.00,106.84,0
198.00,104.11,0
246.00,105.29,0
305.00,110.96,0
285.00,121.02,0
251.00,134.02,0
263.00,148.14,0
276.00,162.71,0
312.00,177.73,0
257.00,192.82,0
262.00,206.91,0
166.00,218.59,0
271.00,227.39,0
210.00,234.16,0
214.00,239.04,0
173.00,241.55,0
163.00,241.46,0
110.00,238.42,0
106.00,232.24,0
38.00,222.78,0
83.00,210.46,0
51.00,196.22,0
64.00,180.96,0
97.00,165.66,0
78.00,151.35,0
92.00,138.31,0
105.00,126.87,0
154.00,117.75,0
190.00,111.93,0
204.00,109.93,0
215.00,111.52,0
262.00,116.45,0
295.00,124.91,0
282.00,136.57,0
277.00,150.29,0
314.00,165.25,0
265.00,180.82,0
283.00,196.00,0
264.00,210.11,0
262.00,222.75,0
194.00,233.11,0
264.00,240.83,0
198.00,246.32,0
214.00,249.56,0
160.00,250.24,0
114.00,247.80,0
107.00,241.85,0
117.00,232.95,0
39.00,221.57,0
45.00,207.60,0
58.00,191.63,0
82.00,175.13,0
80.00,159.29,0
126.00,145.03,0
127.00,133.19,0
161.00,124.28,0
183.00,118.64,0
231.00,116.73,0
231.00,118.69,0
287.00,124.37,0
297.00,133.76,0
269.00,146.02,0
262.00,159.56,0
256.00,173.28,0
285.00,186.75,0
241.00,199.63,0
269.00,211.39,0
205.00,221.47,0
186.00,228.96,0
181.00,233.32,0
135.00,234.54,0
123.00,232.43,0
108.00,227.15,0
65.00,218.94,0
54.00,207.85,0
48.00,194.41,0
39.00,179.28,0
88.00,163.59,0
114.00,148.99,0
88.00,136.31,0
127.00,125.61,0
143.00,117.34,0
152.00,111.84,0
214.00,109.46,0
249.00,110.85,0
248.00,116.17,0
275.00,124.87,0
329.00,136.64,0
297.00,151.26,0
256.00,167.18,0
234.00,182.36,0
278.00,196.15,0
221.00,208.51,0
271.00,219.20,0
237.00,228.34,0
243.00,235.90,0
186.00,241.37,0
168.00,244.01,0
111.00,243.17,0
92.00,238.43,0
88.00,230.12,0
102.00,219.25,0
39.00,206.39,0
37.00,191.58,0
55.00,175.37,0
78.00,159.10,0
108.00,144.11,0
52.00,130.81,0
148.00,119.36,0
183.00,111.11,0
198.00,107.09,0
212.00,107.00,0
259.00,110.67,0
255.00,117.90,0
289.00,128.26,0
271.00,140.98,0
283.00,155.25,0
294.00,170.33,0
292.00,185.78,0
248.00,200.71,0
309.00,214.49,0
212.00,226.78,0
256.00,236.80,0
216.00,244.35,0
181.00,249.19,0
165.00,250.76,0
127.00,248.91,0
120.00,243.75,0
103.00,235.63,0
79.00,224.99,0
50.00,212.03,0
39.00,196.96,0
43.00,180.35,0
90.00,163.56,0
75.00,147.85,0
133.00,134.11,0
109.00,122.96,0
187.00,114.88,0
193.00,110.51,0
202.00,110.00,0
251.00,112.97,0
212.00,119.08,0
278.00,127.68,0
245.00,138.38,0
274.00,150.53,0
265.00,163.53,0
291.00,177.08,0
248.00,190.56,0
235.00,202.95,0
211.00,213.34,0
275.00,221.88,0
347.00,230.19,0
243.00,238.91,0
155.00,245.80,0
127.00,248.52,0
93.00,246.54,0
85.00,240.21,0
136.00,230.68,0
46.00,219.14,0
101.00,205.85,0
43.00,191.31,0
67.00,176.01,0
84.00,160.74,0
73.00,146.36,0
69.00,133.07,0
115.00,121.27,0
117.00,111.73,0
201.00,105.37,0
192.00,102.94,0
286.00,104.92,0
331.00,111.99,0
322.00,124.14,0
276.00,139.56,0
272.00,156.14,0
308.00,172.89,0
287.00,189.63,0
302.00,205.87,0
258.00,220.90,0
293.00,234.21,0
253.00,245.64,0
310.00,255.37,0
237.00,263.49,0
165.00,268.80,0
143.00,269.81,0
127.00,266.38,0
81.00,258.95,0
96.00,247.94,0
51.00,234.00,0
47.00,217.70,0
67.00,199.85,0
68.00,181.73,0
151.00,164.87,0
112.00,150.58,0
135.00,138.96,0
124.00,129.73,0
182.00,123.10,0
184.00,119.56,0
202.00,119.12,0
283.00,122.03,0
268.00,128.74,0
220.00,138.14,0
271.00,148.84,0
312.00,160.95,0
286.00,174.56,0
262.00,188.63,0
270.00,202.02,0
251.00,214.22,0
246.00,224.82,0
198.00,233.21,0
209.00,238.90,0
184.00,241.93,0
144.00,242.17,0
104.00,239.10,0
114.00,232.69,0
39.00,223.12,0
38.00,210.30,0
47.00,194.97,0
42.00,178.22,0
114.00,161.62,0
94.00,146.66,0
137.00,134.07,0
65.00,123.65,0
172.00,115.27,0
200.00,110.17,0
215.00,109.17,0
263.00,112.19,0
256.00,119.09,0
312.00,129.38,0
280.00,142.51,0
224.00,156.86,0
263.00,170.77,0
241.00,183.88,0
279.00,196.23,0
246.00,207.79,0
251.00,218.15,0
235.00,226.94,0
256.00,234.19,0
161.00,239.47,0
163.00,241.69,0
128.00,240.45,0
135.00,236.15,0
56.00,228.81,0
96.00,218.52,0
47.00,205.88,0
48.00,191.45,0
55.00,175.79,0
85.00,160.06,0
127.00,145.73,0
92.00,133.58,0
156.00,123.79,0
194.00,117.20,0
169.00,114.20,0
200.00,114.18,0
237.00,117.09,0
284.00,123.39,0
270.00,132.96,0
264.00,144.85,0
286.00,158.06,0
300.00,172.26,0
278.00,186.97,0
294.00,201.46,0
316.00,215.59,0
240.00,228.84,0
278.00,240.21,0
224.00,249.34,0
227.00,255.92,0
205.00,259.74,0
156.00,260.60,0
91.00,257.65,0
114.00,250.61,0
40.00,239.86,0
64.00,225.91,0
64.00,209.75,0
44.00,192.50,0
46.00,174.62,0
125.00,157.41,0
112.00,142.50,0
166.00,130.73,0
179.00,122.64,0
134.00,117.85,0
220.00,115.88,0
249.00,117.34,0
223.00,122.34,0
304.00,130.42,0
265.00,141.30,0
279.00,154.08,0
240.00,167.47,0
283.00,180.73,0
231.00,193.39,0
272.00,205.03,0
271.00,215.74,0
289.00,225.87,0
240.00,235.10,0
230.00,242.59,0
230.00,247.95,0
189.00,251.09,0
107.00,251.07,0
89.00,246.77,0
110.00,238.57,0
72.00,227.64,0
38.00,214.23,0
37.00,198.49,0
61.00,181.40,0
102.00,164.57,0
83.00,149.21,0
118.00,135.79,0
154.00,125.03,0
181.00,117.75,0
144.00,113.77,0
179.00,112.34,0
256.00,113.77,0
237.00,118.78,0
252.00,126.77,0
261.00,136.96,0
252.00,148.67,0
260.00,161.14,0
358.00,174.61,0
254.00,189.29,0
235.00,203.27,0
279.00,215.46,0
189.00,225.72,0
221.00,233.31,0
233.00,238.49,0
239.00,242.20,0
129.00,243.93,0
92.00,242.04,0
91.00,235.94,0
75.00,226.32,0
55.00,213.97,0
68.00,199.59,0
58.00,184.07,0
91.00,168.46,0
127.00,154.07,0
94.00,141.67,0
131.00,131.24,0
168.00,123.31,0
168.00,118.45,0
246.00,117.08,0
230.00,119.49,0
279.00,125.57,0
234.00,134.57,0
270.00,145.37,0
275.00,157.45,0
310.00,170.81,0
300.00,185.18,0
297.00,199.95,0
292.00,214.37,0
253.00,227.61,0
256.00,238.86,0
192.00,247.42,0
190.00,252.56,0
148.00,254.09,0
179.00,252.34,0
52.00,247.24,0
93.00,238.28,0
118.00,226.53,0
70.00,213.42,0
96.00,199.31,0
84.00,184.86,0
118.00,170.93,0
81.00,158.00,0
109.00,146.18,0
154.00,136.10,0
215.00,129.18,0
199.00,126.16,0
240.00,126.72,0
203.00,130.22,0
264.00,136.15,0
286.00,144.57,0
245.00,155.11,0
204.00,166.14,0
296.00,176.87,0
254.00,187.85,0
281.00,198.93,0
254.00,209.62,0
268.00,219.55,0
278.00,228.66,0
267.00,237.05,0
206.00,244.00,0
135.00,247.95,0
104.00,247.58,0
172.00,243.34,0
86.00,236.48,0
119.00,227.28,0
42.00,215.80,0
39.00,201.90,0
53.00,186.11,0
78.00,169.78,0
116.00,154.44,0
97.00,141.04,0
108.00,129.65,0
152.00,120.57,0
235.00,115.02,0
220.00,113.95,0
213.00,116.72,0
264.00,122.49,0
282.00,131.29,0
318.00,143.13,0
264.00,157.18,0
280.00,171.95,0
262.00,186.46,0
292.00,200.38,0
293.00,213.75,0
265.00,226.28,0
247.00,237.17,0
242.00,245.86,0
252.00,252.46,0
201.00,256.95,0
179.00,258.77,0
134.00,257.34,0
135.00,252.59,0
39.00,244.31,0
84.00,232.40,0
40.00,217.68,0
54.00,201.11,0
86.00,183.73,0
61.00,166.81,0
118.00,151.15,0
126.00,137.75,0
100.00,126.89,0
204.00,118.83,0
181.00,114.48,0
208.00,113.85,0
224.00,116.41,0
260.00,122.11,0
272.00,130.87,0
293.00,142.30,0
259.00,155.52,0
248.00,169.22,0
270.00,182.50,0
317.00,195.70,0
302.00,209.27,0
250.00,222.33,0
292.00,233.95,0
235.00,243.88,0
268.00,251.87,0
195.00,257.60,0
180.00,260.36,0
121.00,259.42,0
100.00,254.49,0
44.00,245.33,0
50.00,232.24,0
40.00,216.15,0
37.00,198.19,0
66.00,179.51,0
80.00,161.43,0
144.00,145.42,0
99.00,132.30,0
132.00,121.89,0
131.00,114.04,0
160.00,108.87,0
196.00,106.68,0
203.00,107.71,0
252.00,111.97,0
280.00,119.65,0
230.00,130.17,0
274.00,142.25,0
329.00,155.92,0
281.00,171.17,0
252.00,186.55,0
313.00,201.13,0
245.00,214.84,0
274.00,227.06,0
254.00,237.49,0
270.00,246.26,0
217.00,253.14,0
167.00,257.21,0
131.00,257.45,0
106.00,253.50,0
68.00,245.48,0
78.00,233.83,0
66.00,219.64,0
44.00,203.68,0
54.00,186.47,0
67.00,169.06,0
117.00,152.76,0
103.00,138.67,0
110.00,126.95,0
121.00,117.51,0
192.00,110.97,0
178.00,107.97,0
256.00,108.79,0
267.00,113.73,0
296.00,122.77,0
317.00,135.29,0
291.00,150.40,0
218.00,166.19,0
323.00,181.37,0
261.00,196.19,0
344.00,210.79,0
250.00,224.83,0
278.00,237.35,0
176.00,247.13,0
209.00,253.29,0
160.00,255.80,0
220.00,255.46,0
96.00,252.45,0
127.00,246.24,0
51.00,236.71,0
78.00,224.12,0
88.00,209.57,0
42.00,194.04,0
85.00,177.94,0
102.00,162.42,0
91.00,148.40,0
120.00,136.17,0
178.00,126.60,0
190.00,120.64,0
200.00,118.39,0
254.00,119.83,0
279.00,125.15,0
309.00,134.36,0
231.00,146.26,0
271.00,159.10,0
223.00,171.82,0
267.00,183.96,0
330.00,196.08,0
267.00,208.68,0
289.00,220.91,0
314.00,232.47,0
233.00,243.07,0
171.00,250.95,0
154.00,254.64,0
100.00,253.81,0
102.00,248.54,0
81.00,239.46,0
54.00,227.24,0
47.00,212.41,0
82.00,196.04,0
87.00,179.56,0
93.00,163.99,0
99.00,149.82,0
56.00,136.96,0
128.00,125.46,0
207.00,116.86,0
174.00,112.38,0
183.00,111.36,0
205.00,113.07,0
333.00,118.31,0
285.00,127.96,0
299.00,141.00,0
301.00,156.04,0
293.00,172.16,0
251.00,188.11,0
289.00,202.97,0
281.00,216.72,0
266.00,229.24,0
273.00,240.15,0
307.00,249.75,0
243.00,258.13,0
210.00,264.25,0
182.00,267.17,0
182.00,266.81,0
130.00,263.26,0
100.00,256.33,0
133.00,246.41,0
41.00,234.08,0
41.00,219.07,0
63.00,201.97,0
61.00,184.18,0
113.00,167.02,0
105.00,151.70,0
122.00,138.72,0
151.00,128.40,0
162.00,121.17,0
190.00,117.16,0
232.00,116.62,0
267.00,120.01,0
290.00,127.37,0
292.00,138.16,0
277.00,151.29,0
237.00,165.24,0
278.00,178.87,0
304.00,192.38,0
298.00,206.10,0
223.00,218.99,0
283.00,230.04,0
262.00,239.51,0
289.00,247.85,0
189.00,254.49,0
189.00,258.18,0
118.00,258.07,0
124.00,253.99,0
55.00,245.98,0
35.00,233.98,0
33.00,218.44,0
39.00,200.56,0
71.00,181.80,0
74.00,163.66,0
60.00,146.76,0
92.00,131.44,0
183.00,118.98,0
132.00,110.46,0
176.00,105.46,0
208.00,103.93,0
236.00,106.21,0
295.00,112.47,0
213.00,122.16,0
244.00,133.46,0
284.00,145.77,0
228.00,158.91,0
280.00,172.07,0
314.00,185.49,0
328.00,199.79,0
236.00,214.06,0
290.00,226.83,0
220.00,237.60,0
257.00,246.08,0
174.00,251.88,0
204.00,254.64,0
112.00,254.02,0
124.00,249.72,0
57.00,241.66,0
52.00,229.95,0
37.00,215.06,0
55.00,198.13,0
127.00,180.98,0
117.00,165.48,0
108.00,152.12,0
93.00,140.45,0
138.00,130.51,0
174.00,123.13,0
213.00,119.23,0
222.00,119.15,0
282.00,122.96,0
308.00,130.80,0
259.00,141.95,0
303.00,155.11,0
294.00,169.54,0
349.00,185.15,0
288.00,201.47,0
263.00,217.04,0
299.00,230.89,0
284.00,243.25,0
280.00,254.09,0
223.00,262.73,0
210.00,268.33,0
121.00,269.98,0
142.00,267.15,0
105.00,260.42,0
37.00,249.85,0
51.00,235.42,0
65.00,218.37,0
55.00,200.10,0
78.00,181.67,0
103.00,164.26,0
101.00,148.79,0
151.00,135.89,0
210.00,126.66,0
186.00,121.69,0
272.00,121.00,0
256.00,124.59,0
239.00,131.64,0
270.00,140.92,0
373.00,152.82,0
279.00,167.52,0
308.00,183.39,0
282.00,199.12,0
296.00,214.13,0
299.00,228.15,0
269.00,240.88,0
273.00,251.76,0
259.00,260.58,0
256.00,267.33,0
187.00,271.54,0
171.00,272.41,0
131.00,269.53,0
212.00,263.78,0
82.00,255.91,0
109.00,245.48,0
38.00,232.26,0
69.00,216.66,0
60.00,199.60,0
49.00,182.03,0
67.00,164.53,0
90.00,148.06,0
87.00,133.40,0
138.00,121.18,0
153.00,112.15,0
126.00,106.30,0
218.00,103.51,0
212.00,104.38,0
254.00,109.02,0
302.00,117.42,0
312.00,129.58,0
324.00,144.94,0
315.00,162.34,0
280.00,180.37,0
290.00,197.73,0
261.00,213.67,0
271.00,227.67,0
236.00,239.36,0
293.00,248.89,0
186.00,256.24,0
194.00,260.45,0
146.00,260.96,0
91.00,257.50,0
92.00,249.80,0
96.00,238.76,0
39.00,225.14,0
62.00,209.33,0
54.00,192.18,0
86.00,174.91,0
127.00,158.92,0
105.00,145.19,0
113.00,133.68,0
205.00,124.95,0
168.00,119.90,0
436.00,120.16,0
219.00,126.88,0
263.00,137.17,0
253.00,148.69,0
254.00,160.97,0
390.00,174.52,0
489.00,191.59,0
252.00,211.62,0
249.00,230.14,0
266.00,245.00,0
291.00,257.05,0
288.00,267.10,0
217.00,274.86,0
262.00,279.78,0
184.00,281.90,0
179.00,280.89,0
88.00,276.07,0
134.00,267.29,0
104.00,255.53,0
101.00,241.78,0
64.00,226.38,0
38.00,209.36,0
144.00,191.84,0
75.00,175.50,0
114.00,160.65,0
281.00,148.89,0
103.00,141.48,0
177.00,136.65,0
193.00,133.85,0
198.00,133.58,0
261.00,135.99,0
305.00,141.84,0
348.00,151.69,0
323.00,165.06,0
264.00,180.23,0
594.00,197.73,0
302.00,218.96,0
279.00,240.08,0
293.00,257.71,0
252.00,271.81,0
233.00,282.05,0
255.00,288.50,0
174.00,291.47,0
224.00,290.91,0
127.00,287.02,0
134.00,279.62,0
74.00,268.64,0
53.00,254.12,0
47.00,236.55,0
40.00,216.93,0
43.00,196.25,0
88.00,175.82,0
91.00,157.04,0
170.00,141.22,0
175.00,129.57,0
42.00,121.07,0
209.00,114.50,0
237.00,111.49,0
224.00,113.04,0
234.00,118.03,0
299.00,126.11,0
250.00,137.05,0
356.00,150.39,0
295.00,165.93,0
311.00,182.65,0
375.00,199.99,0
276.00,217.59,0
286.00,233.79,0
264.00,247.56,0
287.00,258.95,0
288.00,268.34,0
189.00,275.29,0
216.00,278.75,0
166.00,278.70,0
181.00,275.48,0
165.00,269.66,0
84.00,261.27,0
125.00,250.05,0
247.00,238.04,0
59.00,226.63,0
90.00,214.23,0
99.00,200.50,0
102.00,186.64,0
94.00,173.23,0
107.00,160.58,0
186.00,149.75,0
206.00,142.25,0
270.00,139.02,0
252.00,140.28,0
310.00,145.54,0
316.00,154.56,0
343.00,166.96,0
367.00,182.19,0
65.00,197.18,0
285.00,208.51,0
268.00,217.69,0
305.00,226.77,0
262.00,235.59,0
273.00,243.62,0
243.00,250.35,0
195.00,255.07,0
126.00,256.43,0
137.00,253.80,0
89.00,247.49,0
103.00,237.89,0
37.00,225.46,0
70.00,210.62,0
56.00,194.31,0
64.00,177.49,0
106.00,161.25,0
97.00,146.65,0
130.00,134.27,0
123.00,124.39,0
293.00,118.31,0
220.00,117.43,0
229.00,120.83,0
249.00,127.08,0
245.00,135.65,0
314.00,146.37,0
304.00,159.41,0
318.00,174.31,0
294.00,190.06,0
213.00,205.02,0
256.00,217.67,0
278.00,228.37,0
298.00,238.13,0
264.00,247.08,0
294.00,254.97,0
148.00,260.78,0
170.00,262.86,0
138.00,260.94,0
173.00,255.94,0
52.00,248.13,0
73.00,236.91,0
38.00,222.50,0
54.00,205.85,0
40.00,187.93,0
89.00,169.93,0
118.00,153.41,0
88.00,139.20,0
128.00,127.29,0
135.00,117.98,0
116.00,111.28,0
238.00,107.52,0
270.00,108.20,0
266.00,113.83,0
294.00,123.42,0
314.00,136.26,0
307.00,151.74,0
305.00,168.66,0
334.00,186.25,0
258.00,203.65,0
298.00,219.64,0
250.00,233.65,0
298.00,245.63,0
249.00,255.66,0
210.00,263.15,0
182.00,267.18,0
154.00,267.44,0
127.00,263.88,0
47.00,256.25,0
37.00,244.07,0
98.00,228.52,0
43.00,211.38,0
41.00,193.23,0
87.00,174.76,0
120.00,157.71,0
102.00,143.09,0
136.00,131.05,0
152.00,121.91,0
128.00,115.61,0
176.00,111.82,0
207.00,110.91,0
337.00,114.20,0
275.00,122.53,0
268.00,134.33,0
298.00,148.08,0
259.00,162.90,0
346.00,178.37,0
260.00,194.22,0
279.00,209.31,0
284.00,222.96,0
269.00,235.18,0
334.00,246.26,0
223.00,256.13,0
251.00,263.68,0
218.00,268.50,0
182.00,270.45,0
148.00,269.02,0
140.00,264.14,0
70.00,255.73,0
103.00,244.04,0
43.00,229.74,0
39.00,213.11,0
92.00,195.14,0
46.00,177.26,0
81.00,160.00,0
126.00,144.34,0
180.00,131.93,0
179.00,123.64,0
232.00,119.65,0
187.00,119.51,0
258.00,122.59,0
342.00,129.56,0
299.00,140.85,0
334.00,155.27,0
373.00,172.22,0
312.00,190.92,0
315.00,209.68,0
264.00,226.98,0
331.00,242.33,0
268.00,255.85,0
313.00,267.42,0
226.00,276.62,0
179.00,282.26,0
133.00,283.07,0
121.00,279.04,0
98.00,270.71,0
132.00,259.15,0
36.00,245.10,0
71.00,228.63,0
59.00,210.46,0
53.00,191.69,0
79.00,173.11,0
79.00,155.66,0
158.00,140.51,0
123.00,128.66,0
148.00,119.97,0
163.00,114.21,0
227.00,111.89,0
279.00,113.85,0
294.00,120.53,0
334.00,131.62,0
272.00,145.93,0
248.00,161.27,0
263.00,176.10,0
286.00,190.33,0
352.00,204.65,0
226.00,218.81,0
295.00,231.42,0
284.00,242.44,0
255.00,252.05,0
240.00,259.56,0
243.00,264.75,0
144.00,267.11,0
127.00,265.47,0
57.00,259.16,0
99.00,248.63,0
55.00,235.01,0
78.00,219.18,0
65.00,202.20,0
76.00,184.95,0
101.00,168.34,0
120.00,153.43,0
127.00,140.90,0
89.00,130.54,0
160.00,122.20,0
202.00,116.88,0
227.00,115.51,0
292.00,118.55,0
258.00,125.78,0
324.00,136.52,0
227.00,149.51,0
285.00,163.26,0
302.00,177.40,0
298.00,192.11,0
253.00,206.44,0
235.00,219.09,0
276.00,229.72,0
246.00,238.74,0
232.00,245.97,0
225.00,251.07,0
156.00,253.52,0
115.00,252.40,0
76.00,246.96,0
63.00,237.33,0
64.00,224.35,0
40.00,208.97,0
49.00,191.96,0
69.00,174.36,0
98.00,157.56,0
94.00,142.56,0
174.00,130.26,0
185.00,121.81,0
146.00,117.04,0
219.00,115.34,0
255.00,117.19,0
242.00,122.75,0
327.00,131.78,0
316.00,144.32,0
308.00,159.56,0
241.00,175.61,0
286.00,190.89,0
283.00,205.25,0
276.00,218.71,0
309.00,231.17,0
260.00,242.53,0
247.00,252.03,0
247.00,259.18,0
163.00,263.51,0
155.00,264.10,0
124.00,260.70,0
39.00,253.11,0
102.00,241.48,0
36.00,226.87,0
43.00,210.04,0
101.00,192.15,0
107.00,175.10,0
153.00,160.22,0
129.00,148.10,0
140.00,138.57,0
178.00,131.60,0
192.00,127.65,0
275.00,127.41,0
275.00,131.46,0
300.00,139.54,0
278.00,150.64,0
285.00,163.54,0
275.00,177.26,0
258.00,190.88,0
245.00,203.49,0
213.00,214.29,0
259.00,223.09,0
227.00,230.31,0
217.00,235.86,0
141.00,238.89,0
139.00,238.57,0
82.00,234.52,0
122.00,227.20,0
36.00,217.08,0
59.00,204.28,0
59.00,189.55,0
102.00,174.39,0
85.00,159.97,0
127.00,147.02,0
116.00,136.08,0
152.00,127.49,0
154.00,121.49,0
194.00,118.31,0
209.00,118.17,0
278.00,121.52,0
252.00,128.44,0
282.00,138.24,0
320.00,150.53,0
331.00,165.33,0
317.00,181.87,0
296.00,198.85,0
250.00,214.79,0
263.00,228.55,0
284.00,240.22,0
234.00,249.93,0
251.00,257.34,0
172.00,261.96,0
147.00,262.90,0
116.00,259.75,0
91.00,252.61,0
54.00,241.69,0
81.00,227.70,0
69.00,211.90,0
50.00,195.10,0
90.00,177.98,0
83.00,161.67,0
116.00,147.01,0
128.00,134.68,0
165.00,125.28,0
206.00,119.48,0
244.00,117.95,0
294.00,121.10,0
276.00,128.62,0
297.00,139.62,0
311.00,153.16,0
305.00,168.48,0
272.00,184.47,0
227.00,199.41,0
317.00,212.80,0
245.00,225.07,0
315.00,236.24,0
215.00,245.93,0
241.00,253.31,0
213.00,258.05,0
206.00,260.33,0
151.00,259.87,0
185.00,256.62,0
63.00,250.48,0
146.00,241.27,0
51.00,229.65,0
55.00,215.75,0
117.00,200.34,0
86.00,185.09,0
82.00,170.44,0
127.00,156.78,0
138.00,145.14,0
173.00,136.25,0
234.00,130.95,0
68.00,128.43,0
232.00,127.27,0
255.00,128.69,0
318.00,134.29,0
324.00,144.21,0
295.00,157.42,0
337.00,172.56,0
286.00,188.76,0
259.00,204.51,0
240.00,218.35,0
244.00,229.77,0
330.00,239.59,0
225.00,248.47,0
195.00,255.06,0
186.00,258.26,0
196.00,258.47,0
74.00,255.46,0
101.00,248.45,0
57.00,237.59,0
49.00,223.64,0
46.00,207.31,0
76.00,189.78,0
106.00,172.70,0
80.00,157.06,0
84.00,142.87,0
98.00,130.22,0
152.00,119.87,0
219.00,113.17,0
209.00,110.99,0
276.00,113.24,0
260.00,119.63,0
318.00,129.83,0
252.00,142.78,0
317.00,157.30,0
306.00,173.03,0
253.00,189.03,0
295.00,204.08,0
310.00,218.32,0
253.00,231.58,0
257.00,242.87,0
198.00,251.38,0
182.00,256.43,0
176.00,257.91,0
143.00,256.07,0
112.00,250.92,0
82.00,242.40,0
96.00,230.97,0
37.00,217.23,0
224.00,202.87,0
136.00,190.38,0
82.00,179.38,0
180.00,169.05,0
148.00,160.48,0
198.00,154.25,0
138.00,150.04,0
243.00,147.82,0
204.00,148.08,0
219.00,150.56,0
274.00,155.06,0
266.00,161.87,0
328.00,171.11,0
274.00,182.43,0
323.00,194.91,0
292.00,207.96,0
240.00,220.49,0
292.00,231.52,0
226.00,240.92,0
299.00,248.72,0
246.00,255.27,0
238.00,260.31,0
226.00,263.37,0
178.00,264.15,0
139.00,261.98,0
142.00,256.60,0
89.00,248.23,0
114.00,237.22,0
63.00,224.15,0
41.00,209.07,0
86.00,192.65,0
102.00,176.40,0
110.00,161.53,0
130.00,148.63,0
128.00,138.03,0
142.00,129.77,0
196.00,124.25,0
200.00,122.01,0
236.00,123.17,0
273.00,127.76,0
236.00,135.49,0
327.00,145.75,0
483.00,160.13,0
306.00,179.13,0
302.00,199.18,0
294.00,217.78,0
302.00,234.57,0
276.00,249.27,0
288.00,261.65,0
257.00,271.56,0
259.00,278.89,0
208.00,283.38,0
177.00,284.45,0
48.00,280.88,0
132.00,272.28,0
86.00,259.99,0
94.00,245.38,0
45.00,228.78,0
51.00,210.48,0
144.00,192.02,0
84.00,175.13,0
112.00,160.00,0
148.00,146.99,0
168.00,137.00,0
127.00,129.93,0
165.00,125.11,0
211.00,122.85,0
250.00,124.02,0
291.00,129.11,0
291.00,138.02,0
313.00,150.07,0
304.00,164.34,0
292.00,179.75,0
291.00,195.31,0
330.00,210.62,0
239.00,225.12,0
257.00,237.50,0
318.00,247.90,0
256.00,257.11,0
208.00,264.19,0
196.00,267.99,0
188.00,268.55,0
130.00,265.93,0
234.00,260.81,0
75.00,253.85,0
102.00,244.22,0
44.00,231.53,0
65.00,216.36,0
72.00,199.68,0
75.00,182.75,0
107.00,166.58,0
86.00,151.87,0
121.00,138.98,0
139.00,128.45,0
125.00,120.52,0
190.00,115.32,0
188.00,113.28,0
313.00,115.28,0
300.00,122.24,0
305.00,133.54,0
281.00,147.54,0
315.00,163.06,0
296.00,179.43,0
303.00,195.95,0
299.00,211.95,0
274.00,226.81,0
376.00,240.71,0
240.00,253.79,0
313.00,264.99,0
243.00,273.91,0
205.00,279.93,0
197.00,282.26,0
148.00,280.83,0
74.00,275.11,0
126.00,265.17,0
48.00,251.91,0
67.00,235.88,0
53.00,217.83,0
140.00,199.48,0
97.00,182.49,0
97.00,167.10,0
127.00,153.34,0
179.00,142.20,0
54.00,133.48,0
174.00,126.26,0
230.00,121.85,0
283.00,122.08,0
256.00,126.93,0
287.00,135.35,0
288.00,146.52,0
304.00,159.80,0
320.00,174.67,0
254.00,190.13,0
293.00,204.85,0
183.00,217.71,0
296.00,228.18,0
263.00,237.17,0
251.00,245.03,0
189.00,250.78,0
177.00,253.52,0
127.00,252.76,0
124.00,248.36,0
63.00,240.46,0
93.00,229.31,0
184.00,216.82,0
38.00,204.24,0
86.00,190.77,0
76.00,176.55,0
140.00,163.02,0
133.00,151.39,0
177.00,142.40,0
173.00,136.33,0
213.00,133.29,0
242.00,133.56,0
264.00,137.32,0
297.00,144.43,0
285.00,154.51,0
318.00,166.87,0
299.00,180.81,0
288.00,195.36,0
290.00,209.58,0
310.00,223.18,0
311.00,236.24,0
264.00,248.24,0
298.00,258.55,0
232.00,266.87,0
224.00,272.50,0
193.00,274.93,0
150.00,273.98,0
113.00,269.25,0
116.00,260.85,0
59.00,249.17,0
71.00,234.60,0
37.00,217.74,0
37.00,199.27,0
127.00,180.57,0
58.00,163.27,0
97.00,147.53,0
144.00,133.97,0
127.00,123.47,0
135.00,115.81,0
200.00,111.10,0
239.00,110.26,0
252.00,113.71,0
298.00,121.22,0
259.00,132.06,0
342.00,145.46,0
279.00,160.90,0
308.00,177.31,0
301.00,193.79,0
322.00,210.09,0
341.00,226.15,0
299.00,241.65,0
328.00,255.91,0
258.00,268.31,0
260.00,277.97,0
232.00,284.47,0
198.00,287.61,0
169.00,287.10,0
147.00,282.88,0
43.00,274.51,0
106.00,261.87,0
38.00,245.99,0
47.00,227.67,0
75.00,207.92,0
43.00,188.02,0
82.00,168.63,0
120.00,151.04,0
127.00,136.39,0
161.00,125.17,0
175.00,117.66,0
220.00,114.10,0
222.00,114.55,0
266.00,118.77,0
296.00,126.75,0
293.00,138.12,0
304.00,151.98,0
327.00,167.63,0
293.00,184.33,0
299.00,200.96,0
293.00,216.73,0
290.00,231.26,0
301.00,244.36,0
254.00,255.71,0
303.00,265.07,0
210.00,272.26,0
223.00,276.53,0
131.00,277.13,0
151.00,273.67,0
80.00,266.15,0
107.00,255.08,0
46.00,241.03,0
48.00,224.39,0
70.00,206.06,0
77.00,187.49,0
105.00,169.89,0
153.00,154.54,0
129.00,142.21,0
172.00,132.98,0
210.00,127.24,0
218.00,125.34,0
236.00,127.05,0
267.00,132.09,0
294.00,140.35,0
323.00,151.74,0
300.00,165.59,0
341.00,181.12,0
282.00,197.40,0
297.00,213.17,0
302.00,227.84,0
257.00,241.03,0
312.00,252.41,0
239.00,261.97,0
250.00,269.16,0
213.00,273.59,0
160.00,274.82,0
109.00,271.90,0
130.00,264.93,0
58.00,254.39,0
104.00,240.88,0
38.00,225.17,0
40.00,207.62,0
63.00,188.89,0
61.00,170.28,0
99.00,152.85,0
146.00,137.90,0
114.00,126.16,0
123.00,117.17,0
168.00,110.83,0
207.00,107.83,0
190.00,108.43,0
295.00,112.60,0
273.00,120.75,0
343.00,132.79,0
309.00,148.03,0
304.00,165.19,0
314.00,182.96,0
286.00,200.49,0
298.00,216.98,0
281.00,231.95,0
282.00,245.09,0
261.00,256.12,0
280.00,264.99,0
211.00,271.50,0
172.00,274.70,0
152.00,273.92,0
154.00,269.49,0
74.00,261.57,0
87.00,250.16,0
37.00,235.62,0
55.00,218.57,0
62.00,200.13,0
93.00,181.75,0
78.00,164.46,0
95.00,148.73,0
138.00,135.21,0
144.00,124.71,0
164.00,117.48,0
209.00,113.76,0
220.00,113.80,0
235.00,117.39,0
297.00,124.44,0
315.00,135.14,0
294.00,148.91,0
318.00,164.61,0
304.00,181.29,0
300.00,198.11,0
263.00,213.99,0
273.00,228.07,0
322.00,240.58,0
252.00,251.79,0
268.00,261.03,0
223.00,267.78,0
197.00,271.57,0
141.00,271.70,0
133.00,267.91,0
80.00,260.21,0
91.00,248.94,0
42.00,234.68,0
86.00,218.20,0
85.00,200.93,0
48.00,183.65,0
89.00,166.68,0
102.00,150.98,0
138.00,137.63,0
136.00,127.18,0
169.00,119.82,0
220.00,115.98,0
231.00,116.23,0
246.00,120.27,0
309.00,127.92,0
338.00,139.53,0
321.00,154.58,0
320.00,171.65,0
316.00,189.60,0
299.00,207.32,0
287.00,223.86,0
266.00,238.45,0
260.00,250.57,0
262.00,260.14,0
228.00,267.18,0
187.00,271.16,0
174.00,271.63,0
118.00,268.33,0
145.00,261.51,0
66.00,251.59,0
72.00,238.56,0
65.00,223.05,0
46.00,205.94,0
108.00,188.26,0
107.00,171.65,0
139.00,157.16,0
125.00,145.18,0
144.00,135.67,0
192.00,128.97,0
194.00,125.58,0
264.00,125.88,0
283.00,130.23,0
323.00,138.75,0
296.00,150.80,0
310.00,165.11,0
298.00,180.54,0
224.00,195.68,0
269.00,209.10,0
258.00,220.82,0
314.00,231.50,0
262.00,241.47,0
289.00,250.37,0
214.00,257.57,0
189.00,261.98,0
141.00,262.74,0
137.00,259.64,0
45.00,252.48,0
72.00,241.17,0
44.00,226.54,0
58.00,209.75,0
75.00,191.99,0
43.00,174.24,0
80.00,156.97,0
108.00,141.22,0
109.00,127.93,0
144.00,117.50,0
175.00,110.40,0
182.00,106.97,0
206.00,106.99,0
270.00,110.66,0
287.00,118.39,0
350.00,130.28,0
290.00,145.58,0
300.00,162.59,0
319.00,180.14,0
314.00,197.88,0
298.00,215.12,0
273.00,230.89,0
297.00,244.67,0
254.00,256.32,0
265.00,265.54,0
213.00,272.01,0
167.00,274.99,0
113.00,273.58,0
123.00,267.73,0
102.00,258.27,0
142.00,246.39,0
36.00,232.74,0
54.00,216.90,0
71.00,199.43,0
99.00,182.01,0
96.00,165.77,0
89.00,151.09,0
134.00,138.31,0
175.00,128.44,0
214.00,122.45,0
218.00,120.65,0
242.00,122.65,0
234.00,127.86,0
288.00,135.91,0
314.00,146.79,0
296.00,160.28,0
304.00,175.27,0
282.00,190.66,0
308.00,205.78,0
314.00,220.49,0
267.00,234.32,0
312.00,246.67,0
265.00,257.45,0
251.00,266.15,0
216.00,272.09,0
150.00,274.50,0
127.00,272.54,0
124.00,266.39,0
40.00,256.38,0
86.00,242.68,0
37.00,226.22,0
41.00,207.91,0
88.00,188.84,0
76.00,170.50,0
127.00,153.97,0
154.00,140.31,0
133.00,130.01,0
156.00,122.65,0
168.00,118.08,0
228.00,116.65,0
272.00,119.13,0
272.00,125.69,0
297.00,135.75,0
337.00,148.88,0
323.00,164.65,0
315.00,181.92,0
303.00,199.42,0
309.00,216.28,0
307.00,232.09,0
275.00,246.33,0
292.00,258.49,0
245.00,268.32,0
241.00,275.36,0
208.00,279.30,0
184.00,280.03,0
117.00,277.09,0
123.00,270.15,0
54.00,259.33,0
103.00,245.34,0
37.00,229.08,0
61.00,211.13,0
63.00,192.36,0
85.00,173.96,0
122.00,157.16,0
127.00,142.96,0
133.00,131.66,0
147.00,123.18,0
180.00,117.68,0
196.00,115.43,0
225.00,116.46,0
250.00,120.81,0
263.00,128.33,0
296.00,138.70,0
329.00,151.79,0
324.00,167.31,0
316.00,184.25,0
303.00,201.43,0
307.00,218.03,0
247.00,233.05,0
298.00,245.84,0
268.00,256.62,0
250.00,265.29,0
227.00,271.34,0
200.00,274.44,0
165.00,274.25,0
100.00,270.25,0
81.00,261.99,0
132.00,250.28,0
41.00,236.25,0
58.00,219.99,0
65.00,202.22,0
56.00,184.02,0
127.00,166.61,0
42.00,150.78,0
146.00,136.72,0
158.00,125.60,0
186.00,118.33,0
194.00,114.90,0
238.00,115.25,0
263.00,119.40,0
283.00,127.23,0
332.00,138.66,0
300.00,153.10,0
322.00,169.36,0
310.00,186.54,0
298.00,203.69,0
288.00,219.85,0
292.00,234.50,0
296.00,247.53,0
282.00,258.89,0
267.00,268.28,0
208.00,274.98,0
175.00,278.07,0
128.00,276.86,0
118.00,271.29,0
83.00,261.80,0
68.00,248.85,0
40.00,232.94,0
72.00,214.91,0
86.00,196.33,0
80.00,178.40,0
127.00,161.96,0
119.00,147.86,0
126.00,136.31,0
167.00,127.48,0
209.00,122.09,0
211.00,120.55,0
234.00,122.53,0
282.00,127.95,0
299.00,136.95,0
324.00,149.19,0
286.00,163.83,0
326.00,179.64,0
276.00,195.74,0
301.00,211.27,0
279.00,225.65,0
243.00,238.22,0
301.00,248.70,0
238.00,257.40,0
234.00,263.86,0
213.00,267.65,0
200.00,268.77,0
122.00,266.80,0
92.00,260.90,0
43.00,250.59,0
103.00,236.74,0
43.00,220.80,0
77.00,203.50,0
127.00,186.32,0
92.00,170.59,0
126.00,156.60,0
157.00,144.94,0
165.00,136.29,0
174.00,130.69,0
230.00,128.27,0
242.00,129.42,0
286.00,134.29,0
303.00,142.80,0
302.00,154.42,0
338.00,168.45,0
295.00,184.12,0
244.00,199.62,0
289.00,213.65,0
311.00,226.61,0
286.00,238.88,0
247.00,249.64,0
298.00,258.47,0
243.00,265.61,0
222.00,270.58,0
168.00,272.48,0
144.00,270.73,0
118.00,265.21,0
104.00,256.21,0
48.00,243.98,0
71.00,228.88,0
38.00,211.71,0
44.00,193.23,0
78.00,174.51,0
93.00,156.91,0
109.00,141.44,0
142.00,128.75,0
152.00,119.37,0
172.00,113.41,0
191.00,110.79,0
208.00,111.46,0
262.00,115.50,0
304.00,123.29,0
292.00,134.76,0
307.00,148.95,0
306.00,164.83,0
360.00,182.05,0
303.00,200.13,0
294.00,217.68,0
302.00,233.68,0
283.00,247.88,0
302.00,260.14,0
224.00,270.05,0
242.00,276.85,0
182.00,280.21,0
149.00,279.71,0
115.00,275.01,0
91.00,266.19,0
45.00,253.48,0
78.00,237.62,0
73.00,219.97,0
52.00,201.52,0
80.00,182.96,0
130.00,165.63,0
147.00,151.02,0
159.00,139.73,0
130.00,131.46,0
171.00,125.71,0
237.00,123.06,0
234.00,124.22,0
262.00,128.99,0
296.00,137.04,0
297.00,148.11,0
321.00,161.60,0
296.00,176.74,0
313.00,192.53,0
296.00,208.25,0
272.00,223.03,0
304.00,236.35,0
248.00,247.98,0
290.00,257.62,0
256.00,265.39,0
208.00,270.86,0
194.00,273.24,0
161.00,272.26,0
127.00,267.79,0
152.00,260.25,0
37.00,249.71,0
74.00,235.91,0
67.00,219.73,0
62.00,202.40,0
107.00,184.99,0
88.00,168.66,0
129.00,154.08,0
139.00,141.92,0
166.00,132.74,0
182.00,126.80,0
225.00,124.37,0
254.00,125.74,0
249.00,130.72,0
274.00,138.66,0
298.00,149.17,0
315.00,161.99,0
323.00,176.75,0
310.00,192.63,0
292.00,208.53,0
284.00,223.45,0
236.00,236.45,0
288.00,247.15,0
265.00,256.00,0
267.00,263.24,0
247.00,268.68,0
213.00,271.97,0
169.00,272.47,0
96.00,269.21,0
119.00,261.74,0
65.00,250.75,0
77.00,236.81,0
38.00,220.51,0
36.00,202.40,0
106.00,183.73,0
91.00,166.26,0
118.00,150.84,0
137.00,137.97,0
162.00,128.20,0
187.00,121.90,0
188.00,119.09,0
207.00,119.36,0
235.00,122.57,0
281.00,128.85,0
286.00,138.30,0
294.00,150.36,0
297.00,164.27,0
306.00,179.29,0
297.00,194.73,0
306.00,210.02,0
264.00,224.39,0
287.00,237.16,0
300.00,248.43,0
252.00,258.19,0
291.00,266.13,0
235.00,272.20,0
202.00,275.77,0
144.00,275.84,0
169.00,272.20,0
87.00,265.18,0
111.00,254.84,0
48.00,241.49,0
72.00,225.71,0
49.00,208.28,0
36.00,189.84,0
110.00,171.44,0
114.00,154.86,0
159.00,141.25,0
134.00,130.93,0
173.00,123.72,0
160.00,119.46,0
210.00,118.08,0
202.00,119.57,0
254.00,123.95,0
293.00,131.47,0
297.00,142.28,0
337.00,155.87,0
338.00,171.87,0
314.00,189.32,0
309.00,206.87,0
310.00,223.62,0
301.00,239.13,0
267.00,252.75,0
280.00,263.95,0
260.00,272.73,0
250.00,279.05,0
207.00,282.61,0
181.00,282.95,0
126.00,279.57,0
107.00,272.24,0
47.00,260.88,0
66.00,245.76,0
61.00,228.11,0
45.00,209.12,0
89.00,189.70,0
100.00,171.34,0
130.00,155.18,0
135.00,141.87,0
162.00,131.70,0
188.00,124.99,0
188.00,121.76,0
240.00,121.99,0
267.00,125.86,0
310.00,133.59,0
303.00,144.95,0
342.00,159.19,0
297.00,175.33,0
322.00,192.19,0
291.00,208.84,0
271.00,224.30,0
302.00,238.01,0
296.00,250.24,0
296.00,261.09,0
237.00,270.01,0
210.00,275.93,0
176.00,278.16,0
129.00,276.35,0
84.00,270.13,0
92.00,259.67,0
54.00,245.79,0
69.00,229.35,0
80.00,211.50,0
40.00,193.18,0
105.00,175.08,0
104.00,158.45,0
137.00,144.29,0
157.00,133.19,0
176.00,125.56,0
189.00,121.40,0
247.00,120.87,0
265.00,124.36,0
282.00,131.67,0
280.00,142.06,0
311.00,154.83,0
332.00,169.59,0
303.00,185.78,0
271.00,201.98,0
289.00,216.99,0
279.00,230.54,0
258.00,242.35,0
258.00,252.01,0
264.00,259.59,0
208.00,264.99,0
192.00,267.51,0
65.00,266.05,0
124.00,259.84,0
62.00,249.48,0
96.00,236.24,0
38.00,220.82,0
70.00,203.81,0
65.00,186.12,0
44.00,168.53,0
123.00,151.87,0
149.00,137.83,0
162.00,127.42,0
155.00,120.51,0
176.00,116.64,0
214.00,115.83,0
264.00,118.53,0
291.00,125.18,0
270.00,135.31,0
337.00,148.18,0
295.00,163.29,0
324.00,179.70,0
289.00,196.40,0
330.00,212.78,0
319.00,228.68,0
272.00,243.45,0
269.00,255.98,0
263.00,265.90,0
275.00,273.51,0
210.00,278.69,0
222.00,281.00,0
188.00,280.40,0
127.00,276.63,0
62.00,268.77,0
116.00,256.93,0
36.00,242.13,0
94.00,225.18,0
91.00,207.43,0
47.00,189.75,0
108.00,172.48,0
127.00,156.88,0
132.00,143.92,0
152.00,133.81,0
176.00,126.76,0
203.00,123.07,0
212.00,122.76,0
247.00,125.70,0
279.00,131.90,0
330.00,141.65,0
310.00,154.73,0
325.00,170.09,0
335.00,186.84,0
308.00,204.24,0
292.00,220.98,0
255.00,235.88,0
291.00,248.43,0
248.00,258.72,0
280.00,266.80,0
214.00,272.55,0
177.00,275.19,0
123.00,273.77,0
117.00,268.02,0
38.00,257.95,0
101.00,244.17,0
113.00,228.47,0
64.00,212.20,0
141.00,195.96,0
118.00,180.96,0
127.00,167.75,0
167.00,156.63,0
214.00,148.60,0
188.00,144.08,0
255.00,142.93,0
292.00,145.52,0
307.00,152.18,0
346.00,162.65,0
285.00,175.90,0
311.00,190.31,0
278.00,204.81,0
300.00,218.70,0
283.00,231.62,0
270.00,243.17,0
310.00,253.27,0
259.00,262.07,0
194.00,268.54,0
175.00,271.35,0
113.00,269.98,0
101.00,264.09,0
91.00,254.26,0
36.00,241.03,0
61.00,224.85,0
61.00,206.90,0
44.00,188.31,0
97.00,169.97,0
110.00,153.29,0
139.00,139.31,0
131.00,128.37,0
175.00,120.57,0
204.00,116.32,0
233.00,116.03,0
268.00,119.73,0
268.00,127.22,0
309.00,137.91,0
330.00,151.51,0
333.00,167.57,0
293.00,184.91,0
273.00,201.83,0
324.00,217.62,0
296.00,232.51,0
249.00,245.77,0
245.00,256.30,0
306.00,264.45,0
223.00,270.83,0
226.00,274.82,0
143.00,275.51,0
164.00,272.53,0
109.00,266.02,0
99.00,256.22,0
38.00,243.11,0
38.00,226.84,0
76.00,208.51,0
69.00,189.84,0
106.00,172.03,0
125.00,156.16,0
153.00,143.15,0
153.00,133.35,0
155.00,126.60,0
212.00,122.85,0
216.00,122.52,0
271.00,125.80,0
281.00,132.75,0
336.00,143.32,0
298.00,156.96,0
320.00,172.47,0
330.00,189.07,0
330.00,206.27,0
311.00,223.28,0
255.00,238.79,0
320.00,252.12,0
267.00,263.51,0
300.00,273.00,0
244.00,280.37,0
203.00,284.86,0
172.00,285.64,0
108.00,282.22,0
92.00,274.19,0
83.00,262.08,0
49.00,246.76,0
36.00,228.70,0
92.00,209.18,0
62.00,189.76,0
111.00,171.44,0
104.00,155.06,0
139.00,141.27,0
155.00,130.56,0
186.00,123.39,0
224.00,120.06,0
245.00,120.86,0
257.00,125.50,0
261.00,133.34,0
302.00,143.79,0
329.00,156.89,0
338.00,172.43,0
328.00,189.59,0
304.00,207.06,0
304.00,223.75,0
295.00,239.02,0
316.00,252.71,0
245.00,264.45,0
293.00,273.71,0
233.00,280.49,0
212.00,284.39,0
147.00,284.59,0
170.00,280.96,0
89.00,273.68,0
83.00,262.57,0
43.00,247.93,0
77.00,230.67,0
69.00,212.15,0
43.00,193.15,0
117.00,174.58,0
93.00,157.76,0
136.00,143.39,0
172.00,132.17,0
177.00,124.69,0
200.00,120.88,0
219.00,120.63,0
244.00,123.73,0
243.00,129.82,0
318.00,138.91,0
306.00,151.00,0
349.00,165.76,0
333.00,182.60,0
308.00,200.27,0
305.00,217.44,0
300.00,233.37,0
327.00,247.94,0
270.00,260.94,0
304.00,271.87,0
239.00,280.39,0
232.00,285.96,0
178.00,288.00,0
156.00,286.14,0
73.00,279.89,0
80.00,269.03,0
38.00,254.05,0
48.00,235.94,0
59.00,215.96,0
95.00,195.76,0
148.00,177.21,0
135.00,161.60,0
147.00,149.06,0
158.00,139.46,0
222.00,133.21,0
201.00,130.71,0
247.00,131.67,0
301.00,136.31,0
312.00,144.93,0
337.00,157.22,0
303.00,171.97,0
334.00,188.06,0
307.00,204.66,0
299.00,220.82,0
315.00,235.89,0
243.00,249.22,0
291.00,260.14,0
254.00,268.76,0
298.00,275.50,0
216.00,280.32,0
242.00,282.74,0
171.00,282.41,0
158.00,278.96,0
61.00,271.58,0
97.00,260.07,0
38.00,245.11,0
42.00,227.35,0
114.00,208.26,0
84.00,189.80,0
120.00,172.82,0
134.00,157.99,0
159.00,146.03,0
167.00,137.22,0
211.00,131.83,0
232.00,130.18,0
264.00,132.39,0
288.00,138.41,0
304.00,147.85,0
314.00,160.12,0
263.00,174.09,0
322.00,188.54,0
325.00,203.49,0
295.00,218.63,0
296.00,232.91,0
298.00,245.86,0
334.00,257.71,0
196.00,267.80,0
234.00,274.55,0
220.00,277.91,0
159.00,278.15,0
137.00,274.69,0
122.00,267.53,0
36.00,256.63,0
61.00,241.93,0
65.00,224.56,0
50.00,205.95,0
136.00,187.48,0
134.00,171.02,0
143.00,157.38,0
150.00,146.53,0
172.00,138.52,0
191.00,133.55,0
240.00,131.95,0
260.00,134.04,0
294.00,139.90,0
294.00,149.19,0
308.00,161.15,0
355.00,175.35,0
324.00,191.43,0
312.00,208.21,0
302.00,224.42,0
302.00,239.39,0
309.00,252.90,0
274.00,264.67,0
276.00,274.24,0
226.00,281.14,0
212.00,284.80,0
185.00,285.10,0
128.00,281.76,0
93.00,274.20,0
80.00,262.70,0
35.00,247.61,0
59.00,229.62,0
64.00,210.18,0
72.00,190.60,0
113.00,172.04,0
124.00,155.74,0
188.00,142.75,0
106.00,133.17,0
166.00,126.16,0
192.00,121.88,0
246.00,121.19,0
288.00,124.75,0
303.00,132.63,0
328.00,144.36,0
318.00,159.03,0
341.00,175.74,0
311.00,193.48,0
299.00,211.03,0
305.00,227.43,0
292.00,242.30,0
327.00,255.64,0
245.00,267.16,0
288.00,276.23,0
216.00,282.57,0
193.00,285.55,0
131.00,284.45,0
159.00,279.29,0
101.00,270.59,0
80.00,258.71,0
41.00,243.66,0
58.00,226.01,0
71.00,206.99,0
52.00,187.79,0
122.00,169.46,0
152.00,153.63,0
157.00,141.36,0
152.00,132.46,0
182.00,126.65,0
202.00,123.99,0
224.00,124.60,0
250.00,128.40,0
287.00,135.46,0
322.00,145.83,0
316.00,159.19,0
349.00,174.89,0
366.00,192.49,0
320.00,211.10,0
287.00,228.97,0
299.00,244.84,0
299.00,258.59,0
254.00,270.01,0
277.00,278.72,0
213.00,284.53,0
188.00,286.92,0
128.00,285.08,0
109.00,278.81,0
59.00,268.17,0
86.00,253.70,0
51.00,236.62,0
42.00,217.75,0
96.00,198.13,0
110.00,179.52,0
166.00,163.44,0
146.00,150.67,0
156.00,141.08,0
186.00,134.45,0
204.00,131.02,0
240.00,131.01,0
264.00,134.52,0
315.00,141.70,0
312.00,152.45,0
341.00,166.17,0
348.00,182.23,0
370.00,200.00,0
316.00,218.54,0
243.00,235.69,0
363.00,250.55,0
286.00,263.94,0
312.00,275.70,0
242.00,285.03,0
252.00,291.34,0
154.00,293.94,0
180.00,292.32,0
104.00,286.50,0
88.00,276.44,0
48.00,262.36,0
64.00,245.02,0
75.00,225.74,0
51.00,205.83,0
110.00,186.26,0
136.00,168.58,0
126.00,153.78,0
153.00,141.90,0
184.00,133.31,0
157.00,127.96,0
231.00,125.69,0
244.00,126.96,0
262.00,131.85,0
323.00,140.24,0
337.00,152.22,0
348.00,167.48,0
355.00,185.02,0
323.00,203.67,0
341.00,222.22,0
292.00,239.69,0
306.00,255.22,0
214.00,267.81,0
281.00,276.91,0
259.00,283.22,0
231.00,287.16,0
190.00,288.19,0
147.00,285.70,0
96.00,279.17,0
111.00,268.73,0
46.00,254.89,0
86.00,238.32,0
73.00,220.27,0
58.00,201.61,0
86.00,183.05,0
127.00,165.83,0
148.00,151.31,0
162.00,140.12,0
156.00,132.18,0
174.00,127.17,0
253.00,125.40,0
298.00,128.01,0
322.00,135.54,0
327.00,147.28,0
362.00,162.42,0
327.00,180.02,0
309.00,198.42,0
332.00,216.42,0
290.00,233.40,0
283.00,248.45,0
288.00,261.14,0
250.00,271.30,0
270.00,278.81,0
218.00,283.60,0
175.00,285.17,0
105.00,282.45,0
77.00,274.81,0
50.00,262.47,0
61.00,246.36,0
63.00,227.91,0
37.00,208.22,0
87.00,188.24,0
120.00,169.57,0
141.00,153.65,0
141.00,140.95,0
192.00,131.75,0
188.00,126.30,0
203.00,124.33,0
218.00,125.46,0
285.00,129.84,0
312.00,137.97,0
333.00,149.87,0
373.00,165.13,0
347.00,183.09,0
318.00,202.15,0
322.00,220.74,0
326.00,238.22,0
309.00,254.23,0
275.00,268.07,0
287.00,279.19,0
265.00,287.61,0
245.00,293.25,0
190.00,295.65,0
156.00,294.13,0
124.00,288.45,0
109.00,278.86,0
55.00,265.65,0
78.00,249.27,0
64.00,230.82,0
43.00,211.20,0
110.00,191.43,0
117.00,173.21,0
162.00,157.82,0
152.00,145.80,0
175.00,137.16,0
187.00,131.76,0
221.00,129.64,0
255.00,131.02,0
272.00,136.04,0
332.00,144.69,0
317.00,156.84,0
362.00,171.89,0
311.00,188.80,0
344.00,206.39,0
281.00,223.53,0
309.00,239.21,0
299.00,253.13,0
283.00,265.17,0
298.00,275.16,0
251.00,283.00,0
235.00,288.15,0
193.00,290.10,0
142.00,288.25,0
62.00,281.73,0
89.00,270.41,0
52.00,255.30,0
86.00,237.64,0
51.00,218.66,0
56.00,198.97,0
136.00,179.90,0
122.00,163.18,0
159.00,149.54,0
145.00,139.08,0
178.00,131.69,0
196.00,127.49,0
226.00,126.66,0
238.00,129.15,0
255.00,134.65,0
308.00,143.10,0
312.00,154.56,0
335.00,168.61,0
324.00,184.54,0
302.00,201.14,0
308.00,217.35,0
328.00,232.77,0
312.00,247.34,0
278.00,260.41,0
301.00,271.40,0
268.00,280.27,0
265.00,286.83,0
210.00,290.67,0
182.00,291.15,0
112.00,287.53,0
90.00,279.27,0
50.00,266.58,0
128.00,250.74,0
64.00,233.42,0
44.00,215.05,0
100.00,196.08,0
106.00,178.06,0
161.00,162.40,0
150.00,149.89,0
172.00,140.67,0
190.00,134.71,0
213.00,132.04,0
224.00,132.57,0
205.00,135.78,0
307.00,141.55,0
327.00,150.73,0
321.00,163.41,0
299.00,178.12,0
355.00,193.94,0
295.00,210.38,0
303.00,226.22,0
340.00,241.04,0
242.00,254.46,0
300.00,265.53,0
252.00,274.21,0
260.00,280.53,0
217.00,284.21,0
154.00,284.60,0
90.00,280.56,0
78.00,271.61,0
48.00,258.21,0
55.00,241.40,0
73.00,222.50,0
54.00,202.87,0
124.00,183.77,0
146.00,166.88,0
150.00,153.21,0
165.00,142.81,0
186.00,135.68,0
223.00,132.08,0
259.00,132.32,0
262.00,136.41,0
316.00,144.05,0
322.00,155.21,0
310.00,169.06,0
393.00,185.06,0
336.00,202.95,0
348.00,221.49,0
329.00,239.50,0
300.00,256.05,0
306.00,270.37,0
279.00,282.15,0
321.00,291.58,0
253.00,298.79,0
216.00,303.02,0
198.00,303.53,0
168.00,300.31,0
90.00,293.11,0
112.00,281.80,0
51.00,266.94,0
76.00,249.13,0
59.00,229.52,0
52.00,209.03,0
110.00,188.77,0
119.00,170.37,0
135.00,154.75,0
158.00,142.30,0
187.00,133.42,0
212.00,128.41,0
245.00,127.43,0
255.00,130.40,0
294.00,137.02,0
317.00,147.12,0
357.00,160.54,0
364.00,176.95,0
330.00,195.23,0
378.00,214.22,0
308.00,233.09,0
290.00,250.33,0
310.00,265.06,0
281.00,277.33,0
308.00,287.24,0
258.00,294.82,0
276.00,299.93,0
244.00,302.60,0
178.00,302.44,0
156.00,298.57,0
134.00,290.96,0
98.00,279.85,0
69.00,265.48,0
36.00,248.01,0
37.00,227.95,0
84.00,206.78,0
53.00,185.97,0
152.00,166.83,0
157.00,151.04,0
186.00,139.44,0
191.00,131.98,0
246.00,128.66,0
176.00,128.99,0
251.00,131.97,0
303.00,138.03,0
321.00,147.77,0
325.00,160.76,0
329.00,176.10,0
363.00,193.11,0
336.00,211.17,0
318.00,229.12,0
339.00,246.03,0
295.00,261.43,0
303.00,274.67,0
260.00,285.23,0
247.00,292.66,0
238.00,296.83,0
152.00,297.36,0
118.00,293.40,0
84.00,284.55,0
37.00,271.03,0
62.00,253.61,0
68.00,233.87,0
58.00,213.20,0
114.00,192.91,0
133.00,174.56,0
146.00,159.21,0
168.00,147.17,0
175.00,138.60,0
215.00,133.55,0
248.00,132.37,0
265.00,135.13,0
284.00,141.52,0
327.00,151.35,0
324.00,164.25,0
364.00,179.71,0
331.00,196.93,0
329.00,214.71,0
340.00,232.12,0
296.00,248.45,0
323.00,263.02,0
254.00,275.29,0
313.00,284.95,0
271.00,292.39,0
236.00,297.37,0
238.00,299.45,0
134.00,298.10,0
112.00,292.29,0
81.00,281.80,0
50.00,267.20,0
67.00,249.31,0
86.00,229.70,0
51.00,209.55,0
116.00,189.85,0
124.00,171.96,0
160.00,157.01,0
165.00,145.49,0
200.00,137.67,0
207.00,133.54,0
259.00,133.17,0
246.00,136.58,0
291.00,143.28,0
331.00,153.22,0
319.00,166.23,0
367.00,181.68,0
308.00,198.63,0
353.00,215.99,0
347.00,233.33,0
308.00,249.99,0
289.00,264.74,0
269.00,276.75,0
287.00,285.94,0
232.00,292.35,0
240.00,295.74,0
225.00,296.27,0
156.00,293.84,0
95.00,287.45,0
104.00,276.74,0
40.00,262.33,0
58.00,244.69,0
79.00,225.13,0
46.00,205.02,0
116.00,185.33,0
112.00,167.47,0
166.00,152.54,0
142.00,141.00,0
178.00,132.77,0
228.00,128.13,0
224.00,127.43,0
273.00,130.52,0
321.00,137.53,0
337.00,148.70,0
314.00,163.08,0
362.00,179.57,0
318.00,197.40,0
355.00,215.61,0
306.00,233.35,0
277.00,249.40,0
295.00,262.88,0
301.00,274.10,0
316.00,283.59,0
280.00,291.45,0
252.00,297.10,0
234.00,300.00,0
142.00,299.41,0
125.00,294.33,0
149.00,285.18,0
44.00,272.70,0
71.00,256.78,0
64.00,238.20,0
43.00,218.20,0
99.00,197.85,0
97.00,178.62,0
156.00,161.81,0
141.00,148.23,0
176.00,138.07,0
170.00,131.27,0
209.00,127.74,0
184.00,127.23,0
250.00,129.46,0
247.00,134.60,0
307.00,142.77,0
352.00,154.32,0
352.00,169.27,0
344.00,186.60,0
320.00,204.88,0
322.00,222.79,0
315.00,239.62,0
306.00,254.88,0
305.00,268.23,0
286.00,279.44,0
282.00,288.30,0
217.00,294.32,0
190.00,296.64,0
176.00,294.98,0
117.00,289.40,0
51.00,279.33,0
79.00,264.93,0
63.00,247.48,0
38.00,227.97,0
94.00,207.55,0
94.00,187.79,0
128.00,169.96,0
177.00,155.14,0
190.00,144.31,0
169.00,137.32,0
207.00,133.53,0
213.00,132.80,0
261.00,135.26,0
297.00,141.24,0
304.00,150.69,0
392.00,163.56,0
361.00,179.87,0
350.00,198.42,0
348.00,217.62,0
346.00,236.51,0
339.00,254.43,0
283.00,270.44,0
323.00,283.82,0
299.00,294.76,0
286.00,303.28,0
244.00,308.95,0
250.00,311.50,0
176.00,310.75,0
138.00,306.01,0
117.00,296.99,0
72.00,283.97,0
43.00,267.12,0
98.00,247.62,0
82.00,227.28,0
83.00,207.13,0
132.00,188.10,0
114.00,171.24,0
158.00,157.04,0
166.00,146.01,0
191.00,138.43,0
190.00,134.20,0
252.00,133.38,0
250.00,136.12,0
308.00,142.47,0
342.00,152.55,0
383.00,166.52,0
331.00,183.49,0
364.00,201.94,0
342.00,220.91,0
316.00,239.30,0
311.00,255.99,0
315.00,270.56,0
248.00,282.50,0
300.00,291.41,0
251.00,297.62,0
220.00,300.95,0
189.00,300.79,0
146.00,296.85,0
98.00,288.75,0
86.00,276.57,0
36.00,260.72,0
61.00,241.82,0
56.00,221.24,0
69.00,200.32,0
134.00,180.52,0
139.00,163.44,0
155.00,149.75,0
168.00,139.49,0
210.00,132.91,0
187.00,129.93,0
247.00,130.23,0
286.00,134.19,0
290.00,141.92,0
356.00,153.16,0
318.00,167.56,0
304.00,183.74,0
318.00,200.24,0
334.00,216.70,0
333.00,232.93,0
342.00,248.67,0
324.00,263.50,0
284.00,276.58,0
300.00,287.22,0
242.00,295.11,0
198.00,299.46,0
145.00,299.26,0
148.00,294.43,0
62.00,285.15,0
63.00,271.36,0
42.00,253.76,0
51.00,233.66,0
100.00,212.64,0
106.00,192.58,0
148.00,174.78,0
181.00,160.30,0
183.00,149.75,0
202.00,143.00,0
254.00,140.09,0
271.00,141.37,0
350.00,147.13,0
316.00,157.32,0
339.00,170.79,0
343.00,186.46,0
358.00,203.61,0
340.00,221.51,0
332.00,239.11,0
308.00,255.42,0
317.00,269.83,0
288.00,282.03,0
292.00,291.76,0
248.00,298.74,0
225.00,302.53,0
178.00,302.62,0
140.00,298.59,0
68.00,290.02,0
84.00,276.91,0
38.00,259.95,0
48.00,240.15,0
77.00,218.92,0
62.00,197.74,0
145.00,177.97,0
119.00,160.96,0
161.00,147.21,0
179.00,137.02,0
201.00,130.71,0
229.00,128.29,0
282.00,129.99,0
282.00,135.83,0
300.00,145.26,0
330.00,157.61,0
344.00,172.60,0
376.00,189.83,0
324.00,208.36,0
355.00,226.93,0
323.00,244.77,0
311.00,261.08,0
342.00,275.48,0
286.00,287.90,0
300.00,297.86,0
259.00,305.04,0
240.00,309.18,0
206.00,309.92,0
143.00,306.84,0
109.00,299.33,0
123.00,287.78,0
38.00,272.67,0
66.00,254.34,0
100.00,234.28,0
43.00,213.81,0
100.00,193.55,0
107.00,174.65,0
150.00,158.35,0
155.00,145.37,0
182.00,136.00,0
177.00,130.13,0
206.00,127.53,0
185.00,127.71,0
263.00,130.56,0
302.00,136.77,0
326.00,146.83,0
346.00,160.41,0
358.00,176.86,0
352.00,195.24,0
341.00,214.36,0
283.00,232.70,0
320.00,249.09,0
293.00,263.36,0
315.00,275.60,0
258.00,285.54,0
237.00,292.46,0
210.00,295.85,0
182.00,295.58,0
151.00,291.59,0
127.00,283.95,0
55.00,272.55,0
84.00,257.46,0
73.00,239.89,0
35.00,220.79,0
127.00,201.17,0
128.00,183.05,0
180.00,167.89,0
172.00,156.26,0
170.00,147.98,0
204.00,142.72,0
235.00,140.73,0
276.00,142.49,0
279.00,147.91,0
313.00,156.65,0
368.00,168.72,0
368.00,184.01,0
382.00,201.79,0
358.00,220.97,0
340.00,240.12,0
322.00,257.99,0
297.00,273.62,0
260.00,286.16,0
344.00,295.84,0
240.00,303.23,0
243.00,307.61,0
190.00,308.32,0
198.00,305.40,0
74.00,298.45,0
98.00,286.92,0
37.00,271.27,0
44.00,252.18,0
125.00,231.36,0
72.00,210.91,0
115.00,191.59,0
110.00,173.98,0
161.00,158.95,0
160.00,147.16,0
201.00,138.97,0
193.00,134.39,0
222.00,133.12,0
258.00,135.17,0
277.00,140.65,0
316.00,149.45,0
341.00,161.57,0
342.00,176.52,0
351.00,193.43,0
340.00,211.31,0
352.00,229.33,0
328.00,246.80,0
313.00,262.83,0
278.00,276.50,0
320.00,287.57,0
248.00,296.11,0
265.00,301.75,0
224.00,304.35,0
188.00,303.73,0
139.00,299.29,0
122.00,290.89,0
69.00,278.68,0
76.00,262.83,0
55.00,244.42,0
39.00,224.22,0
78.00,203.17,0
84.00,182.77,0
166.00,164.63,0
157.00,150.16,0
197.00,139.79,0
205.00,133.55,0
214.00,131.17,0
258.00,132.40,0
272.00,137.24,0
325.00,145.69,0
298.00,157.46,0
365.00,171.79,0
329.00,188.20,0
359.00,205.92,0
351.00,224.16,0
320.00,242.02,0
320.00,258.45,0
271.00,272.55,0
320.00,284.03,0
255.00,293.00,0
216.00,298.78,0
234.00,300.93,0
200.00,299.91,0
119.00,295.40,0
119.00,286.82,0
61.00,274.24,0
66.00,258.10,0
50.00,239.28,0
68.00,218.99,0
127.00,198.94,0
118.00,180.75,0
150.00,165.19,0
160.00,152.68,0
205.00,143.75,0
230.00,138.82,0
222.00,137.85,0
276.00,140.49,0
290.00,146.65,0
361.00,156.58,0
352.00,170.38,0
368.00,187.11,0
327.00,205.36,0
324.00,223.61,0
308.00,240.70,0
237.00,255.46,0
285.00,267.03,0
232.00,275.56,0
201.00,280.74,0
165.00,281.94,0
113.00,278.84,0
38.00,270.71,0
91.00,257.82,0
57.00,241.75,0
47.00,223.57,0
107.00,204.48,0
95.00,186.12,0
174.00,169.91,0
181.00,157.15,0
183.00,148.23,0
185.00,142.61,0
243.00,140.21,0
273.00,141.56,0
329.00,147.21,0
362.00,157.36,0
331.00,171.36,0
383.00,187.99,0
318.00,206.14,0
342.00,224.40,0
324.00,241.83,0
304.00,257.78,0
345.00,271.94,0
261.00,284.08,0
280.00,293.39,0
213.00,299.31,0
183.00,301.22,0
140.00,298.67,0
112.00,291.60,0
71.00,280.19,0
113.00,265.25,0
37.00,247.93,0
42.00,228.50,0
76.00,207.74,0
75.00,187.32,0
156.00,168.76,0
136.00,153.41,0
180.00,141.71,0
190.00,133.81,0
218.00,129.79,0
262.00,129.84,0
268.00,133.94,0
308.00,141.73,0
290.00,152.66,0
323.00,165.92,0
342.00,181.04,0
320.00,197.55,0
340.00,214.49,0
362.00,231.54,0
366.00,248.66,0
301.00,264.99,0
334.00,279.40,0
241.00,291.11,0
342.00,299.96,0
252.00,306.47,0
217.00,310.07,0
142.00,309.38,0
144.00,303.97,0
72.00,293.92,0
117.00,279.90,0
36.00,262.81,0
37.00,243.01,0
50.00,221.27,0
41.00,198.92,0
133.00,177.50,0
134.00,159.01,0
155.00,144.30,0
152.00,133.30,0
210.00,126.04,0
200.00,122.73,0
270.00,123.50,0
304.00,128.62,0
294.00,137.93,0
369.00,150.90,0
319.00,166.97,0
389.00,185.19,0
341.00,204.85,0
360.00,224.86,0
342.00,244.20,0
280.00,261.78,0
320.00,276.57,0
258.00,288.41,0
279.00,297.10,0
260.00,302.79,0
220.00,305.50,0
156.00,304.51,0
156.00,299.38,0
68.00,289.99,0
92.00,276.45,0
40.00,259.45,0
45.00,239.76,0
60.00,218.34,0
87.00,196.92,0
164.00,177.43,0
123.00,161.20,0
176.00,148.39,0
189.00,139.24,0
230.00,134.20,0
246.00,133.33,0
275.00,136.48,0
301.00,143.49,0
334.00,154.09,0
358.00,167.98,0
357.00,184.60,0
355.00,202.95,0
380.00,222.15,0
325.00,241.28,0
327.00,259.06,0
300.00,274.59,0
380.00,288.11,0
255.00,299.72,0
312.00,308.57,0
254.00,314.46,0
226.00,317.17,0
191.00,316.18,0
140.00,311.12,0
82.00,301.56,0
92.00,287.57,0
44.00,269.93,0
56.00,249.54,0
67.00,227.62,0
74.00,205.59,0
173.00,185.25,0
142.00,168.32,0
171.00,155.08,0
161.00,145.23,0
190.00,138.58,0
211.00,135.16,0
252.00,135.26,0
318.00,139.46,0
335.00,148.16,0
371.00,161.15,0
339.00,177.38,0
398.00,195.82,0
330.00,215.45,0
358.00,234.95,0
348.00,253.53,0
292.00,270.40,0
354.00,284.90,0
278.00,297.07,0
308.00,306.57,0
259.00,313.19,0
246.00,316.74,0
172.00,316.56,0
181.00,312.35,0
110.00,304.13,0
113.00,292.12,0
36.00,276.40,0
118.00,257.86,0
59.00,237.97,0
40.00,217.30,0
143.00,196.73,0
73.00,177.90,0
170.00,161.50,0
163.00,148.47,0
177.00,139.20,0
213.00,133.62,0
254.00,132.06,0
262.00,134.60,0
304.00,141.05,0
366.00,151.55,0
325.00,165.77,0
383.00,182.63,0
349.00,201.33,0
358.00,220.76,0
339.00,239.82,0
312.00,257.54,0
333.00,273.20,0
299.00,286.63,0
334.00,297.80,0
280.00,306.75,0
274.00,313.08,0
203.00,316.03,0
145.00,314.64,0
98.00,308.08,0
107.00,296.60,0
52.00,281.01,0
47.00,262.04,0
94.00,240.89,0
59.00,219.24,0
115.00,198.26,0
138.00,179.29,0
165.00,163.54,0
187.00,151.59,0
247.00,144.00,0
209.00,140.84,0
338.00,142.08,0
282.00,148.03,0
298.00,157.54,0
351.00,169.69,0
407.00,184.97,0
380.00,203.26,0
361.00,223.07,0
345.00,242.74,0
338.00,261.16,0
327.00,277.65,0
321.00,291.86,0
307.00,303.56,0
319.00,312.78,0
265.00,319.46,0
237.00,322.91,0
212.00,322.70,0
132.00,318.39,0
84.00,309.20,0
88.00,295.19,0
56.00,277.41,0
56.00,256.86,0
68.00,234.72,0
56.00,212.17,0
110.00,190.44,0
130.00,170.97,0
164.00,154.95,0
166.00,142.82,0
240.00,134.95,0
227.00,131.74,0
244.00,132.68,0
282.00,137.26,0
331.00,145.61,0
345.00,157.77,0
358.00,173.16,0
362.00,190.85,0
369.00,210.01,0
374.00,229.78,0
356.00,249.40,0
332.00,267.80,0
372.00,284.44,0
282.00,298.91,0
304.00,310.25,0
270.00,318.19,0
255.00,322.79,0
184.00,323.51,0
195.00,320.13,0
105.00,312.61,0
115.00,300.90,0
42.00,285.09,0
85.00,266.02,0
64.00,245.05,0
54.00,223.19,0
124.00,201.66,0
120.00,182.13,0
163.00,165.61,0
163.00,152.63,0
173.00,143.20,0
227.00,137.38,0
222.00,135.47,0
268.00,137.29,0
303.00,142.89,0
344.00,152.45,0
333.00,165.63,0
341.00,181.30,0
345.00,198.45,0
328.00,216.20,0
344.00,233.66,0
336.00,250.39,0
338.00,266.01,0
315.00,280.05,0
353.00,292.38,0
251.00,302.60,0
286.00,309.78,0
250.00,313.88,0
127.00,314.18,0
115.00,309.15,0
139.00,299.13,0
67.00,285.41,0
88.00,268.55,0
51.00,249.28,0
42.00,228.35,0
74.00,206.63,0
92.00,185.64,0
148.00,166.90,0
157.00,151.65,0
170.00,140.28,0
204.00,132.81,0
187.00,129.07,0
224.00,128.57,0
269.00,131.38,0
292.00,137.87,0
314.00,147.91,0
361.00,161.19,0
331.00,177.24,0
371.00,195.13,0
309.00,213.70,0
374.00,232.02,0
369.00,250.10,0
336.00,267.52,0
338.00,283.31,0
317.00,296.93,0
305.00,308.02,0
294.00,316.36,0
238.00,321.59,0
197.00,322.91,0
160.00,319.76,0
96.00,311.83,0
97.00,299.12,0
36.00,282.32,0
87.00,262.29,0
88.00,240.83,0
45.00,219.10,0
132.00,197.87,0
172.00,179.17,0
168.00,164.36,0
170.00,153.28,0
214.00,145.77,0
226.00,142.05,0
260.00,142.14,0
322.00,146.31,0
328.00,154.84,0
364.00,167.24,0
340.00,182.72,0
357.00,200.01,0
362.00,218.26,0
368.00,236.90,0
335.00,255.06,0
293.00,271.44,0
336.00,285.30,0
298.00,296.85,0
331.00,306.23,0
243.00,313.20,0
224.00,316.74,0
173.00,316.08,0
153.00,311.06,0
89.00,301.71,0
104.00,288.23,0
44.00,271.24,0
87.00,251.68,0
56.00,230.73,0
45.00,209.21,0
135.00,188.22,0
129.00,169.71,0
174.00,154.72,0
169.00,143.55,0
212.00,136.29,0
206.00,132.86,0
241.00,133.00,0
272.00,136.70,0
340.00,144.24,0
349.00,155.98,0
366.00,171.35,0
398.00,189.56,0
347.00,209.61,0
372.00,230.00,0
326.00,249.59,0
328.00,267.40,0
338.00,283.01,0
278.00,296.10,0
289.00,306.05,0
279.00,312.88,0
300.00,317.21,0
216.00,319.08,0
232.00,317.88,0
133.00,313.16,0
148.00,304.58,0
42.00,291.79,0
77.00,274.99,0
40.00,255.06,0
37.00,233.03,0
97.00,210.34,0
100.00,188.88,0
169.00,170.17,0
161.00,155.28,0
213.00,144.64,0
207.00,138.34,0
245.00,136.21,0
256.00,137.98,0
266.00,143.19,0
309.00,151.48,0
301.00,162.56,0
368.00,176.19,0
362.00,192.27,0
374.00,210.28,0
350.00,229.13,0
310.00,247.32,0
349.00,263.87,0
298.00,278.52,0
336.00,291.04,0
284.00,301.29,0
286.00,308.95,0
244.00,313.66,0
217.00,315.06,0
113.00,312.18,0
119.00,304.32,0
58.00,291.66,0
76.00,274.89,0
40.00,255.14,0
39.00,233.29,0
97.00,210.73,0
103.00,189.40,0
147.00,170.64,0
163.00,155.38,0
186.00,144.09,0
205.00,136.84,0
204.00,133.41,0
246.00,133.46,0
290.00,137.29,0
311.00,145.07,0
325.00,156.37,0
375.00,170.87,0
340.00,187.94,0
408.00,206.81,0
324.00,226.60,0
324.00,245.55,0
336.00,262.64,0
323.00,277.84,0
320.00,290.97,0
296.00,301.74,0
331.00,310.22,0
229.00,316.22,0
209.00,318.57,0
151.00,316.42,0
148.00,309.77,0
98.00,298.91,0
44.00,284.00,0
52.00,265.29,0
37.00,243.74,0
100.00,221.16,0
96.00,199.42,0
148.00,179.95,0
123.00,163.46,0
190.00,150.35,0
193.00,141.15,0
200.00,135.88,0
247.00,134.33,0
241.00,136.41,0
231.00,141.39,0
306.00,148.89,0
337.00,159.42,0
364.00,173.25,0
377.00,190.01,0
375.00,208.84,0
372.00,228.60,0
291.00,247.70,0
357.00,264.87,0
438.00,281.08,0
284.00,296.63,0
321.00,309.61,0
304.00,319.41,0
275.00,326.24,0
185.00,329.21,0
183.00,327.35,0
134.00,320.76,0
112.00,309.81,0
36.00,294.43,0
80.00,275.18,0
50.00,253.44,0
50.00,230.39,0
122.00,207.48,0
127.00,186.69,0
202.00,169.50,0
160.00,156.54,0
123.00,146.86,0
204.00,139.69,0
271.00,136.29,0
293.00,137.77,0
317.00,144.06,0
371.00,154.88,0
361.00,169.73,0
361.00,187.38,0
356.00,206.50,0
359.00,226.03,0
331.00,245.03,0
319.00,262.43,0
342.00,277.82,0
250.00,290.68,0
324.00,300.50,0
281.00,307.77,0
231.00,312.35,0
192.00,313.20,0
159.00,309.92,0
117.00,302.35,0
110.00,290.78,0
47.00,275.56,0
86.00,257.33,0
111.00,237.62,0
59.00,217.84,0
96.00,198.30,0
133.00,180.08,0
166.00,164.65,0
154.00,152.60,0
211.00,144.04,0
207.00,139.29,0
220.00,138.06,0
264.00,140.10,0
348.00,146.11,0
333.00,156.49,0
350.00,170.49,0
414.00,187.54,0
361.00,207.01,0
355.00,227.32,0
341.00,246.90,0
334.00,264.97,0
318.00,280.90,0
270.00,293.98,0
304.00,303.80,0
276.00,310.75,0
288.00,315.21,0
204.00,316.92,0
174.00,314.88,0
131.00,308.58,0
104.00,298.07,0
67.00,283.51,0
88.00,265.78,0
59.00,246.01,0
67.00,225.06,0
107.00,204.20,0
98.00,184.72,0
204.00,168.01,0
171.00,155.34,0
183.00,146.60,0
230.00,141.44,0
283.00,140.53,0
293.00,144.22,0
319.00,152.09,0
340.00,163.51,0
341.00,177.90,0
396.00,194.67,0
373.00,213.40,0
372.00,233.08,0
360.00,252.54,0
305.00,270.52,0
342.00,286.08,0
308.00,299.16,0
325.00,309.82,0
263.00,317.75,0
260.00,322.45,0
242.00,323.84,0
165.00,321.73,0
163.00,315.58,0
131.00,305.63,0
66.00,292.01,0
97.00,274.99,0
48.00,255.48,0
45.00,234.21,0
107.00,212.34,0
72.00,191.45,0
139.00,172.46,0
141.00,156.39,0
170.00,143.88,0
226.00,135.46,0
202.00,131.38,0
223.00,130.97,0
272.00,133.91,0
314.00,140.68,0
302.00,151.13,0
314.00,164.26,0
357.00,179.43,0
377.00,196.68,0
361.00,215.43,0
367.00,234.66,0
356.00,253.52,0
306.00,270.92,0
376.00,286.29,0
309.00,299.80,0
269.00,310.59,0
279.00,317.83,0
271.00,321.90,0
186.00,322.64,0
169.00,319.20,0
101.00,311.23,0
115.00,298.95,0
39.00,282.72,0
67.00,263.21,0
75.00,241.71,0
54.00,219.58,0
127.00,198.08,0
178.00,179.20,0
163.00,164.28,0
172.00,153.11,0
217.00,145.54,0
199.00,141.61,0
251.00,141.12,0
262.00,144.03,0
338.00,150.71,0
355.00,161.48,0
361.00,175.93,0
398.00,193.29,0
357.00,212.57,0
370.00,232.47,0
362.00,251.95,0
338.00,270.25,0
352.00,286.70,0
281.00,300.66,0
385.00,312.06,0
284.00,321.44,0
271.00,328.07,0
236.00,331.04,0
203.00,330.21,0
160.00,325.27,0
120.00,316.07,0
71.00,302.48,0
85.00,285.03,0
37.00,264.64,0
36.00,241.94,0
122.00,218.55,0
77.00,196.48,0
160.00,176.81,0
142.00,160.47,0
191.00,148.00,0
187.00,139.54,0
224.00,135.05,0
289.00,134.84,0
314.00,139.51,0
332.00,148.72,0
339.00,161.68,0
389.00,177.73,0
368.00,196.28,0
375.00,216.30,0
332.00,236.37,0
302.00,254.89,0
343.00,271.11,0
312.00,285.21,0
299.00,296.96,0
263.00,305.78,0
250.00,311.23,0
194.00,312.96,0
168.00,310.62,0
115.00,303.87,0
108.00,292.80,0
48.00,277.83,0
88.00,259.67,0
58.00,239.61,0
80.00,218.74,0
127.00,198.49,0
146.00,180.50,0
171.00,165.75,0
192.00,154.67,0
172.00,147.13,0
206.00,142.66,0
252.00,141.47,0
282.00,144.13,0
319.00,150.81,0
370.00,161.62,0
372.00,176.34,0
386.00,194.05,0
349.00,213.53,0
345.00,233.09,0
341.00,251.65,0
315.00,268.53,0
351.00,283.41,0
309.00,296.31,0
318.00,306.95,0
247.00,314.74,0
241.00,318.98,0
179.00,319.19,0
178.00,315.21,0
99.00,306.96,0
95.00,294.40,0
47.00,277.82,0
57.00,258.11,0
93.00,236.69,0
55.00,215.03,0
145.00,194.30,0
131.00,176.06,0
218.00,161.54,0
200.00,151.55,0
206.00,145.76,0
261.00,143.76,0
292.00,146.00,0
310.00,152.45,0
354.00,162.79,0
388.00,176.96,0
349.00,194.06,0
364.00,212.63,0
364.00,231.67,0
319.00,250.17,0
339.00,267.02,0
288.00,281.63,0
366.00,294.00,0
289.00,304.51,0
262.00,312.38,0
230.00,316.63,0
174.00,316.82,0
127.00,312.32,0
111.00,302.99,0
76.00,289.44,0
83.00,272.46,0
40.00,252.91,0
50.00,231.47,0
139.00,209.82,0
93.00,189.92,0
146.00,172.41,0
152.00,157.84,0
209.00,147.00,0
195.00,140.20,0
194.00,136.96,0
238.00,136.73,0
257.00,139.67,0
326.00,146.25,0
321.00,156.62,0
383.00,170.53,0
363.00,187.43,0
358.00,206.23,0
384.00,225.82,0
338.00,245.34,0
352.00,263.74,0
331.00,280.34,0
333.00,294.83,0
286.00,306.70,0
316.00,315.64,0
268.00,321.82,0
227.00,324.82,0
171.00,323.71,0
129.00,317.89,0
75.00,307.11,0
86.00,291.70,0
43.00,272.74,0
44.00,251.13,0
119.00,228.49,0
90.00,206.78,0
184.00,187.43,0
137.00,171.45,0
175.00,158.87,0
180.00,149.57,0
254.00,144.07,0
211.00,142.57,0
270.00,144.52,0
338.00,150.26,0
330.00,160.18,0
374.00,173.86,0
335.00,190.22,0
315.00,207.61,0
322.00,224.61,0
332.00,240.77,0
337.00,256.02,0
321.00,270.11,0
329.00,282.70,0
346.00,293.88,0
276.00,303.37,0
242.00,309.96,0
183.00,312.53,0
158.00,310.51,0
129.00,303.90,0
73.00,292.85,0
107.00,277.91,0
42.00,260.11,0
37.00,239.83,0
142.00,218.61,0
85.00,198.61,0
163.00,180.77,0
123.00,165.64,0
154.00,153.32,0
206.00,144.16,0
260.00,139.28,0
218.00,138.80,0
287.00,142.00,0
352.00,149.26,0
323.00,160.65,0
379.00,175.42,0
341.00,192.63,0
363.00,211.11,0
332.00,229.75,0
347.00,247.70,0
327.00,264.33,0
303.00,279.00,0
329.00,291.36,0
272.00,301.31,0
340.00,308.93,0
272.00,314.62,0
176.00,317.29,0
154.00,315.25,0
118.00,308.29,0
40.00,296.39,0
70.00,279.74,0
42.00,259.72,0
54.00,237.66,0
101.00,215.05,0
98.00,193.68,0
133.00,174.60,0
182.00,158.82,0
192.00,147.31,0
193.00,139.97,0
209.00,136.25,0
241.00,136.00,0
290.00,139.43,0
332.00,146.97,0
322.00,158.45,0
375.00,173.11,0
383.00,190.52,0
365.00,209.91,0
326.00,229.63,0
354.00,248.35,0
342.00,265.73,0
310.00,281.30,0
341.00,294.59,0
282.00,305.49,0
272.00,313.37,0
231.00,317.76,0
172.00,318.05,0
140.00,313.67,0
88.00,304.43,0
41.00,290.28,0
68.00,271.88,0
49.00,250.79,0
42.00,228.16,0
106.00,205.40,0
66.00,183.97,0
175.00,165.01,0
138.00,149.71,0
198.00,138.51,0
200.00,131.48,0
227.00,128.58,0
204.00,129.20,0
258.00,132.78,0
328.00,139.86,0
333.00,150.92,0
364.00,165.59,0
361.00,183.03,0
389.00,202.48,0
342.00,222.78,0
352.00,242.61,0
378.00,261.43,0
322.00,278.90,0
375.00,294.51,0
291.00,307.89,0
286.00,318.15,0
230.00,324.43,0
187.00,326.13,0
151.00,322.90,0
121.00,314.86,0
64.00,302.13,0
78.00,285.12,0
41.00,264.95,0
36.00,242.52,0
139.00,219.49,0
103.00,198.17,0
155.00,179.55,0
167.00,164.28,0
213.00,153.03,0
202.00,146.00,0
248.00,142.99,0
252.00,143.82,0
269.00,148.10,0
329.00,155.76,0
325.00,166.81,0
353.00,180.67,0
328.00,196.47,0
378.00,213.43,0
340.00,231.03,0
334.00,248.27,0
329.00,264.22,0
334.00,278.57,0
331.00,291.23,0
378.00,302.59,0
322.00,312.85,0
252.00,320.83,0
202.00,324.76,0
177.00,323.90,0
159.00,318.39,0
72.00,308.35,0
47.00,293.47,0
49.00,274.22,0
68.00,252.34,0
121.00,229.86,0
103.00,208.59,0
156.00,189.52,0
143.00,173.37,0
172.00,160.44,0
190.00,150.91,0
220.00,145.04,0
232.00,142.90,0
273.00,144.46,0
302.00,149.79,0
318.00,158.80,0
377.00,171.25,0
354.00,186.96,0
380.00,204.83,0
363.00,223.85,0
325.00,242.78,0
339.00,260.32,0
306.00,275.86,0
345.00,289.26,0
274.00,300.38,0
202.00,307.93,0
224.00,310.92,0
170.00,309.68,0
125.00,304.15,0
136.00,294.43,0
68.00,281.19,0
70.00,264.65,0
71.00,245.65,0
72.00,225.37,0
135.00,205.38,0
143.00,187.40,0
154.00,172.31,0
170.00,160.28,0
206.00,151.63,0
243.00,146.92,0
266.00,146.39,0
286.00,149.91,0
322.00,157.27,0
424.00,168.83,0
329.00,184.42,0
397.00,202.42,0
352.00,221.59,0
350.00,240.82,0
326.00,258.87,0
343.00,275.15,0
330.00,289.52,0
327.00,301.87,0
358.00,312.36,0
265.00,320.80,0
167.00,325.33,0
140.00,324.05,0
143.00,317.23,0
50.00,305.54,0
88.00,289.31,0
44.00,269.57,0
40.00,247.46,0
93.00,224.30,0
109.00,202.01,0
168.00,182.36,0
148.00,166.29,0
179.00,153.91,0
220.00,145.42,0
203.00,140.97,0
252.00,140.16,0
280.00,143.09,0
316.00,149.91,0
348.00,160.52,0
343.00,174.53,0
338.00,190.76,0
394.00,208.46,0
360.00,227.28,0
369.00,246.35,0
261.00,263.93,0
254.00,278.04,0
318.00,288.52,0
304.00,296.83,0
296.00,303.42,0
273.00,308.07,0
253.00,310.46,0
198.00,310.10,0
133.00,306.07,0
122.00,297.77,0
101.00,285.58,0
36.00,269.87,0
82.00,251.16,0
70.00,230.88,0
39.00,209.97,0
140.00,189.50,0
118.00,171.30,0
155.00,156.20,0
158.00,144.41,0
187.00,136.13,0
232.00,131.67,0
241.00,131.28,0
272.00,134.81,0
321.00,142.14,0
361.00,153.54,0
328.00,168.44,0
382.00,185.74,0
364.00,204.81,0
378.00,224.84,0
373.00,245.01,0
322.00,264.21,0
329.00,281.20,0
292.00,295.33,0
387.00,307.04,0
274.00,316.86,0
237.00,323.52,0
170.00,325.39,0
119.00,321.74,0
117.00,312.62,0
79.00,298.79,0
60.00,281.15,0
42.00,260.37,0
133.00,238.17,0
133.00,217.04,0
151.00,198.34,0
187.00,182.72,0
211.00,170.91,0
211.00,163.11,0
234.00,158.98,0
327.00,158.95,0
321.00,163.78,0
383.00,173.25,0
344.00,186.61,0
389.00,202.78,0
327.00,220.36,0
316.00,237.67,0
336.00,253.69,0
295.00,268.09,0
270.00,280.04,0
264.00,288.92,0
334.00,295.47,0
188.00,299.92,0
112.00,300.15,0
44.00,294.09,0
60.00,281.73,0
77.00,265.01,0
52.00,245.68,0
142.00,225.47,0
165.00,206.79,0
171.00,191.08,0
177.00,178.50,0
222.00,169.22,0
238.00,163.71,0
268.00,162.18,0
346.00,164.96,0
334.00,172.33,0
376.00,183.73,0
356.00,198.25,0
388.00,214.94,0
346.00,232.73,0
361.00,250.50,0
348.00,267.43,0
297.00,282.66,0
334.00,295.43,0
296.00,305.78,0
242.00,313.16,0
151.00,316.08,0
143.00,313.49,0
56.00,305.12,0
68.00,291.25,0
50.00,272.96,0
42.00,251.71,0
120.00,229.30,0
127.00,208.05,0
153.00,189.38,0
183.00,174.04,0
223.00,162.79,0
210.00,155.82,0
250.00,152.75,0
308.00,153.84,0
336.00,159.54,0
381.00,169.85,0
328.00,183.82,0
376.00,200.04,0
363.00,217.66,0
353.00,235.85,0
355.00,253.64,0
340.00,270.36,0
340.00,285.50,0
305.00,298.51,0
330.00,309.11,0
274.00,317.18,0
274.00,322.34,0
164.00,323.76,0
174.00,320.54,0
135.00,312.82,0
114.00,301.28,0
42.00,285.82,0
64.00,266.83,0
68.00,245.51,0
49.00,223.18,0
119.00,201.18,0
140.00,181.34,0
165.00,164.93,0
160.00,152.23,0
182.00,143.06,0
207.00,137.39,0
248.00,135.57,0
287.00,137.88,0
304.00,144.37,0
342.00,154.81,0
358.00,168.82,0
348.00,185.57,0
344.00,203.78,0
379.00,222.61,0
344.00,241.53,0
317.00,259.40,0
298.00,274.95,0
257.00,287.34,0
165.00,295.27,0
216.00,298.17,0
127.00,296.44,0
104.00,290.01,0
85.00,279.02,0
60.00,264.16,0
45.00,246.13,0
84.00,226.22,0
103.00,206.20,0
129.00,187.62,0
123.00,171.29,0
171.00,157.74,0
192.00,147.68,0
227.00,141.61,0
252.00,139.74,0
277.00,142.11,0
331.00,148.67,0
333.00,159.26,0
340.00,173.19,0
325.00,189.13,0
359.00,206.19,0
346.00,223.86,0
337.00,241.36,0
323.00,257.79,0
281.00,272.20,0
300.00,283.94,0
263.00,292.93,0
232.00,298.78,0
167.00,300.69,0
124.00,297.83,0
59.00,289.68,0
74.00,276.47,0
94.00,259.71,0
44.00,240.93,0
105.00,221.09,0
77.00,201.44,0
179.00,183.45,0
181.00,168.80,0
208.00,158.28,0
219.00,151.87,0
242.00,149.34,0
256.00,150.43,0
323.00,155.28,0
364.00,164.36,0
372.00,177.72,0
383.00,194.39,0
373.00,213.15,0
330.00,232.49,0
345.00,250.90,0
289.00,267.42,0
342.00,281.58,0
308.00,293.61,0
219.00,302.77,0
192.00,307.42,0
144.00,306.90,0
73.00,300.89,0
85.00,289.46,0
44.00,273.56,0
42.00,254.23,0
123.00,233.10,0
127.00,212.77,0
141.00,194.57,0
193.00,179.29,0
178.00,167.58,0
179.00,159.18,0
230.00,153.86,0
270.00,152.26,0
271.00,154.60,0
343.00,160.89,0
387.00,171.48,0
381.00,186.21,0
343.00,203.55,0
286.00,221.17,0
254.00,236.91,0
225.00,249.47,0
260.00,258.73,0
190.00,264.92,0
196.00,267.75,0
178.00,267.34,0
160.00,264.04,0
149.00,258.14,0
136.00,250.04,0
131.00,240.19,0
73.00,228.69,0
45.00,215.01,0
37.00,199.20,0
125.00,182.56,0
41.00,166.59,0
147.00,151.86,0
117.00,139.38,0
150.00,129.70,0
163.00,122.89,0
163.00,118.95,0
130.00,117.17,0
209.00,117.20,0
244.00,119.92,0
246.00,125.85,0
278.00,134.62,0
260.00,145.66,0
219.00,157.65,0
216.00,169.13,0
223.00,179.48,0
193.00,188.48,0
183.00,195.62,0
202.00,200.87,0
123.00,204.09,0
150.00,204.71,0
97.00,202.72,0
88.00,198.06,0
40.00,190.58,0
48.00,180.37,0
82.00,168.42,0
37.00,155.81,0
106.00,143.23,0
89.00,131.71,0
123.00,121.97,0
110.00,114.23,0
166.00,108.79,0
158.00,106.06,0
182.00,105.99,0
159.00,108.09,0
225.00,112.14,0
236.00,118.53,0
216.00,127.07,0
263.00,137.09,0
232.00,148.23,0
208.00,159.53,0
214.00,169.98,0
205.00,179.26,0
221.00,187.37,0
162.00,194.02,0
163.00,198.50,0
127.00,200.42,0
134.00,199.79,0
36.00,196.24,0
36.00,189.05,0
34.00,178.48,0
49.00,165.77,0
94.00,152.50,0
96.00,140.12,0
127.00,129.50,0
62.00,120.55,0
141.00,113.00,0
152.00,107.63,0
148.00,104.88,0
193.00,104.61,0
175.00,106.87,0
218.00,111.32,0
224.00,117.93,0
240.00,126.55,0
247.00,136.77,0
270.00,148.32,0
219.00,160.56,0
221.00,172.24,0
223.00,182.74,0
208.00,191.91,0
197.00,199.43,0
169.00,204.93,0
155.00,207.99,0
118.00,208.32,0
81.00,205.56,0
42.00,199.24,0
40.00,189.52,0
82.00,177.49,0
65.00,164.68,0
107.00,152.12,0
90.00,140.58,0
138.00,130.68,0
137.00,122.99,0
152.00,117.78,0
147.00,114.77,0
159.00,113.69,0
184.00,114.50,0
208.00,117.40,0
239.00,122.67,0
221.00,130.11,0
168.00,138.49,0
224.00,146.75,0
214.00,155.04,0
222.00,163.43,0
209.00,171.57,0
174.00,178.81,0
183.00,184.51,0
192.00,188.79,0
134.00,191.59,0
151.00,192.41,0
109.00,191.17,0
118.00,187.95,0
38.00,182.41,0
36.00,174.06,0
58.00,163.33,0
36.00,151.33,0
83.00,138.95,0
76.00,127.26,0
116.00,117.07,0
126.00,109.05,0
163.00,103.73,0
115.00,100.95,0
151.00,100.00,0
167.00,100.81,0
201.00,103.79,0
179.00,108.78,0
153.00,114.91,0
251.00,121.84,0
260.00,130.64,0
228.00,141.30,0
237.00,152.62,0
212.00,163.75,0
201.00,173.93,0
176.00,182.44,0
188.00,189.00,0
144.00,193.46,0
160.00,195.69,0
104.00,195.59,0
93.00,192.85,0
54.00,187.19,0
36.00,178.63,0
35.00,167.50,0
54.00,154.81,0
119.00,142.20,0
85.00,131.02,0
124.00,121.62,0
137.00,114.33,0
210.00,110.08,0
162.00,109.16,0
159.00,110.59,0
214.00,113.78,0
216.00,119.07,0
244.00,126.53,0
215.00,135.64,0
279.00,145.97,0
236.00,157.36,0
220.00,168.88,0
209.00,179.36,0
200.00,188.33,0
201.00,195.59,0
169.00,201.02,0
248.00,205.00,0
144.00,207.92,0
94.00,208.45,0
79.00,205.35,0
60.00,198.70,0
40.00,189.05,0
43.00,176.95,0
106.00,163.79,0
72.00,151.07,0
104.00,139.33,0
109.00,129.02,0
126.00,120.62,0
109.00,114.14,0
148.00,109.53,0
117.00,106.72,0
183.00,105.73,0
193.00,107.09,0
216.00,111.10,0
242.00,117.69,0
239.00,126.61,0
