50.00,42.07,0
44.00,42.28,0
61.00,42.70,0
47.00,43.36,0
69.00,44.28,0
63.00,45.56,0
38.00,46.95,0
87.00,48.32,0
72.00,50.11,0
69.00,52.29,0
68.00,54.52,0
78.00,56.75,0
122.00,59.43,0
65.00,62.70,0
63.00,65.72,0
76.00,68.05,0
74.00,69.96,0
85.00,71.65,0
98.00,73.39,0
58.00,75.09,0
86.00,76.38,0
76.00,77.36,0
72.00,78.11,0
57.00,78.38,0
59.00,78.02,0
84.00,77.32,0
47.00,76.48,0
58.00,75.28,0
65.00,73.75,0
46.00,72.09,0
42.00,70.10,0
39.00,67.66,0
38.00,64.88,0
68.00,62.14,0
77.00,60.07,0
66.00,58.90,0
63.00,58.31,0
82.00,58.19,0
125.00,59.09,0
54.00,61.01,0
80.00,63.05,0
73.00,64.89,0
98.00,66.82,0
94.00,69.07,0
115.00,71.81,0
52.00,74.63,0
89.00,76.84,0
77.00,78.52,0
40.00,79.54,0
40.00,79.33,0
102.00,78.38,0
78.00,77.72,0
46.00,77.17,0
72.00,76.20,0
37.00,74.82,0
38.00,72.82,0
68.00,70.39,0
46.00,68.03,0
46.00,65.69,0
71.00,63.46,0
54.00,61.68,0
52.00,60.19,0
74.00,58.99,0
46.00,58.15,0
70.00,57.55,0
73.00,57.32,0
80.00,57.70,0
78.00,58.66,0
71.00,59.98,0
69.00,61.39,0
95.00,62.94,0
66.00,64.73,0
72.00,66.41,0
60.00,67.73,0
51.00,68.50,0
82.00,68.84,0
67.00,69.15,0
82.00,69.56,0
46.00,69.86,0
53.00,69.66,0
62.00,68.97,0
51.00,68.06,0
103.00,67.32,0
42.00,67.00,0
70.00,66.67,0
46.00,66.10,0
39.00,65.14,0
56.00,63.75,0
38.00,62.15,0
37.00,60.28,0
81.00,58.45,0
69.00,57.35,0
74.00,57.03,0
72.00,57.30,0
108.00,58.31,0
60.00,60.02,0
126.00,62.26,0
98.00,65.30,0
78.00,68.76,0
74.00,71.82,0
82.00,74.32,0
57.00,76.21,0
53.00,77.18,0
77.00,77.35,0
86.00,77.34,0
68.00,77.40,0
72.00,77.32,0
46.00,76.83,0
62.00,75.79,0
77.00,74.53,0
36.00,73.20,0
55.00,71.44,0
44.00,69.32,0
55.00,67.05,0
47.00,64.77,0
55.00,62.59,0
48.00,60.55,0
67.00,58.80,0
54.00,57.48,0
40.00,56.36,0
58.00,55.23,0
50.00,54.24,0
43.00,53.36,0
50.00,52.47,0
78.00,51.88,0
65.00,51.96,0
84.00,52.72,0
94.00,54.25,0
95.00,56.65,0
94.00,59.72,0
79.00,63.08,0
89.00,66.37,0
43.00,69.15,0
90.00,71.17,0
84.00,72.89,0
88.00,74.65,0
92.00,76.42,0
38.00,77.81,0
74.00,78.29,0
52.00,78.02,0
63.00,77.23,0
106.00,76.42,0
56.00,76.02,0
47.00,75.39,0
88.00,74.38,0
56.00,73.47,0
53.00,72.44,0
58.00,71.07,0
43.00,69.44,0
64.00,67.62,0
68.00,65.98,0
77.00,64.83,0
65.00,64.19,0
77.00,63.93,0
50.00,63.84,0
57.00,63.59,0
145.00,63.86,0
61.00,65.32,0
79.00,67.13,0
73.00,68.70,0
80.00,70.14,0
49.00,71.25,0
116.00,72.17,0
55.00,73.25,0
62.00,74.04,0
75.00,74.29,0
128.00,74.83,0
102.00,76.36,0
39.00,78.06,0
54.00,78.71,0
40.00,78.15,0
58.00,76.72,0
65.00,74.93,0
42.00,72.99,0
44.00,70.69,0
56.00,68.15,0
62.00,65.77,0
34.00,63.56,0
78.00,61.49,0
55.00,59.91,0
68.00,58.85,0
75.00,58.29,0
71.00,58.33,0
56.00,58.69,0
41.00,58.88,0
73.00,58.81,0
68.00,58.93,0
78.00,59.44,0
66.00,60.26,0
99.00,61.45,0
42.00,62.85,0
83.00,64.03,0
86.00,65.24,0
79.00,66.77,0
74.00,68.35,0
58.00,69.64,0
36.00,70.19,0
63.00,69.88,0
68.00,69.24,0
36.00,68.41,0
52.00,67.10,0
36.00,65.34,0
35.00,63.15,0
41.00,60.62,0
46.00,58.03,0
38.00,55.57,0
48.00,53.26,0
36.00,51.15,0
35.00,49.14,0
55.00,47.31,0
48.00,45.96,0
75.00,45.28,0
60.00,45.40,0
64.00,46.14,0
135.00,47.85,0
78.00,50.97,0
98.00,54.88,0
79.00,58.95,0
118.00,63.20,0
92.00,67.70,0
88.00,72.11,0
79.00,75.95,0
75.00,79.01,0
84.00,81.30,0
78.00,83.02,0
70.00,84.13,0
52.00,84.42,0
56.00,83.75,0
82.00,82.51,0
37.00,80.96,0
40.00,78.73,0
79.00,76.05,0
57.00,73.61,0
34.00,71.19,0
67.00,68.59,0
80.00,66.40,0
50.00,64.83,0
102.00,63.83,0
78.00,63.69,0
43.00,63.98,0
75.00,64.05,0
66.00,64.13,0
38.00,64.10,0
78.00,63.77,0
68.00,63.58,0
84.00,63.80,0
134.00,64.90,0
87.00,67.23,0
73.00,69.93,0
74.00,72.20,0
51.00,73.79,0
127.00,75.06,0
75.00,76.68,0
36.00,77.97,0
75.00,78.21,0
40.00,77.66,0
35.00,76.25,0
68.00,74.12,0
44.00,71.84,0
61.00,69.52,0
101.00,67.66,0
47.00,66.58,0
43.00,65.52,0
86.00,64.36,0
42.00,63.48,0
62.00,62.63,0
108.00,62.17,0
66.00,62.63,0
36.00,63.19,0
72.00,63.26,0
87.00,63.43,0
76.00,64.12,0
112.00,65.42,0
101.00,67.56,0
76.00,70.19,0
86.00,72.66,0
86.00,74.90,0
41.00,76.60,0
120.00,77.73,0
98.00,79.15,0
67.00,80.78,0
75.00,81.89,0
60.00,82.31,0
62.00,82.04,0
102.00,81.48,0
66.00,81.11,0
43.00,80.44,0
80.00,79.19,0
54.00,77.75,0
38.00,75.94,0
59.00,73.62,0
55.00,71.17,0
36.00,68.65,0
63.00,66.03,0
37.00,63.51,0
41.00,60.96,0
68.00,58.55,0
74.00,56.85,0
127.00,56.51,0
127.00,58.15,0
50.00,61.02,0
90.00,63.81,0
82.00,66.40,0
89.00,69.01,0
70.00,71.44,0
115.00,73.76,0
86.00,76.28,0
87.00,78.76,0
135.00,81.31,0
70.00,84.08,0
84.00,86.38,0
69.00,87.81,0
68.00,88.39,0
73.00,88.21,0
66.00,87.47,0
49.00,86.12,0
37.00,83.91,0
41.00,80.81,0
47.00,77.16,0
37.00,73.26,0
35.00,69.17,0
51.00,65.07,0
43.00,61.30,0
56.00,58.00,0
63.00,55.38,0
74.00,53.67,0
41.00,52.68,0
58.00,51.95,0
76.00,51.61,0
78.00,52.02,0
93.00,53.29,0
68.00,55.25,0
84.00,57.50,0
78.00,59.91,0
78.00,62.38,0
39.00,64.45,0
148.00,66.41,0
39.00,68.79,0
88.00,70.93,0
79.00,72.63,0
47.00,73.95,0
42.00,74.29,0
61.00,73.67,0
89.00,72.86,0
38.00,72.12,0
48.00,70.93,0
37.00,69.10,0
36.00,66.73,0
55.00,64.08,0
35.00,61.45,0
46.00,58.82,0
41.00,56.27,0
56.00,53.99,0
52.00,52.17,0
71.00,50.97,0
74.00,50.58,0
72.00,51.02,0
80.00,52.13,0
82.00,53.84,0
78.00,56.03,0
87.00,58.53,0
62.00,61.09,0
76.00,63.38,0
92.00,65.56,0
55.00,67.65,0
74.00,69.28,0
68.00,70.47,0
69.00,71.35,0
89.00,72.10,0
132.00,73.41,0
65.00,75.44,0
35.00,76.94,0
81.00,77.33,0
56.00,77.16,0
54.00,76.52,0
58.00,75.35,0
38.00,73.69,0
48.00,71.48,0
69.00,69.12,0
47.00,66.97,0
38.00,64.78,0
69.00,62.56,0
37.00,60.57,0
48.00,58.63,0
49.00,56.72,0
41.00,54.94,0
60.00,53.36,0
64.00,52.24,0
76.00,51.85,0
79.00,52.27,0
86.00,53.51,0
78.00,55.39,0
77.00,57.63,0
73.00,59.95,0
126.00,62.61,0
81.00,65.91,0
73.00,69.22,0
71.00,71.92,0
80.00,74.03,0
80.00,75.75,0
110.00,77.45,0
60.00,79.16,0
54.00,80.18,0
59.00,80.18,0
50.00,79.37,0
36.00,77.75,0
41.00,75.30,0
40.00,72.25,0
46.00,68.92,0
44.00,65.58,0
54.00,62.42,0
36.00,59.51,0
80.00,57.04,0
44.00,55.25,0
70.00,54.04,0
73.00,53.46,0
68.00,53.59,0
106.00,54.53,0
57.00,56.23,0
112.00,58.41,0
49.00,60.86,0
73.00,63.04,0
78.00,64.88,0
81.00,66.69,0
74.00,68.46,0
68.00,70.00,0
95.00,71.37,0
115.00,73.14,0
69.00,75.32,0
77.00,77.22,0
64.00,78.48,0
49.00,78.94,0
63.00,78.54,0
37.00,77.40,0
50.00,75.52,0
38.00,73.03,0
43.00,70.12,0
38.00,66.93,0
42.00,63.62,0
42.00,60.36,0
60.00,57.42,0
39.00,54.95,0
82.00,53.08,0
47.00,51.97,0
65.00,51.40,0
42.00,51.07,0
98.00,51.17,0
78.00,52.17,0
59.00,53.78,0
62.00,55.37,0
66.00,56.80,0
77.00,58.25,0
80.00,59.91,0
78.00,61.80,0
146.00,64.35,0
100.00,68.04,0
87.00,72.18,0
73.00,75.82,0
74.00,78.61,0
62.00,80.46,0
75.00,81.46,0
35.00,81.58,0
36.00,80.45,0
74.00,78.43,0
39.00,76.15,0
38.00,73.47,0
43.00,70.30,0
40.00,66.93,0
38.00,63.48,0
99.00,60.54,0
41.00,58.59,0
48.00,57.07,0
52.00,55.58,0
38.00,54.19,0
60.00,52.89,0
72.00,52.05,0
66.00,51.93,0
111.00,52.73,0
73.00,54.56,0
80.00,56.93,0
51.00,59.20,0
98.00,61.28,0
136.00,64.00,0
69.00,67.57,0
70.00,70.90,0
70.00,73.39,0
73.00,75.19,0
99.00,76.68,0
54.00,77.96,0
61.00,78.57,0
71.00,78.49,0
57.00,77.98,0
81.00,77.21,0
43.00,76.24,0
48.00,74.76,0
32.00,72.58,0
45.00,69.83,0
44.00,66.80,0
40.00,63.72,0
64.00,60.83,0
55.00,58.46,0
43.00,56.52,0
47.00,54.74,0
72.00,53.29,0
87.00,52.73,0
36.00,52.90,0
71.00,53.18,0
66.00,53.65,0
80.00,54.57,0
69.00,55.90,0
69.00,57.43,0
80.00,59.07,0
144.00,61.44,0
70.00,64.84,0
74.00,68.24,0
83.00,71.05,0
51.00,73.25,0
67.00,74.58,0
47.00,75.05,0
61.00,74.76,0
48.00,73.85,0
69.00,72.59,0
40.00,71.10,0
37.00,69.16,0
80.00,66.99,0
50.00,65.17,0
43.00,63.48,0
83.00,61.90,0
56.00,60.85,0
36.00,59.94,0
56.00,58.80,0
102.00,58.05,0
43.00,58.06,0
59.00,58.19,0
73.00,58.30,0
103.00,59.01,0
66.00,60.44,0
88.00,62.21,0
67.00,64.05,0
71.00,65.75,0
60.00,67.09,0
61.00,67.98,0
79.00,68.56,0
90.00,69.29,0
71.00,70.27,0
77.00,71.26,0
63.00,72.03,0
72.00,72.51,0
61.00,72.69,0
81.00,72.70,0
53.00,72.58,0
44.00,72.00,0
54.00,70.79,0
36.00,69.09,0
34.00,66.83,0
74.00,64.37,0
46.00,62.26,0
35.00,60.27,0
56.00,58.18,0
43.00,56.24,0
44.00,54.45,0
78.00,53.01,0
58.00,52.29,0
59.00,52.12,0
129.00,52.78,0
80.00,54.81,0
63.00,57.45,0
72.00,59.85,0
75.00,62.03,0
69.00,64.03,0
83.00,65.89,0
87.00,67.78,0
79.00,69.76,0
78.00,71.62,0
79.00,73.26,0
77.00,74.68,0
102.00,76.05,0
96.00,77.70,0
57.00,79.28,0
60.00,80.10,0
73.00,80.14,0
73.00,79.83,0
57.00,79.24,0
65.00,78.25,0
49.00,76.87,0
35.00,74.92,0
76.00,72.58,0
36.00,70.24,0
41.00,67.71,0
56.00,64.98,0
40.00,62.35,0
47.00,59.81,0
84.00,57.70,0
49.00,56.38,0
87.00,55.73,0
58.00,55.71,0
59.00,56.03,0
85.00,56.57,0
73.00,57.61,0
96.00,59.19,0
62.00,61.14,0
37.00,62.73,0
84.00,63.68,0
64.00,64.53,0
86.00,65.50,0
84.00,66.71,0
52.00,67.96,0
68.00,68.78,0
62.00,69.19,0
60.00,69.30,0
77.00,69.24,0
43.00,69.02,0
68.00,68.48,0
44.00,67.66,0
48.00,66.48,0
36.00,64.84,0
38.00,62.76,0
67.00,60.59,0
59.00,58.85,0
40.00,57.44,0
90.00,56.36,0
64.00,56.01,0
74.00,56.32,0
61.00,56.95,0
51.00,57.58,0
72.00,58.10,0
146.00,59.39,0
58.00,61.90,0
112.00,64.84,0
67.00,67.82,0
70.00,70.45,0
72.00,72.43,0
165.00,74.67,0
80.00,77.90,0
88.00,81.19,0
66.00,83.66,0
74.00,85.21,0
93.00,86.10,0
68.00,86.65,0
79.00,86.75,0
66.00,86.37,0
68.00,85.53,0
45.00,84.11,0
52.00,81.99,0
39.00,79.22,0
56.00,76.04,0
59.00,72.84,0
37.00,69.75,0
61.00,66.70,0
44.00,63.85,0
59.00,61.30,0
71.00,59.26,0
58.00,57.89,0
40.00,56.81,0
76.00,55.89,0
87.00,55.64,0
70.00,56.26,0
91.00,57.50,0
73.00,59.22,0
78.00,61.18,0
84.00,63.23,0
104.00,65.60,0
56.00,68.10,0
92.00,70.30,0
79.00,72.28,0
82.00,74.14,0
84.00,75.81,0
46.00,77.02,0
73.00,77.44,0
52.00,77.22,0
68.00,76.52,0
92.00,75.78,0
78.00,75.44,0
36.00,75.03,0
36.00,73.78,0
44.00,71.65,0
51.00,69.11,0
86.00,66.82,0
46.00,65.09,0
36.00,63.38,0
47.00,61.36,0
58.00,59.36,0
79.00,57.87,0
57.00,57.08,0
63.00,56.71,0
77.00,56.70,0
71.00,57.21,0
66.00,58.06,0
74.00,59.07,0
73.00,60.26,0
79.00,61.65,0
54.00,63.02,0
93.00,64.29,0
57.00,65.58,0
74.00,66.72,0
45.00,67.44,0
69.00,67.69,0
68.00,67.71,0
40.00,67.51,0
67.00,66.91,0
40.00,66.01,0
72.00,64.96,0
94.00,64.30,0
41.00,64.16,0
37.00,63.70,0
56.00,62.65,0
47.00,61.41,0
60.00,60.17,0
35.00,58.91,0
43.00,57.44,0
62.00,55.93,0
39.00,54.64,0
64.00,53.54,0
78.00,52.96,0
64.00,53.11,0
104.00,54.04,0
79.00,55.86,0
90.00,58.31,0
65.00,60.92,0
73.00,63.31,0
60.00,65.27,0
108.00,67.09,0
71.00,69.13,0
93.00,71.23,0
69.00,73.16,0
82.00,74.80,0
71.00,76.08,0
91.00,77.14,0
80.00,78.15,0
37.00,78.72,0
64.00,78.35,0
46.00,77.22,0
56.00,75.57,0
89.00,73.85,0
44.00,72.40,0
37.00,70.68,0
46.00,68.39,0
41.00,65.78,0
60.00,63.18,0
73.00,61.05,0
68.00,59.67,0
64.00,58.92,0
129.00,59.08,0
86.00,60.64,0
71.00,62.89,0
74.00,65.03,0
76.00,66.94,0
76.00,68.67,0
95.00,70.39,0
81.00,72.23,0
105.00,74.25,0
70.00,76.30,0
82.00,78.05,0
50.00,79.13,0
94.00,79.63,0
71.00,79.92,0
43.00,79.81,0
60.00,78.88,0
62.00,77.43,0
59.00,75.77,0
39.00,73.82,0
67.00,71.58,0
36.00,69.24,0
43.00,66.68,0
48.00,63.93,0
42.00,61.22,0
53.00,58.68,0
60.00,56.52,0
65.00,54.97,0
60.00,54.05,0
53.00,53.52,0
47.00,53.12,0
72.00,52.86,0
69.00,53.07,0
59.00,53.69,0
114.00,54.88,0
38.00,56.66,0
69.00,58.27,0
96.00,59.82,0
94.00,61.96,0
94.00,64.65,0
115.00,67.83,0
40.00,71.02,0
82.00,73.39,0
72.00,75.04,0
41.00,76.02,0
62.00,76.04,0
116.00,75.87,0
48.00,76.05,0
58.00,75.91,0
83.00,75.33,0
47.00,74.64,0
34.00,73.40,0
86.00,71.68,0
35.00,70.00,0
42.00,68.04,0
70.00,65.87,0
38.00,63.86,0
37.00,61.74,0
72.00,59.60,0
134.00,58.61,0
67.00,59.28,0
83.00,60.72,0
52.00,62.17,0
116.00,63.72,0
63.00,65.65,0
78.00,67.59,0
72.00,69.24,0
83.00,70.72,0
76.00,72.11,0
62.00,73.23,0
84.00,74.01,0
107.00,74.93,0
55.00,76.08,0
64.00,76.76,0
44.00,76.61,0
55.00,75.68,0
69.00,74.31,0
47.00,72.80,0
54.00,71.04,0
39.00,68.95,0
59.00,66.66,0
38.00,64.32,0
35.00,61.83,0
38.00,59.10,0
41.00,56.33,0
47.00,53.74,0
48.00,51.50,0
45.00,49.66,0
48.00,48.15,0
67.00,47.13,0
105.00,47.17,0
55.00,48.38,0
86.00,50.18,0
69.00,52.34,0
70.00,54.68,0
57.00,56.85,0
82.00,58.82,0
51.00,60.62,0
67.00,62.05,0
39.00,62.95,0
80.00,63.41,0
72.00,63.90,0
74.00,64.62,0
59.00,65.34,0
86.00,66.03,0
59.00,66.76,0
47.00,67.18,0
61.00,67.05,0
51.00,66.56,0
96.00,66.12,0
53.00,66.04,0
62.00,65.99,0
36.00,65.52,0
44.00,64.48,0
52.00,63.01,0
61.00,61.54,0
52.00,60.26,0
74.00,59.27,0
51.00,58.63,0
82.00,58.33,0
67.00,58.51,0
66.00,59.04,0
59.00,59.62,0
81.00,60.29,0
94.00,61.40,0
70.00,63.01,0
61.00,64.59,0
83.00,65.93,0
69.00,67.22,0
103.00,68.65,0
75.00,70.36,0
77.00,72.05,0
38.00,73.17,0
121.00,73.86,0
87.00,74.98,0
76.00,76.41,0
52.00,77.37,0
65.00,77.57,0
55.00,77.12,0
38.00,75.99,0
58.00,74.19,0
35.00,71.92,0
35.00,69.17,0
37.00,65.96,0
37.00,62.54,0
53.00,59.24,0
44.00,56.31,0
62.00,53.90,0
65.00,52.22,0
82.00,51.47,0
66.00,51.65,0
94.00,52.63,0
52.00,54.15,0
63.00,55.68,0
127.00,57.52,0
50.00,60.06,0
78.00,62.52,0
70.00,64.61,0
65.00,66.39,0
60.00,67.71,0
147.00,69.21,0
54.00,71.43,0
66.00,73.41,0
84.00,74.73,0
42.00,75.53,0
48.00,75.43,0
93.00,74.78,0
53.00,74.18,0
38.00,73.23,0
73.00,71.77,0
42.00,70.15,0
35.00,68.19,0
34.00,65.65,0
53.00,62.85,0
39.00,60.12,0
38.00,57.45,0
57.00,54.95,0
38.00,52.80,0
50.00,50.94,0
92.00,49.74,0
71.00,49.71,0
90.00,50.70,0
73.00,52.46,0
89.00,54.75,0
64.00,57.28,0
123.00,60.11,0
45.00,63.22,0
83.00,65.94,0
73.00,68.18,0
68.00,70.08,0
93.00,71.70,0
130.00,73.73,0
57.00,76.22,0
52.00,78.03,0
74.00,78.78,0
61.00,78.90,0
59.00,78.49,0
77.00,77.70,0
38.00,76.60,0
36.00,74.80,0
79.00,72.52,0
45.00,70.36,0
35.00,68.08,0
65.00,65.59,0
37.00,63.19,0
54.00,60.88,0
105.00,59.17,0
84.00,58.79,0
43.00,59.17,0
49.00,59.31,0
61.00,59.13,0
77.00,59.09,0
60.00,59.37,0
66.00,59.80,0
70.00,60.32,0
70.00,60.99,0
96.00,62.02,0
72.00,63.51,0
84.00,65.22,0
64.00,66.87,0
64.00,68.20,0
51.00,68.97,0
70.00,69.22,0
75.00,69.31,0
77.00,69.55,0
41.00,69.67,0
36.00,69.06,0
90.00,68.00,0
44.00,67.09,0
52.00,66.08,0
40.00,64.69,0
46.00,62.96,0
39.00,60.99,0
35.00,58.79,0
70.00,56.65,0
39.00,54.93,0
74.00,53.63,0
131.00,53.50,0
68.00,54.96,0
67.00,57.01,0
65.00,58.89,0
86.00,60.71,0
62.00,62.56,0
69.00,64.20,0
108.00,65.87,0
67.00,67.87,0
56.00,69.61,0
87.00,70.83,0
75.00,71.94,0
83.00,73.04,0
65.00,74.00,0
60.00,74.53,0
117.00,74.97,0
67.00,75.81,0
59.00,76.50,0
79.00,76.67,0
81.00,76.73,0
36.00,76.53,0
51.00,75.53,0
47.00,73.80,0
79.00,71.90,0
35.00,70.07,0
57.00,68.06,0
62.00,66.03,0
35.00,64.09,0
63.00,62.11,0
35.00,60.18,0
67.00,58.37,0
95.00,57.24,0
47.00,57.00,0
57.00,56.97,0
105.00,57.26,0
40.00,58.12,0
75.00,59.01,0
74.00,59.91,0
80.00,61.11,0
99.00,62.76,0
44.00,64.60,0
80.00,66.07,0
80.00,67.35,0
68.00,68.64,0
75.00,69.76,0
76.00,70.73,0
89.00,71.75,0
54.00,72.69,0
59.00,73.12,0
58.00,72.93,0
61.00,72.33,0
36.00,71.27,0
68.00,69.77,0
83.00,68.44,0
40.00,67.42,0
33.00,66.05,0
56.00,64.16,0
36.00,62.10,0
41.00,59.87,0
80.00,57.83,0
63.00,56.56,0
39.00,55.74,0
128.00,55.50,0
90.00,56.68,0
66.00,58.79,0
72.00,60.88,0
76.00,62.82,0
69.00,64.64,0
131.00,66.74,0
69.00,69.43,0
55.00,71.86,0
82.00,73.49,0
77.00,74.74,0
46.00,75.56,0
114.00,76.02,0
74.00,76.73,0
50.00,77.31,0
70.00,77.22,0
49.00,76.57,0
64.00,75.46,0
45.00,73.97,0
62.00,72.17,0
42.00,70.17,0
32.00,67.80,0
41.00,64.97,0
40.00,61.96,0
103.00,59.46,0
57.00,58.12,0
62.00,57.48,0
43.00,56.95,0
63.00,56.41,0
54.00,55.97,0
84.00,55.90,0
66.00,56.37,0
75.00,57.28,0
64.00,58.38,0
69.00,59.54,0
64.00,60.64,0
80.00,61.77,0
107.00,63.32,0
70.00,65.41,0
111.00,67.79,0
72.00,70.37,0
67.00,72.66,0
76.00,74.33,0
142.00,76.13,0
70.00,78.53,0
52.00,80.53,0
57.00,81.29,0
55.00,81.01,0
56.00,79.95,0
44.00,78.26,0
36.00,75.86,0
42.00,72.83,0
56.00,69.59,0
42.00,66.44,0
53.00,63.44,0
69.00,60.86,0
71.00,59.06,0
64.00,58.01,0
80.00,57.59,0
55.00,57.68,0
71.00,57.99,0
62.00,58.46,0
76.00,59.12,0
52.00,59.86,0
85.00,60.64,0
66.00,61.60,0
100.00,62.92,0
37.00,64.34,0
47.00,65.12,0
75.00,65.26,0
96.00,65.63,0
68.00,66.51,0
68.00,67.46,0
60.00,68.13,0
53.00,68.38,0
59.00,68.16,0
44.00,67.52,0
42.00,66.37,0
40.00,64.69,0
46.00,62.66,0
52.00,60.57,0
38.00,58.53,0
75.00,56.72,0
59.00,55.51,0
44.00,54.72,0
99.00,54.34,0
55.00,54.71,0
36.00,55.21,0
56.00,55.28,0
64.00,55.25,0
78.00,55.57,0
102.00,56.64,0
41.00,58.25,0
88.00,59.79,0
35.00,61.07,0
60.00,61.83,0
89.00,62.37,0
97.00,63.49,0
69.00,65.16,0
66.00,66.75,0
72.00,68.02,0
106.00,69.34,0
92.00,71.16,0
42.00,72.93,0
63.00,73.84,0
35.00,73.77,0
59.00,72.86,0
40.00,71.35,0
50.00,69.41,0
46.00,67.18,0
44.00,64.80,0
53.00,62.40,0
35.00,60.04,0
59.00,57.77,0
48.00,55.79,0
124.00,54.75,0
60.00,55.08,0
56.00,55.99,0
54.00,56.70,0
75.00,57.34,0
80.00,58.27,0
62.00,59.51,0
133.00,61.27,0
76.00,63.91,0
75.00,66.78,0
66.00,69.17,0
81.00,71.08,0
50.00,72.47,0
70.00,73.22,0
48.00,73.32,0
63.00,72.87,0
78.00,72.21,0
59.00,71.61,0
73.00,71.01,0
91.00,70.66,0
51.00,70.58,0
44.00,70.14,0
41.00,68.98,0
43.00,67.22,0
38.00,65.01,0
77.00,62.80,0
63.00,61.16,0
69.00,60.13,0
106.00,59.91,0
59.00,60.56,0
44.00,61.28,0
63.00,61.53,0
59.00,61.58,0
79.00,61.73,0
88.00,62.32,0
69.00,63.40,0
97.00,64.79,0
63.00,66.39,0
79.00,67.91,0
70.00,69.23,0
72.00,70.35,0
65.00,71.18,0
174.00,72.56,0
71.00,75.21,0
67.00,77.90,0
73.00,79.67,0
97.00,80.94,0
70.00,82.02,0
43.00,82.43,0
45.00,81.68,0
36.00,79.81,0
63.00,77.22,0
49.00,74.45,0
58.00,71.69,0
76.00,69.21,0
36.00,67.07,0
60.00,64.95,0
84.00,63.17,0
74.00,62.24,0
63.00,61.91,0
61.00,61.78,0
86.00,61.87,0
58.00,62.31,0
73.00,62.85,0
76.00,63.50,0
146.00,64.97,0
71.00,67.57,0
126.00,70.73,0
71.00,74.06,0
41.00,76.68,0
88.00,78.15,0
130.00,79.54,0
84.00,81.54,0
60.00,83.32,0
61.00,84.10,0
41.00,83.76,0
52.00,82.34,0
63.00,80.27,0
64.00,78.03,0
38.00,75.65,0
65.00,73.04,0
37.00,70.32,0
37.00,67.39,0
66.00,64.40,0
36.00,61.69,0
63.00,59.25,0
76.00,57.41,0
58.00,56.37,0
76.00,55.94,0
69.00,56.07,0
86.00,56.80,0
69.00,58.03,0
61.00,59.41,0
57.00,60.54,0
115.00,61.80,0
69.00,63.66,0
49.00,65.46,0
62.00,66.56,0
69.00,67.19,0
85.00,67.81,0
126.00,69.05,0
60.00,70.99,0
57.00,72.62,0
101.00,73.73,0
46.00,74.66,0
54.00,74.93,0
82.00,74.61,0
39.00,74.02,0
40.00,72.78,0
63.00,70.94,0
49.00,68.98,0
38.00,66.85,0
65.00,64.59,0
58.00,62.61,0
41.00,60.87,0
84.00,59.38,0
69.00,58.59,0
105.00,58.75,0
73.00,59.84,0
97.00,61.57,0
56.00,63.51,0
114.00,65.56,0
64.00,67.83,0
78.00,69.96,0
75.00,71.70,0
73.00,73.14,0
70.00,74.23,0
124.00,75.38,0
95.00,77.17,0
47.00,78.96,0
66.00,79.83,0
58.00,79.81,0
70.00,79.24,0
130.00,78.90,0
41.00,79.10,0
71.00,78.97,0
76.00,78.40,0
44.00,77.59,0
39.00,76.08,0
54.00,73.88,0
44.00,71.34,0
57.00,68.69,0
57.00,66.19,0
87.00,64.23,0
50.00,62.94,0
77.00,62.06,0
68.00,61.59,0
75.00,61.58,0
44.00,61.70,0
57.00,61.57,0
90.00,61.48,0
120.00,62.35,0
72.00,64.27,0
40.00,66.11,0
42.00,66.93,0
68.00,66.93,0
76.00,66.81,0
94.00,67.11,0
65.00,67.85,0
61.00,68.52,0
44.00,68.67,0
92.00,68.51,0
44.00,68.36,0
65.00,68.02,0
47.00,67.34,0
38.00,66.22,0
45.00,64.57,0
40.00,62.58,0
42.00,60.37,0
50.00,58.14,0
57.00,56.16,0
44.00,54.52,0
74.00,53.29,0
59.00,52.66,0
84.00,52.73,0
121.00,53.92,0
68.00,56.30,0
77.00,59.01,0
80.00,61.61,0
106.00,64.38,0
75.00,67.39,0
200.00,71.23,0
65.00,76.27,0
49.00,80.71,0
80.00,83.43,0
37.00,84.78,0
80.00,84.92,0
96.00,84.65,0
53.00,84.33,0
78.00,83.60,0
65.00,82.55,0
36.00,81.04,0
59.00,78.83,0
51.00,76.23,0
36.00,73.36,0
41.00,70.11,0
43.00,66.65,0
38.00,63.17,0
43.00,59.79,0
72.00,56.86,0
47.00,54.68,0
52.00,53.02,0
57.00,51.73,0
64.00,50.94,0
126.00,51.23,0
70.00,52.94,0
73.00,55.29,0
82.00,57.71,0
84.00,60.29,0
88.00,63.06,0
60.00,65.72,0
68.00,67.85,0
76.00,69.48,0
60.00,70.73,0
100.00,71.79,0
62.00,72.89,0
77.00,73.80,0
54.00,74.28,0
50.00,74.13,0
66.00,73.39,0
47.00,72.29,0
56.00,70.85,0
34.00,69.01,0
96.00,67.15,0
39.00,65.71,0
49.00,64.29,0
53.00,62.65,0
34.00,60.89,0
42.00,58.90,0
58.00,56.89,0
54.00,55.23,0
47.00,53.90,0
68.00,52.90,0
55.00,52.36,0
131.00,52.78,0
112.00,54.88,0
77.00,58.23,0
64.00,61.58,0
74.00,64.39,0
76.00,66.77,0
67.00,68.80,0
82.00,70.48,0
88.00,72.06,0
38.00,73.33,0
74.00,73.83,0
46.00,73.69,0
48.00,72.92,0
127.00,72.14,0
70.00,72.24,0
37.00,72.44,0
68.00,71.95,0
35.00,70.92,0
53.00,69.36,0
94.00,67.83,0
34.00,66.69,0
45.00,65.33,0
77.00,63.80,0
39.00,62.50,0
35.00,61.01,0
73.00,59.37,0
84.00,58.35,0
62.00,58.14,0
112.00,58.71,0
60.00,60.07,0
74.00,61.65,0
69.00,63.10,0
81.00,64.53,0
69.00,65.97,0
131.00,67.77,0
77.00,70.28,0
78.00,72.86,0
71.00,74.92,0
66.00,76.38,0
99.00,77.46,0
94.00,78.67,0
90.00,80.11,0
46.00,81.20,0
71.00,81.43,0
43.00,80.82,0
40.00,79.31,0
57.00,77.03,0
39.00,74.34,0
38.00,71.27,0
72.00,68.13,0
37.00,65.30,0
35.00,62.48,0
75.00,59.79,0
127.00,58.35,0
56.00,58.50,0
120.00,59.64,0
80.00,61.64,0
72.00,64.03,0
75.00,66.20,0
73.00,68.10,0
40.00,69.45,0
87.00,70.16,0
71.00,70.73,0
70.00,71.30,0
68.00,71.68,0
74.00,71.91,0
104.00,72.36,0
59.00,73.12,0
38.00,73.43,0
80.00,73.02,0
58.00,72.40,0
67.00,71.72,0
43.00,70.77,0
49.00,69.38,0
63.00,67.72,0
46.00,66.04,0
45.00,64.23,0
40.00,62.19,0
53.00,60.06,0
43.00,58.01,0
69.00,56.26,0
50.00,54.97,0
44.00,53.94,0
69.00,53.09,0
40.00,52.51,0
66.00,52.12,0
54.00,51.97,0
70.00,52.15,0
61.00,52.67,0
86.00,53.63,0
86.00,55.22,0
62.00,57.24,0
91.00,59.38,0
87.00,61.78,0
74.00,64.36,0
67.00,66.69,0
87.00,68.69,0
58.00,70.41,0
78.00,71.72,0
63.00,72.63,0
43.00,72.96,0
57.00,72.51,0
62.00,71.58,0
59.00,70.49,0
45.00,69.19,0
58.00,67.62,0
39.00,65.85,0
91.00,64.20,0
38.00,62.97,0
35.00,61.62,0
39.00,59.77,0
40.00,57.66,0
65.00,55.66,0
60.00,54.21,0
98.00,53.65,0
57.00,54.04,0
76.00,54.92,0
68.00,56.07,0
68.00,57.40,0
81.00,58.86,0
60.00,60.43,0
87.00,62.01,0
75.00,63.71,0
50.00,65.26,0
87.00,66.46,0
126.00,68.06,0
70.00,70.40,0
55.00,72.51,0
72.00,73.80,0
71.00,74.57,0
52.00,74.89,0
96.00,74.90,0
60.00,74.94,0
38.00,74.59,0
75.00,73.61,0
37.00,72.29,0
35.00,70.41,0
49.00,67.94,0
37.00,65.22,0
39.00,62.34,0
65.00,59.58,0
61.00,57.41,0
55.00,55.87,0
87.00,54.98,0
55.00,54.83,0
71.00,55.12,0
100.00,55.97,0
81.00,57.68,0
67.00,59.79,0
68.00,61.75,0
78.00,63.52,0
89.00,65.36,0
91.00,67.45,0
65.00,69.60,0
67.00,71.31,0
65.00,72.43,0
69.00,73.09,0
64.00,73.38,0
70.00,73.39,0
62.00,73.16,0
50.00,72.58,0
58.00,71.57,0
54.00,70.25,0
56.00,68.75,0
88.00,67.45,0
40.00,66.47,0
34.00,65.20,0
79.00,63.63,0
56.00,62.37,0
47.00,61.33,0
40.00,60.07,0
40.00,58.51,0
56.00,56.84,0
115.00,55.90,0
71.00,56.29,0
75.00,57.48,0
76.00,58.93,0
76.00,60.58,0
72.00,62.32,0
145.00,64.60,0
76.00,67.80,0
60.00,70.94,0
47.00,72.99,0
71.00,74.00,0
54.00,74.33,0
100.00,74.43,0
69.00,74.71,0
77.00,75.06,0
69.00,75.26,0
57.00,75.16,0
58.00,74.60,0
51.00,73.56,0
63.00,72.18,0
44.00,70.57,0
44.00,68.63,0
39.00,66.30,0
34.00,63.62,0
74.00,60.97,0
37.00,58.76,0
39.00,56.68,0
100.00,55.00,0
62.00,54.39,0
64.00,54.52,0
69.00,54.95,0
55.00,55.59,0
56.00,56.17,0
71.00,56.73,0
50.00,57.33,0
77.00,57.93,0
78.00,58.81,0
81.00,60.13,0
80.00,61.79,0
110.00,63.90,0
47.00,66.27,0
72.00,68.15,0
48.00,69.32,0
77.00,69.93,0
65.00,70.30,0
64.00,70.49,0
66.00,70.44,0
42.00,70.04,0
57.00,69.13,0
52.00,67.88,0
50.00,66.43,0
41.00,64.72,0
51.00,62.79,0
36.00,60.73,0
39.00,58.50,0
60.00,56.31,0
36.00,54.39,0
50.00,52.65,0
57.00,51.17,0
59.00,50.20,0
52.00,49.69,0
37.00,49.30,0
84.00,49.12,0
72.00,49.64,0
83.00,50.98,0
68.00,52.84,0
99.00,55.13,0
60.00,57.74,0
91.00,60.38,0
78.00,63.03,0
60.00,65.50,0
77.00,67.48,0
107.00,69.40,0
79.00,71.63,0
57.00,73.61,0
76.00,74.91,0
56.00,75.61,0
53.00,75.63,0
64.00,75.02,0
44.00,73.93,0
41.00,72.26,0
79.00,70.30,0
37.00,68.43,0
35.00,66.31,0
38.00,63.71,0
46.00,60.92,0
80.00,58.52,0
46.00,56.84,0
54.00,55.56,0
87.00,54.73,0
66.00,54.73,0
53.00,55.16,0
70.00,55.66,0
82.00,56.49,0
64.00,57.71,0
84.00,59.16,0
68.00,60.79,0
94.00,62.62,0
73.00,64.65,0
73.00,66.64,0
70.00,68.34,0
79.00,69.79,0
62.00,70.98,0
62.00,71.73,0
40.00,71.79,0
36.00,70.94,0
58.00,69.35,0
37.00,67.41,0
66.00,65.34,0
55.00,63.46,0
40.00,61.72,0
35.00,59.76,0
50.00,57.62,0
36.00,55.50,0
40.00,53.39,0
43.00,51.34,0
48.00,49.52,0
66.00,48.19,0
64.00,47.61,0
64.00,47.71,0
73.00,48.41,0
58.00,49.56,0
118.00,51.32,0
73.00,54.01,0
87.00,57.16,0
39.00,60.03,0
78.00,62.23,0
64.00,63.99,0
71.00,65.50,0
68.00,66.75,0
74.00,67.81,0
65.00,68.70,0
68.00,69.35,0
81.00,69.89,0
52.00,70.31,0
35.00,70.13,0
55.00,69.14,0
37.00,67.61,0
49.00,65.69,0
58.00,63.65,0
39.00,61.69,0
40.00,59.61,0
79.00,57.70,0
36.00,56.27,0
36.00,54.88,0
68.00,53.46,0
87.00,52.76,0
57.00,52.96,0
70.00,53.60,0
69.00,54.52,0
52.00,55.56,0
72.00,56.54,0
79.00,57.70,0
104.00,59.42,0
82.00,61.82,0
75.00,64.43,0
76.00,66.83,0
90.00,69.07,0
91.00,71.35,0
127.00,74.03,0
80.00,77.12,0
56.00,79.75,0
79.00,81.36,0
52.00,82.08,0
49.00,81.83,0
63.00,80.70,0
48.00,79.01,0
47.00,76.81,0
51.00,74.20,0
42.00,71.33,0
48.00,68.31,0
62.00,65.40,0
42.00,62.81,0
37.00,60.27,0
80.00,57.96,0
64.00,56.46,0
76.00,55.80,0
62.00,55.75,0
89.00,56.26,0
61.00,57.28,0
95.00,58.69,0
66.00,60.45,0
127.00,62.72,0
76.00,65.65,0
68.00,68.57,0
59.00,70.77,0
90.00,72.38,0
55.00,73.64,0
215.00,75.58,0
75.00,79.19,0
57.00,82.80,0
63.00,84.90,0
48.00,85.60,0
51.00,85.02,0
51.00,83.43,0
35.00,81.02,0
37.00,77.82,0
59.00,74.20,0
37.00,70.59,0
36.00,66.90,0
54.00,63.23,0
64.00,60.07,0
57.00,57.66,0
53.00,55.83,0
55.00,54.40,0
62.00,53.38,0
70.00,52.89,0
76.00,53.07,0
67.00,53.85,0
54.00,54.84,0
78.00,55.87,0
77.00,57.18,0
76.00,58.82,0
84.00,60.72,0
50.00,62.57,0
112.00,64.36,0
81.00,66.53,0
67.00,68.79,0
72.00,70.61,0
41.00,71.74,0
75.00,72.12,0
69.00,72.18,0
56.00,72.06,0
37.00,71.38,0
86.00,70.30,0
40.00,69.21,0
35.00,67.76,0
60.00,65.82,0
35.00,63.74,0
41.00,61.46,0
56.00,59.13,0
53.00,57.11,0
65.00,55.56,0
83.00,54.74,0
83.00,54.91,0
54.00,55.73,0
80.00,56.75,0
60.00,57.91,0
84.00,59.23,0
51.00,60.58,0
86.00,61.86,0
72.00,63.22,0
64.00,64.59,0
68.00,65.72,0
86.00,66.76,0
71.00,67.92,0
72.00,69.04,0
53.00,69.81,0
61.00,70.08,0
54.00,69.84,0
93.00,69.52,0
46.00,69.35,0
40.00,68.78,0
79.00,67.77,0
63.00,66.91,0
35.00,66.04,0
59.00,64.78,0
51.00,63.36,0
62.00,62.04,0
39.00,60.75,0
44.00,59.28,0
92.00,58.02,0
49.00,57.43,0
89.00,57.39,0
67.00,57.89,0
77.00,58.84,0
73.00,60.05,0
76.00,61.45,0
45.00,62.72,0
75.00,63.60,0
84.00,64.47,0
83.00,65.70,0
76.00,67.15,0
59.00,68.46,0
56.00,69.25,0
74.00,69.59,0
74.00,69.85,0
68.00,70.13,0
70.00,70.34,0
53.00,70.33,0
49.00,69.87,0
60.00,68.94,0
64.00,67.89,0
45.00,66.77,0
80.00,65.65,0
37.00,64.63,0
66.00,63.53,0
80.00,62.66,0
83.00,62.48,0
58.00,62.80,0
94.00,63.38,0
58.00,64.24,0
46.00,64.88,0
71.00,65.05,0
62.00,65.10,0
66.00,65.14,0
139.00,65.77,0
58.00,67.40,0
72.00,69.11,0
70.00,70.37,0
93.00,71.52,0
72.00,72.75,0
92.00,73.99,0
67.00,75.16,0
75.00,76.05,0
62.00,76.53,0
45.00,76.37,0
54.00,75.42,0
103.00,74.33,0
43.00,73.55,0
51.00,72.51,0
74.00,71.13,0
38.00,69.69,0
40.00,67.86,0
90.00,65.94,0
37.00,64.43,0
34.00,62.78,0
110.00,61.24,0
36.00,60.43,0
51.00,59.75,0
73.00,59.00,0
41.00,58.44,0
70.00,57.95,0
114.00,58.10,0
65.00,59.30,0
123.00,61.30,0
71.00,63.94,0
97.00,66.82,0
62.00,69.51,0
89.00,71.82,0
97.00,73.98,0
68.00,76.08,0
73.00,77.69,0
72.00,78.71,0
82.00,79.36,0
120.00,80.16,0
67.00,81.34,0
64.00,82.17,0
76.00,82.33,0
36.00,81.82,0
57.00,80.43,0
49.00,78.35,0
46.00,75.85,0
45.00,72.98,0
54.00,69.96,0
44.00,66.98,0
35.00,63.96,0
38.00,60.82,0
68.00,57.90,0
61.00,55.71,0
47.00,54.17,0
64.00,53.01,0
60.00,52.32,0
60.00,52.08,0
114.00,52.61,0
62.00,54.16,0
74.00,56.14,0
70.00,58.10,0
71.00,60.02,0
59.00,61.73,0
132.00,63.65,0
72.00,66.26,0
74.00,68.95,0
70.00,71.11,0
51.00,72.59,0
44.00,73.10,0
113.00,73.15,0
99.00,73.82,0
36.00,74.76,0
70.00,75.00,0
41.00,74.50,0
42.00,73.26,0
34.00,71.22,0
44.00,68.58,0
49.00,65.72,0
40.00,62.89,0
50.00,60.13,0
40.00,57.54,0
44.00,55.10,0
59.00,52.97,0
60.00,51.44,0
42.00,50.40,0
52.00,49.56,0
83.00,49.18,0
91.00,49.82,0
84.00,51.54,0
88.00,54.01,0
91.00,57.00,0
79.00,60.26,0
61.00,63.32,0
65.00,65.74,0
106.00,67.87,0
56.00,69.99,0
66.00,71.63,0
73.00,72.68,0
100.00,73.65,0
76.00,74.84,0
98.00,76.16,0
54.00,77.34,0
39.00,77.70,0
69.00,77.07,0
36.00,75.80,0
34.00,73.78,0
65.00,71.20,0
36.00,68.53,0
44.00,65.74,0
50.00,62.87,0
62.00,60.32,0
48.00,58.22,0
51.00,56.43,0
39.00,54.76,0
50.00,53.17,0
76.00,51.97,0
78.00,51.67,0
88.00,52.37,0
76.00,53.89,0
88.00,55.97,0
76.00,58.42,0
100.00,61.15,0
76.00,64.11,0
93.00,67.10,0
75.00,69.93,0
73.00,72.38,0
60.00,74.18,0
75.00,75.30,0
48.00,75.80,0
69.00,75.66,0
74.00,75.20,0
48.00,74.55,0
82.00,73.68,0
64.00,72.86,0
39.00,71.89,0
46.00,70.33,0
48.00,68.30,0
61.00,66.18,0
75.00,64.40,0
75.00,63.29,0
36.00,62.51,0
53.00,61.49,0
102.00,60.71,0
59.00,60.72,0
49.00,60.94,0
69.00,60.96,0
64.00,61.04,0
70.00,61.29,0
82.00,61.81,0
64.00,62.63,0
74.00,63.53,0
86.00,64.58,0
120.00,66.27,0
57.00,68.54,0
111.00,70.84,0
103.00,73.42,0
57.00,76.04,0
69.00,77.88,0
69.00,78.89,0
56.00,79.22,0
95.00,79.14,0
66.00,79.04,0
59.00,78.71,0
120.00,78.37,0
38.00,78.31,0
60.00,77.79,0
72.00,76.71,0
37.00,75.35,0
40.00,73.36,0
63.00,70.91,0
65.00,68.60,0
48.00,66.58,0
70.00,64.75,0
78.00,63.42,0
72.00,62.77,0
124.00,63.06,0
59.00,64.34,0
88.00,65.91,0
67.00,67.42,0
74.00,68.79,0
56.00,69.79,0
132.00,70.87,0
79.00,72.65,0
88.00,74.72,0
64.00,76.47,0
73.00,77.65,0
82.00,78.40,0
87.00,79.05,0
66.00,79.60,0
58.00,79.67,0
67.00,79.15,0
49.00,78.13,0
64.00,76.66,0
138.00,75.61,0
47.00,75.52,0
36.00,75.17,0
106.00,74.28,0
43.00,73.55,0
35.00,72.45,0
72.00,70.74,0
37.00,68.90,0
61.00,66.93,0
114.00,65.47,0
69.00,65.16,0
65.00,65.39,0
81.00,65.72,0
67.00,66.22,0
83.00,66.88,0
129.00,68.17,0
80.00,70.37,0
73.00,72.70,0
85.00,74.64,0
78.00,76.30,0
76.00,77.66,0
59.00,78.52,0
86.00,78.88,0
46.00,78.84,0
70.00,78.26,0
83.00,77.45,0
73.00,76.83,0
52.00,76.15,0
59.00,75.06,0
45.00,73.52,0
36.00,71.46,0
49.00,68.90,0
42.00,66.14,0
42.00,63.29,0
49.00,60.49,0
46.00,57.89,0
39.00,55.50,0
59.00,53.35,0
41.00,51.60,0
71.00,50.31,0
70.00,49.76,0
56.00,49.91,0
77.00,50.51,0
45.00,51.40,0
72.00,52.36,0
82.00,53.60,0
81.00,55.39,0
68.00,57.49,0
84.00,59.68,0
69.00,61.89,0
66.00,63.90,0
67.00,65.54,0
124.00,67.29,0
52.00,69.42,0
62.00,71.14,0
56.00,72.02,0
65.00,72.29,0
52.00,72.07,0
55.00,71.36,0
48.00,70.21,0
35.00,68.55,0
92.00,66.76,0
38.00,65.32,0
37.00,63.76,0
60.00,61.89,0
50.00,60.13,0
79.00,58.78,0
91.00,58.28,0
83.00,58.82,0
45.00,59.79,0
79.00,60.63,0
63.00,61.46,0
88.00,62.49,0
91.00,63.92,0
60.00,65.63,0
75.00,67.12,0
58.00,68.25,0
85.00,69.14,0
48.00,69.80,0
120.00,70.49,0
74.00,71.67,0
99.00,73.23,0
81.00,74.92,0
63.00,76.40,0
64.00,77.23,0
132.00,77.99,0
64.00,79.23,0
47.00,80.09,0
74.00,80.02,0
53.00,79.37,0
45.00,78.11,0
145.00,76.95,0
40.00,76.63,0
36.00,76.00,0
65.00,74.47,0
59.00,72.71,0
54.00,70.93,0
61.00,69.11,0
64.00,67.43,0
60.00,65.98,0
105.00,65.09,0
65.00,65.03,0
70.00,65.36,0
70.00,65.71,0
75.00,66.17,0
67.00,66.70,0
140.00,67.78,0
80.00,69.91,0
75.00,72.31,0
67.00,74.21,0
76.00,75.54,0
72.00,76.47,0
55.00,76.92,0
55.00,76.67,0
49.00,75.71,0
63.00,74.27,0
35.00,72.45,0
50.00,70.17,0
37.00,67.55,0
45.00,64.71,0
121.00,62.47,0
37.00,61.38,0
40.00,60.47,0
102.00,59.59,0
46.00,59.35,0
44.00,59.17,0
64.00,58.71,0
45.00,58.22,0
60.00,57.69,0
67.00,57.29,0
51.00,57.13,0
83.00,57.19,0
80.00,57.81,0
72.00,58.96,0
58.00,60.23,0
86.00,61.46,0
86.00,62.98,0
49.00,64.59,0
65.00,65.74,0
67.00,66.47,0
65.00,67.01,0
56.00,67.29,0
69.00,67.32,0
82.00,67.39,0
53.00,67.58,0
37.00,67.35,0
54.00,66.45,0
36.00,65.06,0
48.00,63.29,0
164.00,62.29,0
42.00,62.93,0
50.00,63.80,0
78.00,64.17,0
51.00,64.46,0
39.00,64.34,0
61.00,63.70,0
46.00,62.82,0
69.00,61.91,0
122.00,61.70,0
103.00,62.94,0
82.00,65.19,0
76.00,67.58,0
90.00,69.84,0
62.00,71.88,0
72.00,73.41,0
70.00,74.43,0
84.00,75.19,0
73.00,75.85,0
78.00,76.39,0
40.00,76.49,0
124.00,76.37,0
68.00,76.70,0
34.00,76.84,0
71.00,76.12,0
71.00,75.10,0
39.00,73.92,0
66.00,72.36,0
37.00,70.50,0
44.00,68.28,0
86.00,66.08,0
41.00,64.34,0
64.00,62.81,0
72.00,61.57,0
47.00,60.69,0
97.00,60.19,0
103.00,60.66,0
44.00,61.89,0
87.00,63.08,0
68.00,64.26,0
92.00,65.64,0
88.00,67.33,0
90.00,69.35,0
81.00,71.47,0
61.00,73.31,0
53.00,74.41,0
60.00,74.66,0
79.00,74.45,0
91.00,74.40,0
58.00,74.53,0
52.00,74.30,0
87.00,73.73,0
41.00,73.07,0
73.00,72.14,0
40.00,70.93,0
49.00,69.33,0
59.00,67.46,0
44.00,65.55,0
36.00,63.44,0
108.00,61.59,0
52.00,60.66,0
42.00,60.06,0
55.00,59.19,0
53.00,58.26,0
40.00,57.29,0
108.00,56.66,0
77.00,57.05,0
111.00,58.54,0
73.00,60.82,0
89.00,63.39,0
64.00,65.86,0
156.00,68.64,0
84.00,72.27,0
67.00,75.87,0
81.00,78.58,0
82.00,80.60,0
75.00,82.13,0
85.00,83.19,0
51.00,83.69,0
74.00,83.46,0
40.00,82.51,0
72.00,80.93,0
66.00,79.12,0
35.00,77.10,0
73.00,74.75,0
37.00,72.30,0
38.00,69.56,0
59.00,66.61,0
46.00,63.83,0
36.00,61.15,0
50.00,58.48,0
47.00,56.04,0
48.00,53.91,0
74.00,52.31,0
36.00,51.28,0
53.00,50.45,0
80.00,49.98,0
65.00,50.27,0
53.00,51.00,0
68.00,51.84,0
88.00,53.06,0
88.00,54.98,0
112.00,57.72,0
46.00,60.86,0
83.00,63.61,0
73.00,65.95,0
68.00,68.01,0
45.00,69.41,0
81.00,70.16,0
60.00,70.62,0
51.00,70.71,0
61.00,70.29,0
86.00,69.78,0
72.00,69.62,0
48.00,69.48,0
37.00,68.78,0
36.00,67.28,0
52.00,65.25,0
45.00,63.08,0
38.00,60.84,0
105.00,58.99,0
42.00,58.04,0
63.00,57.47,0
110.00,57.44,0
45.00,58.23,0
104.00,59.42,0
74.00,61.06,0
65.00,62.91,0
44.00,64.28,0
120.00,65.45,0
87.00,67.25,0
89.00,69.55,0
74.00,71.80,0
77.00,73.74,0
74.00,75.26,0
149.00,77.03,0
40.00,79.23,0
68.00,80.73,0
68.00,81.23,0
73.00,81.20,0
63.00,80.79,0
67.00,80.00,0
49.00,78.80,0
62.00,77.15,0
47.00,75.17,0
41.00,72.81,0
37.00,69.97,0
35.00,66.75,0
43.00,63.33,0
38.00,59.95,0
97.00,57.18,0
76.00,55.73,0
78.00,55.48,0
73.00,55.99,0
79.00,57.03,0
49.00,58.24,0
129.00,59.77,0
64.00,62.03,0
110.00,64.73,0
68.00,67.54,0
99.00,70.30,0
65.00,72.81,0
113.00,75.14,0
67.00,77.38,0
67.00,79.12,0
35.00,79.78,0
92.00,79.54,0
83.00,79.23,0
58.00,78.98,0
86.00,78.54,0
57.00,77.98,0
58.00,77.11,0
52.00,75.76,0
47.00,73.96,0
58.00,71.83,0
45.00,69.56,0
36.00,67.06,0
36.00,64.20,0
56.00,61.26,0
42.00,58.58,0
60.00,56.25,0
101.00,54.79,0
62.00,54.55,0
49.00,54.82,0
80.00,55.20,0
81.00,56.06,0
73.00,57.47,0
117.00,59.48,0
86.00,62.29,0
67.00,65.31,0
65.00,67.80,0
86.00,69.79,0
80.00,71.62,0
137.00,73.80,0
59.00,76.44,0
61.00,78.53,0
86.00,79.72,0
60.00,80.42,0
92.00,80.75,0
44.00,80.72,0
40.00,79.85,0
40.00,77.90,0
40.00,75.16,0
63.00,72.11,0
48.00,69.17,0
45.00,66.34,0
42.00,63.49,0
35.00,60.58,0
39.00,57.61,0
45.00,54.76,0
87.00,52.56,0
69.00,51.54,0
81.00,51.58,0
85.00,52.51,0
56.00,54.03,0
56.00,55.48,0
52.00,56.57,0
54.00,57.29,0
102.00,58.12,0
84.00,59.65,0
68.00,61.63,0
85.00,63.63,0
51.00,65.43,0
104.00,67.04,0
88.00,68.92,0
77.00,71.02,0
99.00,73.09,0
86.00,75.22,0
45.00,76.97,0
112.00,78.14,0
86.00,79.38,0
44.00,80.40,0
37.00,80.26,0
60.00,78.97,0
35.00,76.98,0
48.00,74.37,0
73.00,71.63,0
35.00,69.06,0
55.00,66.47,0
45.00,63.87,0
68.00,61.54,0
41.00,59.57,0
63.00,57.87,0
68.00,56.60,0
62.00,55.92,0
141.00,56.30,0
50.00,57.99,0
75.00,59.97,0
91.00,61.90,0
108.00,64.33,0
74.00,67.20,0
140.00,70.43,0
96.00,74.28,0
81.00,78.17,0
80.00,81.33,0
69.00,83.60,0
87.00,85.09,0
53.00,85.86,0
51.00,85.62,0
61.00,84.40,0
67.00,82.67,0
103.00,81.08,0
62.00,79.96,0
39.00,78.67,0
60.00,76.74,0
35.00,74.34,0
38.00,71.45,0
52.00,68.25,0
51.00,65.14,0
42.00,62.25,0
89.00,59.85,0
53.00,58.29,0
81.00,57.48,0
69.00,57.30,0
49.00,57.48,0
60.00,57.60,0
64.00,57.71,0
77.00,58.07,0
111.00,59.15,0
85.00,61.19,0
81.00,63.70,0
72.00,66.15,0
93.00,68.44,0
68.00,70.62,0
86.00,72.55,0
66.00,74.14,0
70.00,75.28,0
47.00,75.75,0
118.00,75.93,0
42.00,76.25,0
45.00,76.01,0
71.00,74.99,0
34.00,73.56,0
65.00,71.73,0
75.00,69.93,0
43.00,68.39,0
43.00,66.64,0
52.00,64.60,0
38.00,62.45,0
54.00,60.26,0
69.00,58.37,0
37.00,56.91,0
37.00,55.40,0
89.00,54.07,0
42.00,53.40,0
82.00,53.23,0
67.00,53.60,0
70.00,54.47,0
82.00,55.72,0
116.00,57.72,0
81.00,60.60,0
68.00,63.65,0
52.00,66.09,0
144.00,68.37,0
74.00,71.27,0
57.00,74.00,0
58.00,75.66,0
42.00,76.19,0
54.00,75.69,0
55.00,74.51,0
61.00,73.00,0
44.00,71.27,0
56.00,69.30,0
85.00,67.51,0
45.00,66.15,0
35.00,64.67,0
56.00,62.82,0
65.00,61.08,0
42.00,59.64,0
56.00,58.26,0
52.00,56.99,0
72.00,56.05,0
74.00,55.72,0
80.00,56.11,0
62.00,56.99,0
67.00,58.01,0
88.00,59.22,0
47.00,60.58,0
113.00,62.05,0
55.00,63.82,0
67.00,65.46,0
83.00,66.78,0
93.00,68.28,0
100.00,70.21,0
69.00,72.34,0
68.00,74.10,0
46.00,75.06,0
81.00,75.30,0
40.00,75.05,0
63.00,74.22,0
51.00,72.93,0
59.00,71.40,0
42.00,69.61,0
38.00,67.45,0
63.00,65.08,0
39.00,62.80,0
36.00,60.46,0
61.00,58.10,0
56.00,56.16,0
57.00,54.73,0
56.00,53.70,0
45.00,52.91,0
64.00,52.30,0
96.00,52.32,0
64.00,53.26,0
69.00,54.63,0
70.00,56.11,0
97.00,57.91,0
70.00,60.12,0
124.00,62.80,0
76.00,66.01,0
91.00,69.30,0
73.00,72.25,0
100.00,74.88,0
61.00,77.16,0
65.00,78.72,0
68.00,79.45,0
57.00,79.51,0
52.00,78.86,0
68.00,77.65,0
61.00,76.23,0
38.00,74.51,0
40.00,72.20,0
36.00,69.33,0
53.00,66.22,0
42.00,63.19,0
50.00,60.35,0
44.00,57.73,0
67.00,55.52,0
47.00,53.87,0
66.00,52.71,0
60.00,52.06,0
58.00,51.87,0
84.00,52.15,0
76.00,53.14,0
79.00,54.74,0
71.00,56.67,0
92.00,58.85,0
64.00,61.19,0
75.00,63.39,0
89.00,65.46,0
86.00,67.69,0
118.00,70.27,0
49.00,72.97,0
91.00,75.15,0
50.00,76.64,0
68.00,77.38,0
52.00,77.34,0
111.00,77.09,0
52.00,77.06,0
36.00,76.55,0
78.00,75.32,0
36.00,73.78,0
37.00,71.71,0
92.00,69.44,0
48.00,67.64,0
42.00,65.93,0
93.00,64.32,0
50.00,63.26,0
47.00,62.35,0
77.00,61.42,0
55.00,60.81,0
70.00,60.45,0
165.00,61.16,0
73.00,63.60,0
108.00,66.80,0
86.00,70.13,0
69.00,73.22,0
51.00,75.42,0
119.00,77.00,0
73.00,78.65,0
87.00,80.21,0
42.00,81.14,0
64.00,81.10,0
78.00,80.44,0
131.00,80.18,0
46.00,80.51,0
41.00,80.29,0
40.00,78.85,0
102.00,77.01,0
46.00,75.45,0
38.00,73.69,0
52.00,71.36,0
42.00,68.75,0
35.00,65.91,0
53.00,62.93,0
51.00,60.18,0
56.00,57.84,0
105.00,56.37,0
48.00,55.97,0
60.00,55.98,0
53.00,55.96,0
56.00,55.93,0
48.00,55.82,0
59.00,55.63,0
58.00,55.50,0
84.00,55.71,0
63.00,56.41,0
140.00,57.97,0
66.00,60.61,0
75.00,63.49,0
73.00,65.97,0
88.00,68.23,0
80.00,70.40,0
125.00,72.82,0
49.00,75.37,0
44.00,77.03,0
51.00,77.31,0
39.00,76.49,0
68.00,74.97,0
115.00,73.73,0
51.00,73.24,0
35.00,72.53,0
74.00,71.21,0
37.00,69.67,0
60.00,67.92,0
78.00,66.28,0
35.00,64.92,0
34.00,63.24,0
105.00,61.59,0
41.00,60.66,0
73.00,60.09,0
70.00,59.80,0
65.00,59.89,0
69.00,60.21,0
90.00,60.88,0
78.00,62.08,0
68.00,63.53,0
79.00,64.96,0
76.00,66.39,0
62.00,67.70,0
113.00,69.05,0
81.00,70.85,0
82.00,72.83,0
73.00,74.55,0
87.00,76.00,0
63.00,77.15,0
127.00,78.28,0
56.00,79.64,0
51.00,80.43,0
75.00,80.30,0
48.00,79.61,0
48.00,78.26,0
88.00,76.57,0
39.00,74.92,0
36.00,72.86,0
58.00,70.27,0
57.00,67.71,0
51.00,65.37,0
63.00,63.26,0
70.00,61.61,0
68.00,60.56,0
96.00,60.26,0
67.00,60.75,0
122.00,62.02,0
60.00,64.00,0
77.00,66.03,0
73.00,67.76,0
82.00,69.36,0
53.00,70.68,0
137.00,72.02,0
50.00,73.79,0
74.00,75.26,0
57.00,75.99,0
56.00,76.06,0
72.00,75.59,0
52.00,74.81,0
41.00,73.54,0
35.00,71.54,0
56.00,69.03,0
42.00,66.40,0
37.00,63.67,0
69.00,61.02,0
66.00,58.99,0
35.00,57.44,0
61.00,56.00,0
64.00,54.88,0
40.00,54.10,0
74.00,53.52,0
44.00,53.24,0
68.00,53.16,0
87.00,53.54,0
64.00,54.59,0
78.00,56.00,0
103.00,57.90,0
88.00,60.50,0
74.00,63.39,0
128.00,66.50,0
82.00,70.07,0
88.00,73.60,0
66.00,76.53,0
115.00,79.00,0
68.00,81.27,0
107.00,83.26,0
44.00,84.72,0
63.00,85.16,0
70.00,84.67,0
56.00,83.64,0
58.00,82.07,0
79.00,80.24,0
39.00,78.30,0
35.00,75.83,0
64.00,72.87,0
48.00,69.96,0
43.00,67.12,0
42.00,64.19,0
47.00,61.28,0
70.00,58.75,0
64.00,56.95,0
65.00,55.88,0
49.00,55.22,0
36.00,54.54,0
99.00,54.04,0
75.00,54.43,0
90.00,55.73,0
71.00,57.57,0
66.00,59.53,0
74.00,61.34,0
89.00,63.19,0
35.00,64.88,0
76.00,65.96,0
77.00,66.78,0
151.00,68.35,0
52.00,70.83,0
92.00,73.25,0
87.00,75.33,0
46.00,77.00,0
72.00,77.80,0
63.00,77.93,0
38.00,77.39,0
88.00,76.31,0
40.00,75.06,0
33.00,73.29,0
76.00,71.03,0
41.00,68.83,0
39.00,66.51,0
76.00,64.16,0
42.00,62.18,0
59.00,60.43,0
83.00,59.11,0
44.00,58.38,0
54.00,57.75,0
80.00,57.28,0
70.00,57.37,0
45.00,57.73,0
143.00,58.61,0
50.00,60.49,0
98.00,62.73,0
70.00,64.98,0
72.00,67.10,0
72.00,68.86,0
42.00,70.05,0
68.00,70.50,0
94.00,70.75,0
68.00,71.28,0
71.00,71.81,0
65.00,72.11,0
47.00,72.01,0
52.00,71.29,0
35.00,69.92,0
48.00,67.97,0
37.00,65.64,0
52.00,63.13,0
44.00,60.67,0
37.00,58.25,0
37.00,55.77,0
66.00,53.51,0
62.00,51.93,0
41.00,50.92,0
71.00,50.24,0
57.00,50.05,0
65.00,50.31,0
93.00,51.16,0
68.00,52.75,0
87.00,54.82,0
39.00,56.90,0
89.00,58.70,0
66.00,60.47,0
94.00,62.42,0
72.00,64.53,0
100.00,66.79,0
75.00,69.17,0
63.00,71.28,0
70.00,72.77,0
47.00,73.55,0
61.00,73.57,0
54.00,73.00,0
69.00,72.11,0
40.00,70.97,0
53.00,69.43,0
53.00,67.62,0
60.00,65.81,0
36.00,63.99,0
83.00,62.27,0
75.00,61.19,0
57.00,60.75,0
35.00,60.25,0
87.00,59.65,0
38.00,59.27,0
59.00,58.85,0
50.00,58.29,0
50.00,57.67,0
74.00,57.14,0
100.00,57.31,0
57.00,58.28,0
75.00,59.48,0
74.00,60.75,0
92.00,62.31,0
67.00,64.11,0
118.00,66.22,0
50.00,68.54,0
73.00,70.45,0
63.00,71.71,0
40.00,72.27,0
57.00,71.96,0
61.00,71.12,0
53.00,70.05,0
35.00,68.59,0
53.00,66.67,0
43.00,64.53,0
70.00,62.50,0
38.00,60.72,0
49.00,58.97,0
34.00,57.09,0
40.00,55.08,0
48.00,53.06,0
41.00,51.24,0
55.00,49.69,0
97.00,48.92,0
74.00,49.38,0
47.00,50.51,0
61.00,51.59,0
73.00,52.70,0
66.00,54.06,0
151.00,56.24,0
61.00,59.59,0
53.00,62.86,0
71.00,65.24,0
62.00,67.01,0
66.00,68.30,0
129.00,69.69,0
73.00,71.71,0
73.00,73.77,0
72.00,75.29,0
68.00,76.32,0
73.00,76.90,0
72.00,77.17,0
64.00,77.14,0
38.00,76.54,0
68.00,75.26,0
41.00,73.58,0
35.00,71.40,0
39.00,68.63,0
44.00,65.55,0
44.00,62.45,0
65.00,59.66,0
48.00,57.41,0
42.00,55.47,0
61.00,53.76,0
53.00,52.48,0
62.00,51.66,0
68.00,51.36,0
70.00,51.64,0
72.00,52.46,0
66.00,53.67,0
70.00,55.07,0
53.00,56.46,0
73.00,57.70,0
75.00,59.01,0
77.00,60.53,0
72.00,62.18,0
56.00,63.66,0
70.00,64.78,0
129.00,66.19,0
47.00,68.17,0
65.00,69.80,0
74.00,70.81,0
36.00,71.29,0
106.00,71.38,0
92.00,71.90,0
58.00,72.79,0
35.00,73.06,0
72.00,72.51,0
36.00,71.48,0
36.00,69.81,0
72.00,67.72,0
39.00,65.71,0
36.00,63.54,0
85.00,61.42,0
47.00,59.86,0
55.00,58.64,0
65.00,57.60,0
72.00,57.03,0
62.00,56.95,0
74.00,57.24,0
77.00,57.94,0
61.00,58.95,0
60.00,59.90,0
62.00,60.66,0
71.00,61.33,0
98.00,62.31,0
62.00,63.73,0
72.00,65.13,0
73.00,66.34,0
52.00,67.30,0
64.00,67.80,0
39.00,67.75,0
70.00,67.22,0
33.00,66.35,0
49.00,65.02,0
44.00,63.31,0
39.00,61.37,0
55.00,59.33,0
38.00,57.36,0
42.00,55.40,0
98.00,53.90,0
37.00,53.25,0
46.00,52.80,0
72.00,52.37,0
54.00,52.33,0
40.00,52.39,0
59.00,52.30,0
52.00,52.23,0
61.00,52.31,0
75.00,52.70,0
75.00,53.61,0
77.00,55.04,0
121.00,57.20,0
60.00,60.07,0
66.00,62.81,0
70.00,64.98,0
73.00,66.79,0
60.00,68.24,0
56.00,69.14,0
77.00,69.59,0
42.00,69.72,0
54.00,69.29,0
38.00,68.22,0
39.00,66.55,0
87.00,64.76,0
43.00,63.38,0
37.00,61.97,0
43.00,60.17,0
47.00,58.21,0
46.00,56.32,0
47.00,54.55,0
38.00,52.88,0
66.00,51.42,0
78.00,50.66,0
69.00,50.81,0
137.00,52.18,0
78.00,54.97,0
95.00,58.48,0
67.00,61.99,0
98.00,65.31,0
72.00,68.44,0
78.00,71.20,0
48.00,73.23,0
87.00,74.51,0
64.00,75.38,0
78.00,75.98,0
50.00,76.15,0
71.00,75.82,0
70.00,75.23,0
43.00,74.39,0
57.00,73.06,0
59.00,71.42,0
49.00,69.66,0
37.00,67.62,0
56.00,65.31,0
43.00,62.99,0
39.00,60.65,0
78.00,58.50,0
36.00,56.85,0
51.00,55.37,0
74.00,54.17,0
77.00,53.75,0
35.00,53.83,0
66.00,53.87,0
76.00,54.13,0
59.00,54.82,0
107.00,56.02,0
78.00,57.98,0
86.00,60.44,0
69.00,62.95,0
74.00,65.24,0
54.00,67.06,0
107.00,68.61,0
97.00,70.54,0
71.00,72.74,0
79.00,74.64,0
82.00,76.19,0
79.00,77.51,0
73.00,78.53,0
69.00,79.14,0
41.00,79.08,0
45.00,78.04,0
48.00,76.14,0
52.00,73.78,0
40.00,71.14,0
75.00,68.48,0
55.00,66.23,0
150.00,65.10,0
62.00,65.53,0
47.00,66.35,0
60.00,66.56,0
65.00,66.45,0
69.00,66.30,0
111.00,66.59,0
76.00,67.64,0
50.00,68.79,0
76.00,69.47,0
76.00,69.99,0
51.00,70.38,0
94.00,70.59,0
74.00,71.01,0
87.00,71.70,0
55.00,72.35,0
79.00,72.74,0
71.00,72.98,0
110.00,73.49,0
79.00,74.49,0
81.00,75.68,0
76.00,76.70,0
53.00,77.30,0
62.00,77.21,0
42.00,76.41,0
52.00,74.91,0
41.00,72.84,0
43.00,70.32,0
59.00,67.62,0
41.00,65.01,0
36.00,62.33,0
57.00,59.64,0
39.00,57.19,0
91.00,55.30,0
55.00,54.33,0
47.00,53.83,0
70.00,53.49,0
56.00,53.47,0
78.00,53.84,0
64.00,54.62,0
59.00,55.59,0
92.00,56.76,0
45.00,58.16,0
93.00,59.56,0
78.00,61.23,0
73.00,63.13,0
63.00,64.86,0
89.00,66.41,0
46.00,67.76,0
58.00,68.53,0
54.00,68.63,0
68.00,68.37,0
47.00,67.86,0
37.00,66.88,0
83.00,65.61,0
37.00,64.46,0
35.00,63.04,0
76.00,61.39,0
36.00,59.95,0
46.00,58.48,0
59.00,56.97,0
50.00,55.72,0
50.00,54.64,0
63.00,53.78,0
50.00,53.22,0
83.00,53.07,0
137.00,54.11,0
52.00,56.50,0
69.00,59.01,0
76.00,61.17,0
80.00,63.27,0
57.00,65.20,0
151.00,67.37,0
61.00,70.25,0
68.00,72.94,0
75.00,74.82,0
69.00,76.15,0
70.00,76.98,0
109.00,77.69,0
69.00,78.62,0
44.00,79.13,0
70.00,78.78,0
56.00,77.90,0
42.00,76.50,0
98.00,74.88,0
79.00,73.79,0
46.00,73.02,0
74.00,72.05,0
36.00,70.83,0
45.00,69.13,0
76.00,67.22,0
36.00,65.48,0
60.00,63.70,0
63.00,62.06,0
46.00,60.67,0
42.00,59.24,0
82.00,57.95,0
90.00,57.50,0
64.00,57.95,0
70.00,58.76,0
68.00,59.68,0
62.00,60.63,0
49.00,61.33,0
96.00,61.95,0
74.00,62.98,0
72.00,64.30,0
75.00,65.59,0
76.00,66.87,0
61.00,68.01,0
50.00,68.67,0
71.00,68.82,0
37.00,68.56,0
74.00,67.89,0
63.00,67.19,0
45.00,66.46,0
44.00,65.34,0
45.00,63.79,0
36.00,61.91,0
43.00,59.76,0
44.00,57.52,0
58.00,55.47,0
57.00,53.88,0
57.00,52.78,0
80.00,52.27,0
69.00,52.52,0
61.00,53.27,0
91.00,54.41,0
67.00,56.04,0
160.00,58.60,0
75.00,62.43,0
97.00,66.65,0
71.00,70.47,0
67.00,73.57,0
56.00,75.64,0
89.00,76.93,0
43.00,77.65,0
77.00,77.73,0
71.00,77.42,0
61.00,76.95,0
58.00,76.12,0
43.00,74.79,0
52.00,72.92,0
35.00,70.59,0
58.00,67.98,0
43.00,65.36,0
36.00,62.69,0
50.00,59.95,0
35.00,57.30,0
47.00,54.77,0
56.00,52.57,0
53.00,50.91,0
74.00,49.92,0
71.00,49.76,0
62.00,50.30,0
68.00,51.21,0
67.00,52.41,0
67.00,53.81,0
97.00,55.57,0
64.00,57.75,0
70.00,59.94,0
72.00,61.90,0
95.00,63.89,0
74.00,66.08,0
87.00,68.27,0
57.00,70.21,0
68.00,71.58,0
61.00,72.36,0
71.00,72.71,0
61.00,72.76,0
49.00,72.39,0
45.00,71.40,0
47.00,69.83,0
38.00,67.78,0
44.00,65.37,0
62.00,62.93,0
50.00,60.79,0
46.00,58.88,0
42.00,57.00,0
101.00,55.60,0
60.00,55.21,0
62.00,55.43,0
72.00,55.88,0
59.00,56.56,0
64.00,57.32,0
97.00,58.34,0
51.00,59.74,0
103.00,61.33,0
76.00,63.26,0
87.00,65.47,0
73.00,67.65,0
100.00,69.82,0
73.00,72.02,0
130.00,74.43,0
67.00,77.10,0
91.00,79.52,0
53.00,81.22,0
70.00,82.03,0
60.00,82.02,0
52.00,81.31,0
58.00,79.91,0
68.00,78.16,0
51.00,76.27,0
41.00,74.05,0
50.00,71.42,0
38.00,68.55,0
55.00,65.58,0
38.00,62.70,0
44.00,59.89,0
62.00,57.32,0
61.00,55.37,0
58.00,54.06,0
68.00,53.29,0
58.00,53.03,0
81.00,53.27,0
63.00,54.03,0
104.00,55.40,0
66.00,57.41,0
71.00,59.58,0
75.00,61.60,0
124.00,63.95,0
89.00,67.03,0
73.00,70.26,0
73.00,72.93,0
44.00,74.72,0
57.00,75.41,0
114.00,75.69,0
61.00,76.26,0
38.00,76.44,0
58.00,75.66,0
37.00,74.15,0
46.00,72.02,0
105.00,69.96,0
38.00,68.51,0
34.00,66.92,0
59.00,64.85,0
55.00,62.86,0
46.00,61.03,0
55.00,59.30,0
50.00,57.73,0
34.00,56.18,0
58.00,54.61,0
58.00,53.33,0
69.00,52.60,0
63.00,52.45,0
83.00,52.90,0
59.00,53.87,0
95.00,55.27,0
76.00,57.20,0
82.00,59.49,0
69.00,61.81,0
148.00,64.58,0
100.00,68.39,0
101.00,72.72,0
62.00,76.62,0
52.00,79.34,0
66.00,80.69,0
52.00,81.02,0
58.00,80.46,0
43.00,79.11,0
48.00,77.06,0
37.00,74.41,0
47.00,71.34,0
36.00,68.03,0
42.00,64.60,0
85.00,61.55,0
36.00,59.26,0
36.00,57.15,0
88.00,55.28,0
81.00,54.45,0
50.00,54.50,0
72.00,54.83,0
60.00,55.36,0
53.00,55.96,0
127.00,56.99,0
95.00,59.20,0
78.00,62.19,0
60.00,64.97,0
83.00,67.26,0
73.00,69.25,0
75.00,70.98,0
63.00,72.32,0
72.00,73.19,0
68.00,73.71,0
92.00,74.15,0
62.00,74.63,0
60.00,74.80,0
95.00,74.75,0
37.00,74.61,0
52.00,73.87,0
47.00,72.43,0
59.00,70.62,0
47.00,68.67,0
44.00,66.54,0
38.00,64.16,0
40.00,61.55,0
48.00,58.90,0
35.00,56.36,0
59.00,54.02,0
52.00,52.16,0
58.00,50.84,0
44.00,49.92,0
61.00,49.27,0
58.00,49.00,0
70.00,49.22,0
77.00,50.04,0
81.00,51.52,0
81.00,53.60,0
50.00,55.82,0
93.00,57.93,0
61.00,60.07,0
108.00,62.38,0
67.00,64.93,0
86.00,67.43,0
79.00,69.73,0
65.00,71.72,0
72.00,73.19,0
74.00,74.22,0
63.00,74.89,0
88.00,75.31,0
64.00,75.63,0
34.00,75.45,0
75.00,74.52,0
40.00,73.21,0
35.00,71.35,0
109.00,69.40,0
39.00,68.03,0
51.00,66.72,0
92.00,65.44,0
51.00,64.67,0
51.00,63.97,0
74.00,63.20,0
44.00,62.54,0
56.00,61.77,0
121.00,61.43,0
64.00,62.13,0
91.00,63.42,0
72.00,64.94,0
93.00,66.65,0
67.00,68.43,0
103.00,70.25,0
86.00,72.28,0
128.00,74.76,0
90.00,77.74,0
64.00,80.51,0
66.00,82.31,0
61.00,83.07,0
40.00,82.79,0
65.00,81.54,0
44.00,79.67,0
53.00,77.32,0
62.00,74.73,0
39.00,72.07,0
45.00,69.20,0
36.00,66.09,0
37.00,62.82,0
40.00,59.49,0
35.00,56.26,0
60.00,53.34,0
39.00,50.96,0
58.00,49.09,0
67.00,47.88,0
76.00,47.59,0
67.00,48.16,0
125.00,49.77,0
91.00,52.72,0
38.00,56.08,0
82.00,58.83,0
76.00,61.27,0
74.00,63.65,0
63.00,65.72,0
96.00,67.57,0
62.00,69.37,0
82.00,70.94,0
63.00,72.17,0
71.00,73.03,0
50.00,73.37,0
42.00,72.97,0
65.00,71.88,0
96.00,70.90,0
53.00,70.37,0
37.00,69.61,0
68.00,68.34,0
43.00,66.91,0
47.00,65.27,0
70.00,63.57,0
41.00,62.06,0
50.00,60.54,0
72.00,59.14,0
52.00,58.15,0
64.00,57.47,0
79.00,57.18,0
88.00,57.63,0
68.00,58.75,0
79.00,60.16,0
54.00,61.56,0
54.00,62.58,0
82.00,63.30,0
110.00,64.47,0
76.00,66.35,0
70.00,68.33,0
62.00,69.88,0
37.00,70.66,0
62.00,70.54,0
65.00,69.99,0
52.00,69.27,0
71.00,68.43,0
72.00,67.72,0
35.00,67.01,0
56.00,65.89,0
54.00,64.52,0
56.00,63.16,0
37.00,61.72,0
55.00,60.12,0
42.00,58.48,0
36.00,56.74,0
70.00,55.07,0
40.00,53.76,0
49.00,52.64,0
61.00,51.69,0
64.00,51.20,0
54.00,51.14,0
71.00,51.42,0
58.00,52.03,0
62.00,52.83,0
87.00,53.92,0
51.00,55.33,0
74.00,56.75,0
69.00,58.17,0
78.00,59.73,0
59.00,61.28,0
65.00,62.59,0
80.00,63.74,0
85.00,65.07,0
78.00,66.64,0
67.00,68.18,0
57.00,69.31,0
47.00,69.78,0
65.00,69.60,0
36.00,68.93,0
56.00,67.74,0
42.00,66.16,0
37.00,64.24,0
55.00,62.06,0
40.00,59.91,0
39.00,57.73,0
53.00,55.58,0
40.00,53.64,0
42.00,51.83,0
88.00,50.50,0
37.00,49.93,0
43.00,49.54,0
64.00,49.15,0
60.00,49.14,0
36.00,49.32,0
73.00,49.52,0
104.00,50.41,0
78.00,52.38,0
97.00,55.09,0
34.00,57.85,0
111.00,60.32,0
67.00,62.87,0
77.00,65.39,0
61.00,67.47,0
96.00,69.26,0
71.00,71.01,0
57.00,72.43,0
75.00,73.26,0
43.00,73.54,0
45.00,73.03,0
52.00,71.75,0
89.00,70.37,0
49.00,69.30,0
37.00,68.06,0
41.00,66.22,0
37.00,63.92,0
38.00,61.33,0
47.00,58.66,0
46.00,56.16,0
62.00,54.06,0
62.00,52.61,0
55.00,51.75,0
86.00,51.53,0
61.00,52.03,0
71.00,53.00,0
47.00,54.05,0
68.00,54.99,0
93.00,56.16,0
60.00,57.79,0
106.00,59.75,0
101.00,62.34,0
98.00,65.60,0
74.00,68.97,0
87.00,72.01,0
64.00,74.51,0
94.00,76.50,0
78.00,78.22,0
62.00,79.51,0
74.00,80.15,0
53.00,80.17,0
78.00,79.66,0
83.00,79.06,0
62.00,78.51,0
35.00,77.50,0
77.00,75.89,0
38.00,74.05,0
35.00,71.75,0
60.00,69.02,0
61.00,66.45,0
39.00,64.13,0
48.00,61.79,0
43.00,59.44,0
61.00,57.30,0
61.00,55.64,0
40.00,54.40,0
71.00,53.40,0
67.00,52.93,0
81.00,53.19,0
87.00,54.24,0
62.00,55.85,0
83.00,57.67,0
65.00,59.57,0
94.00,61.57,0
47.00,63.54,0
102.00,65.33,0
75.00,67.23,0
77.00,69.18,0
67.00,70.81,0
85.00,72.16,0
45.00,73.13,0
42.00,73.24,0
66.00,72.51,0
41.00,71.34,0
50.00,69.74,0
36.00,67.67,0
50.00,65.29,0
34.00,62.73,0
39.00,60.00,0
46.00,57.26,0
34.00,54.64,0
50.00,52.20,0
63.00,50.25,0
44.00,48.92,0
46.00,47.92,0
64.00,47.23,0
57.00,47.06,0
94.00,47.62,0
88.00,49.21,0
68.00,51.59,0
87.00,54.26,0
75.00,57.12,0
70.00,59.93,0
49.00,62.27,0
102.00,64.23,0
61.00,66.18,0
81.00,68.00,0
66.00,69.52,0
57.00,70.61,0
95.00,71.37,0
53.00,72.07,0
59.00,72.37,0
68.00,72.17,0
74.00,71.86,0
35.00,71.32,0
61.00,70.25,0
37.00,68.72,0
35.00,66.69,0
58.00,64.30,0
41.00,61.95,0
43.00,59.63,0
65.00,57.48,0
64.00,55.91,0
60.00,54.95,0
88.00,54.65,0
117.00,55.55,0
59.00,57.54,0
72.00,59.68,0
69.00,61.59,0
98.00,63.55,0
74.00,65.74,0
75.00,67.88,0
74.00,69.73,0
87.00,71.39,0
77.00,72.97,0
101.00,74.59,0
66.00,76.21,0
84.00,77.54,0
70.00,78.50,0
66.00,79.02,0
55.00,78.94,0
36.00,78.02,0
46.00,76.17,0
42.00,73.64,0
43.00,70.72,0
35.00,67.51,0
42.00,64.11,0
43.00,60.75,0
37.00,57.55,0
44.00,54.55,0
39.00,51.82,0
61.00,49.55,0
69.00,48.08,0
54.00,47.47,0
42.00,47.25,0
64.00,47.19,0
55.00,47.44,0
68.00,48.07,0
97.00,49.33,0
52.00,51.25,0
95.00,53.47,0
74.00,55.99,0
60.00,58.56,0
92.00,60.94,0
90.00,63.50,0
56.00,66.05,0
55.00,67.94,0
74.00,69.11,0
92.00,70.16,0
55.00,71.22,0
89.00,72.08,0
67.00,72.83,0
38.00,73.14,0
74.00,72.77,0
37.00,71.92,0
45.00,70.49,0
54.00,68.58,0
41.00,66.46,0
35.00,64.06,0
35.00,61.33,0
38.00,58.42,0
37.00,55.49,0
65.00,52.89,0
94.00,51.33,0
42.00,50.87,0
47.00,50.70,0
76.00,50.64,0
63.00,51.09,0
71.00,52.00,0
75.00,53.28,0
69.00,54.89,0
37.00,56.36,0
69.00,57.37,0
75.00,58.31,0
77.00,59.54,0
127.00,61.44,0
60.00,64.09,0
71.00,66.61,0
78.00,68.64,0
73.00,70.39,0
54.00,71.70,0
54.00,72.26,0
64.00,72.17,0
55.00,71.68,0
57.00,70.85,0
44.00,69.63,0
51.00,68.02,0
77.00,66.39,0
45.00,65.03,0
38.00,63.54,0
57.00,61.77,0
57.00,60.12,0
38.00,58.60,0
49.00,57.01,0
48.00,55.44,0
74.00,54.23,0
50.00,53.55,0
68.00,53.26,0
40.00,53.14,0
72.00,53.12,0
84.00,53.56,0
68.00,54.67,0
80.00,56.18,0
76.00,57.98,0
82.00,60.03,0
79.00,62.23,0
91.00,64.59,0
56.00,66.87,0
110.00,68.98,0
70.00,71.16,0
75.00,73.14,0
83.00,74.74,0
84.00,76.17,0
77.00,77.45,0
53.00,78.27,0
41.00,78.15,0
66.00,77.14,0
39.00,75.57,0
71.00,73.66,0
50.00,71.68,0
35.00,69.50,0
71.00,67.13,0
43.00,64.93,0
35.00,62.70,0
74.00,60.47,0
36.00,58.59,0
65.00,56.97,0
75.00,55.84,0
47.00,55.30,0
57.00,54.93,0
74.00,54.78,0
72.00,55.15,0
56.00,55.86,0
58.00,56.56,0
94.00,57.42,0
82.00,58.89,0
37.00,60.50,0
72.00,61.61,0
36.00,62.20,0
75.00,62.41,0
74.00,62.65,0
66.00,63.15,0
63.00,63.66,0
59.00,64.03,0
62.00,64.19,0
37.00,64.01,0
54.00,63.34,0
36.00,62.22,0
51.00,60.79,0
41.00,59.16,0
38.00,57.38,0
42.00,55.45,0
62.00,53.67,0
46.00,52.30,0
36.00,51.10,0
48.00,49.87,0
64.00,48.91,0
49.00,48.42,0
61.00,48.29,0
50.00,48.42,0
83.00,48.93,0
60.00,49.99,0
83.00,51.50,0
64.00,53.35,0
73.00,55.33,0
78.00,57.39,0
96.00,59.74,0
74.00,62.40,0
73.00,64.98,0
55.00,67.06,0
81.00,68.61,0
68.00,69.87,0
73.00,70.92,0
72.00,71.74,0
36.00,72.07,0
62.00,71.65,0
65.00,70.82,0
35.00,69.72,0
52.00,68.12,0
65.00,66.35,0
36.00,64.61,0
58.00,62.76,0
81.00,61.20,0
43.00,60.17,0
51.00,59.20,0
99.00,58.52,0
77.00,58.76,0
55.00,59.54,0
74.00,60.33,0
71.00,61.19,0
57.00,62.08,0
103.00,63.09,0
74.00,64.56,0
68.00,66.17,0
69.00,67.52,0
75.00,68.64,0
41.00,69.36,0
89.00,69.66,0
74.00,70.00,0
72.00,70.50,0
82.00,71.03,0
76.00,71.66,0
78.00,72.35,0
52.00,72.83,0
38.00,72.61,0
61.00,71.60,0
41.00,70.13,0
74.00,68.49,0
46.00,66.92,0
42.00,65.23,0
41.00,63.21,0
40.00,60.94,0
36.00,58.49,0
49.00,56.03,0
45.00,53.78,0
70.00,52.03,0
44.00,50.87,0
74.00,50.23,0
40.00,49.99,0
86.00,50.14,0
120.00,51.34,0
52.00,53.67,0
65.00,56.05,0
68.00,58.07,0
93.00,60.12,0
34.00,62.06,0
83.00,63.50,0
74.00,64.76,0
50.00,65.90,0
70.00,66.61,0
80.00,67.17,0
70.00,67.86,0
57.00,68.43,0
60.00,68.61,0
48.00,68.34,0
63.00,67.68,0
40.00,66.71,0
55.00,65.41,0
43.00,63.85,0
35.00,62.00,0
80.00,60.15,0
93.00,59.13,0
50.00,59.01,0
42.00,58.91,0
66.00,58.55,0
45.00,58.14,0
57.00,57.67,0
100.00,57.56,0
62.00,58.19,0
53.00,59.04,0
73.00,59.73,0
78.00,60.56,0
59.00,61.58,0
136.00,63.05,0
64.00,65.36,0
72.00,67.74,0
66.00,69.57,0
71.00,70.93,0
57.00,71.81,0
100.00,72.46,0
57.00,73.16,0
86.00,73.75,0
79.00,74.30,0
50.00,74.70,0
64.00,74.53,0
95.00,74.20,0
46.00,73.98,0
41.00,73.25,0
57.00,71.81,0
38.00,69.93,0
37.00,67.60,0
55.00,64.97,0
38.00,62.36,0
36.00,59.69,0
40.00,56.93,0
79.00,54.56,0
51.00,53.02,0
70.00,52.16,0
104.00,52.23,0
72.00,53.45,0
50.00,55.06,0
54.00,56.34,0
54.00,57.20,0
73.00,57.91,0
65.00,58.72,0
48.00,59.47,0
75.00,60.02,0
74.00,60.71,0
68.00,61.63,0
70.00,62.60,0
116.00,63.95,0
72.00,65.95,0
67.00,67.99,0
86.00,69.70,0
106.00,71.56,0
75.00,73.68,0
98.00,75.79,0
42.00,77.47,0
43.00,78.05,0
40.00,77.31,0
40.00,75.54,0
39.00,73.00,0
87.00,70.34,0
36.00,68.06,0
47.00,65.78,0
84.00,63.64,0
56.00,62.14,0
44.00,60.93,0
70.00,59.77,0
55.00,58.89,0
63.00,58.28,0
95.00,58.17,0
61.00,58.76,0
113.00,60.00,0
50.00,61.73,0
75.00,63.39,0
52.00,64.65,0
70.00,65.52,0
50.00,66.02,0
71.00,66.20,0
38.00,66.05,0
82.00,65.65,0
72.00,65.44,0
58.00,65.47,0
67.00,65.43,0
50.00,65.24,0
50.00,64.73,0
54.00,63.89,0
47.00,62.83,0
56.00,61.63,0
53.00,60.44,0
40.00,59.20,0
35.00,57.70,0
41.00,55.89,0
41.00,53.97,0
44.00,52.11,0
39.00,50.37,0
66.00,48.93,0
54.00,48.07,0
63.00,47.80,0
62.00,48.01,0
70.00,48.71,0
75.00,49.91,0
73.00,51.60,0
67.00,53.56,0
71.00,55.58,0
90.00,57.74,0
46.00,59.93,0
86.00,61.83,0
78.00,63.68,0
80.00,65.63,0
78.00,67.56,0
78.00,69.39,0
54.00,70.87,0
74.00,71.80,0
70.00,72.38,0
43.00,72.55,0
74.00,72.18,0
41.00,71.43,0
48.00,70.19,0
74.00,68.68,0
37.00,67.18,0
53.00,65.48,0
70.00,63.79,0
54.00,62.43,0
33.00,61.08,0
131.00,60.11,0
42.00,60.18,0
67.00,60.56,0
97.00,61.11,0
58.00,62.14,0
45.00,63.00,0
80.00,63.46,0
67.00,63.95,0
85.00,64.68,0
83.00,65.74,0
51.00,66.87,0
63.00,67.57,0
68.00,67.89,0
65.00,68.07,0
78.00,68.24,0
75.00,68.56,0
79.00,69.07,0
77.00,69.74,0
89.00,70.60,0
86.00,71.74,0
81.00,73.06,0
52.00,74.12,0
70.00,74.59,0
40.00,74.40,0
59.00,73.52,0
109.00,72.63,0
48.00,72.24,0
37.00,71.56,0
70.00,70.26,0
36.00,68.71,0
38.00,66.75,0
59.00,64.47,0
38.00,62.20,0
82.00,60.22,0
68.00,58.95,0
72.00,58.45,0
46.00,58.26,0
74.00,58.16,0
61.00,58.27,0
70.00,58.62,0
112.00,59.54,0
63.00,61.21,0
77.00,63.07,0
68.00,64.75,0
84.00,66.33,0
88.00,68.03,0
145.00,70.41,0
80.00,73.68,0
75.00,76.87,0
56.00,79.12,0
56.00,80.22,0
54.00,80.24,0
56.00,79.43,0
59.00,78.04,0
68.00,76.41,0
40.00,74.59,0
57.00,72.43,0
53.00,70.11,0
38.00,67.68,0
53.00,65.11,0
40.00,62.52,0
70.00,60.17,0
56.00,58.34,0
34.00,56.80,0
45.00,55.15,0
112.00,54.02,0
40.00,53.94,0
72.00,54.27,0
76.00,54.88,0
68.00,55.94,0
63.00,57.17,0
67.00,58.38,0
61.00,59.50,0
83.00,60.63,0
61.00,61.86,0
56.00,62.91,0
76.00,63.69,0
86.00,64.60,0
58.00,65.69,0
80.00,66.68,0
40.00,67.36,0
36.00,67.26,0
73.00,66.50,0
82.00,65.90,0
77.00,65.87,0
65.00,66.15,0
51.00,66.32,0
36.00,65.93,0
60.00,64.96,0
37.00,63.67,0
59.00,62.19,0
50.00,60.69,0
49.00,59.27,0
41.00,57.79,0
90.00,56.58,0
67.00,56.18,0
57.00,56.33,0
69.00,56.66,0
37.00,56.95,0
56.00,56.93,0
81.00,56.94,0
54.00,57.32,0
80.00,57.93,0
49.00,58.66,0
66.00,59.28,0
74.00,59.91,0
83.00,60.86,0
82.00,62.23,0
103.00,64.12,0
57.00,66.28,0
55.00,67.99,0
58.00,68.88,0
39.00,69.02,0
46.00,68.35,0
40.00,66.99,0
39.00,65.11,0
35.00,62.79,0
42.00,60.20,0
35.00,57.51,0
51.00,54.91,0
57.00,52.72,0
47.00,51.07,0
77.00,50.02,0
39.00,49.54,0
46.00,49.20,0
153.00,49.66,0
91.00,52.05,0
75.00,55.55,0
64.00,58.90,0
64.00,61.70,0
59.00,63.86,0
80.00,65.56,0
38.00,66.81,0
90.00,67.58,0
72.00,68.33,0
98.00,69.39,0
65.00,70.65,0
44.00,71.52,0
81.00,71.75,0
42.00,71.60,0
74.00,71.10,0
42.00,70.28,0
52.00,69.08,0
77.00,67.72,0
63.00,66.67,0
54.00,65.80,0
41.00,64.72,0
80.00,63.54,0
35.00,62.49,0
46.00,61.25,0
36.00,59.63,0
72.00,57.99,0
38.00,56.63,0
37.00,55.26,0
128.00,54.36,0
50.00,54.72,0
89.00,55.80,0
76.00,57.29,0
58.00,59.01,0
42.00,60.29,0
130.00,61.53,0
67.00,63.47,0
65.00,65.57,0
79.00,67.28,0
60.00,68.70,0
56.00,69.61,0
69.00,69.99,0
70.00,70.15,0
82.00,70.36,0
92.00,70.88,0
64.00,71.66,0
50.00,72.12,0
63.00,71.96,0
61.00,71.41,0
41.00,70.50,0
42.00,69.02,0
54.00,67.08,0
35.00,64.93,0
38.00,62.48,0
70.00,60.06,0
47.00,58.09,0
42.00,56.37,0
68.00,54.85,0
59.00,53.84,0
68.00,53.40,0
163.00,54.24,0
71.00,56.92,0
58.00,60.08,0
69.00,62.60,0
89.00,64.81,0
65.00,66.92,0
94.00,68.90,0
86.00,70.93,0
68.00,72.88,0
90.00,74.54,0
82.00,76.06,0
78.00,77.44,0
57.00,78.37,0
78.00,78.72,0
69.00,78.71,0
62.00,78.40,0
98.00,77.97,0
60.00,77.71,0
53.00,77.17,0
60.00,76.09,0
39.00,74.49,0
43.00,72.32,0
42.00,69.66,0
37.00,66.69,0
38.00,63.51,0
59.00,60.41,0
76.00,57.98,0
37.00,56.26,0
72.00,54.93,0
39.00,53.92,0
63.00,53.13,0
39.00,52.46,0
82.00,52.06,0
40.00,52.04,0
39.00,51.97,0
99.00,51.99,0
67.00,52.79,0
90.00,54.33,0
82.00,56.42,0
66.00,58.80,0
94.00,61.20,0
70.00,63.69,0
69.00,65.97,0
98.00,68.06,0
65.00,70.12,0
77.00,71.89,0
63.00,73.19,0
42.00,73.78,0
36.00,73.31,0
65.00,71.99,0
50.00,70.40,0
36.00,68.52,0
75.00,66.45,0
33.00,64.50,0
47.00,62.43,0
35.00,60.14,0
37.00,57.68,0
54.00,55.26,0
70.00,53.36,0
44.00,52.12,0
50.00,51.18,0
79.00,50.62,0
67.00,50.79,0
70.00,51.59,0
78.00,52.85,0
61.00,54.43,0
73.00,56.09,0
69.00,57.78,0
68.00,59.46,0
79.00,61.12,0
135.00,63.34,0
61.00,66.33,0
104.00,69.40,0
70.00,72.24,0
52.00,74.45,0
70.00,75.69,0
49.00,76.11,0
36.00,75.61,0
117.00,74.69,0
41.00,74.10,0
40.00,73.18,0
68.00,71.62,0
34.00,69.81,0
35.00,67.53,0
54.00,64.86,0
38.00,62.19,0
51.00,59.60,0
42.00,57.16,0
40.00,54.87,0
36.00,52.62,0
68.00,50.66,0
69.00,49.49,0
69.00,49.24,0
123.00,50.16,0
42.00,52.16,0
145.00,54.85,0
56.00,58.30,0
105.00,61.99,0
60.00,65.44,0
65.00,68.29,0
99.00,70.59,0
121.00,73.17,0
82.00,76.22,0
52.00,78.80,0
68.00,80.26,0
63.00,80.78,0
57.00,80.57,0
51.00,79.64,0
51.00,78.03,0
35.00,75.78,0
47.00,72.95,0
44.00,69.83,0
38.00,66.57,0
49.00,63.29,0
39.00,60.14,0
101.00,57.65,0
44.00,56.21,0
77.00,55.45,0
45.00,55.05,0
74.00,54.91,0
53.00,55.03,0
80.00,55.45,0
72.00,56.29,0
78.00,57.57,0
115.00,59.48,0
47.00,61.89,0
110.00,64.32,0
75.00,66.86,0
50.00,69.15,0
62.00,70.56,0
65.00,71.27,0
58.00,71.51,0
90.00,71.58,0
53.00,71.67,0
52.00,71.41,0
67.00,70.71,0
44.00,69.74,0
55.00,68.44,0
41.00,66.80,0
36.00,64.77,0
68.00,62.59,0
36.00,60.58,0
33.00,58.48,0
47.00,56.18,0
41.00,53.97,0
53.00,52.01,0
56.00,50.47,0
52.00,49.43,0
57.00,48.80,0
55.00,48.54,0
65.00,48.65,0
101.00,49.48,0
81.00,51.36,0
75.00,53.88,0
56.00,56.39,0
97.00,58.77,0
68.00,61.27,0
84.00,63.76,0
68.00,66.06,0
67.00,67.99,0
70.00,69.46,0
71.00,70.58,0
46.00,71.22,0
56.00,71.17,0
44.00,70.44,0
44.00,69.10,0
64.00,67.43,0
42.00,65.70,0
53.00,63.87,0
51.00,62.02,0
50.00,60.25,0
43.00,58.52,0
34.00,56.68,0
74.00,54.93,0
36.00,53.59,0
42.00,52.36,0
48.00,51.07,0
58.00,50.02,0
50.00,49.35,0
70.00,49.08,0
71.00,49.41,0
75.00,50.40,0
86.00,52.02,0
72.00,54.18,0
80.00,56.58,0
72.00,59.06,0
84.00,61.53,0
66.00,63.90,0
82.00,66.05,0
102.00,68.25,0
83.00,70.72,0
68.00,73.04,0
73.00,74.80,0
72.00,76.03,0
103.00,77.09,0
49.00,78.06,0
45.00,78.24,0
75.00,77.57,0
65.00,76.64,0
37.00,75.41,0
73.00,73.73,0
36.00,71.83,0
39.00,69.53,0
61.00,66.92,0
40.00,64.39,0
34.00,61.78,0
47.00,59.04,0
47.00,56.46,0
64.00,54.32,0
47.00,52.73,0
57.00,51.56,0
68.00,50.86,0
68.00,50.80,0
76.00,51.39,0
64.00,52.48,0
106.00,54.14,0
66.00,56.44,0
81.00,58.96,0
73.00,61.40,0
67.00,63.67,0
51.00,65.41,0
130.00,67.05,0
35.00,68.95,0
43.00,70.12,0
72.00,70.29,0
60.00,70.14,0
46.00,69.67,0
99.00,69.09,0
66.00,68.93,0
41.00,68.77,0
64.00,68.13,0
38.00,67.11,0
39.00,65.59,0
90.00,63.96,0
39.00,62.75,0
54.00,61.58,0
65.00,60.41,0
71.00,59.63,0
50.00,59.19,0
72.00,58.91,0
79.00,59.01,0
62.00,59.54,0
121.00,60.65,0
72.00,62.61,0
113.00,65.14,0
80.00,68.05,0
100.00,71.08,0
72.00,73.95,0
139.00,76.84,0
62.00,79.91,0
61.00,82.27,0
73.00,83.47,0
61.00,83.84,0
86.00,83.67,0
82.00,83.38,0
78.00,83.11,0
47.00,82.52,0
47.00,81.14,0
47.00,78.95,0
77.00,76.49,0
67.00,74.30,0
58.00,72.40,0
37.00,70.39,0
39.00,67.94,0
48.00,65.18,0
50.00,62.46,0
42.00,59.89,0
47.00,57.46,0
75.00,55.45,0
49.00,54.12,0
69.00,53.33,0
109.00,53.41,0
96.00,54.88,0
82.00,57.36,0
65.00,60.04,0
81.00,62.50,0
66.00,64.74,0
78.00,66.70,0
102.00,68.66,0
66.00,70.75,0
64.00,72.47,0
92.00,73.74,0
73.00,74.92,0
68.00,75.87,0
70.00,76.39,0
63.00,76.50,0
62.00,76.19,0
39.00,75.31,0
62.00,73.82,0
94.00,72.37,0
37.00,71.25,0
35.00,69.72,0
57.00,67.61,0
38.00,65.31,0
38.00,62.82,0
49.00,60.20,0
44.00,57.71,0
67.00,55.59,0
36.00,53.91,0
52.00,52.44,0
55.00,51.19,0
94.00,50.66,0
88.00,51.32,0
102.00,53.19,0
67.00,55.81,0
69.00,58.48,0
79.00,60.92,0
74.00,63.25,0
53.00,65.25,0
83.00,66.78,0
60.00,68.04,0
110.00,69.34,0
41.00,70.68,0
71.00,71.54,0
103.00,72.18,0
71.00,73.17,0
92.00,74.28,0
60.00,75.28,0
69.00,75.87,0
74.00,76.06,0
48.00,75.88,0
63.00,75.16,0
59.00,74.06,0
40.00,72.59,0
44.00,70.59,0
52.00,68.22,0
85.00,66.09,0
72.00,64.72,0
75.00,64.04,0
48.00,63.65,0
62.00,63.16,0
69.00,62.70,0
48.00,62.33,0
93.00,62.12,0
80.00,62.50,0
183.00,64.31,0
78.00,67.88,0
116.00,72.12,0
84.00,76.22,0
60.00,79.66,0
80.00,81.98,0
102.00,83.69,0
68.00,85.13,0
59.00,85.86,0
103.00,85.97,0
92.00,86.17,0
45.00,86.21,0
36.00,85.18,0
51.00,82.95,0
133.00,80.77,0
51.00,79.48,0
55.00,78.28,0
45.00,76.48,0
74.00,74.39,0
52.00,72.36,0
73.00,70.51,0
40.00,68.74,0
67.00,66.93,0
42.00,65.14,0
85.00,63.57,0
146.00,63.23,0
72.00,64.60,0
101.00,66.73,0
115.00,69.36,0
79.00,72.46,0
101.00,75.52,0
62.00,78.19,0
94.00,80.26,0
70.00,81.83,0
79.00,82.90,0
60.00,83.35,0
63.00,83.11,0
96.00,82.51,0
42.00,81.78,0
62.00,80.52,0
60.00,78.77,0
70.00,76.91,0
45.00,74.99,0
48.00,72.77,0
37.00,70.14,0
39.00,67.17,0
58.00,64.11,0
45.00,61.33,0
34.00,58.69,0
76.00,56.31,0
38.00,54.49,0
74.00,53.17,0
90.00,52.69,0
53.00,53.11,0
55.00,53.75,0
63.00,54.33,0
72.00,55.07,0
98.00,56.32,0
59.00,58.12,0
56.00,59.81,0
77.00,61.17,0
71.00,62.50,0
81.00,63.92,0
85.00,65.52,0
128.00,67.71,0
72.00,70.54,0
71.00,73.19,0
56.00,75.03,0
69.00,76.02,0
71.00,76.45,0
55.00,76.46,0
42.00,75.77,0
48.00,74.28,0
40.00,72.17,0
38.00,69.55,0
47.00,66.61,0
42.00,63.61,0
48.00,60.71,0
40.00,57.97,0
38.00,55.34,0
59.00,52.96,0
42.00,51.04,0
60.00,49.57,0
46.00,48.53,0
56.00,47.86,0
95.00,47.86,0
77.00,48.95,0
70.00,50.80,0
77.00,52.95,0
104.00,55.54,0
102.00,58.88,0
79.00,62.66,0
86.00,66.33,0
76.00,69.63,0
72.00,72.39,0
146.00,75.13,0
71.00,78.31,0
98.00,81.34,0
68.00,83.71,0
59.00,85.18,0
60.00,85.50,0
58.00,84.89,0
67.00,83.62,0
37.00,81.78,0
60.00,79.34,0
34.00,76.45,0
47.00,73.17,0
51.00,69.74,0
35.00,66.35,0
43.00,62.93,0
45.00,59.63,0
59.00,56.73,0
48.00,54.40,0
64.00,52.63,0
37.00,51.31,0
62.00,50.27,0
123.00,50.15,0
53.00,51.39,0
88.00,53.26,0
68.00,55.37,0
77.00,57.63,0
58.00,59.76,0
88.00,61.72,0
84.00,63.80,0
82.00,66.06,0
85.00,68.34,0
85.00,70.60,0
63.00,72.62,0
103.00,74.34,0
87.00,76.14,0
71.00,77.86,0
38.00,78.81,0
97.00,78.94,0
42.00,78.69,0
43.00,77.76,0
49.00,75.94,0
36.00,73.50,0
64.00,70.76,0
54.00,68.14,0
40.00,65.64,0
35.00,62.97,0
53.00,60.21,0
50.00,57.70,0
60.00,55.64,0
73.00,54.25,0
44.00,53.46,0
63.00,52.94,0
92.00,52.97,0
48.00,53.68,0
88.00,54.72,0
84.00,56.25,0
70.00,58.25,0
56.00,60.15,0
79.00,61.77,0
60.00,63.23,0
78.00,64.53,0
67.00,65.72,0
65.00,66.75,0
58.00,67.43,0
127.00,68.26,0
46.00,69.59,0
85.00,70.82,0
70.00,71.77,0
49.00,72.39,0
56.00,72.32,0
108.00,72.10,0
44.00,72.15,0
39.00,71.76,0
69.00,70.65,0
43.00,69.29,0
59.00,67.74,0
46.00,66.04,0
57.00,64.28,0
51.00,62.56,0
82.00,61.18,0
56.00,60.34,0
38.00,59.63,0
51.00,58.63,0
68.00,57.66,0
73.00,57.16,0
76.00,57.28,0
73.00,57.94,0
69.00,58.93,0
92.00,60.24,0
108.00,62.23,0
47.00,64.61,0
78.00,66.60,0
76.00,68.22,0
52.00,69.52,0
71.00,70.29,0
92.00,70.91,0
87.00,71.87,0
79.00,73.08,0
70.00,74.18,0
61.00,74.88,0
61.00,75.02,0
60.00,74.66,0
36.00,73.70,0
43.00,71.98,0
78.00,69.96,0
61.00,68.25,0
42.00,66.70,0
90.00,65.25,0
44.00,64.20,0
36.00,63.04,0
74.00,61.65,0
55.00,60.53,0
56.00,59.66,0
68.00,58.97,0
65.00,58.62,0
68.00,58.61,0
83.00,59.01,0
71.00,59.89,0
103.00,61.29,0
66.00,63.16,0
90.00,65.18,0
72.00,67.19,0
108.00,69.32,0
74.00,71.64,0
84.00,73.84,0
74.00,75.69,0
74.00,77.12,0
68.00,78.05,0
70.00,78.49,0
81.00,78.62,0
45.00,78.40,0
60.00,77.56,0
40.00,76.05,0
42.00,73.89,0
51.00,71.25,0
35.00,68.37,0
34.00,65.20,0
40.00,61.80,0
35.00,58.42,0
40.00,55.15,0
61.00,52.30,0
49.00,50.15,0
66.00,48.71,0
35.00,47.80,0
64.00,47.18,0
88.00,47.22,0
48.00,48.07,0
90.00,49.40,0
77.00,51.30,0
106.00,53.95,0
114.00,57.52,0
85.00,61.80,0
70.00,65.93,0
169.00,70.15,0
69.00,74.97,0
96.00,79.49,0
68.00,83.01,0
94.00,85.64,0
46.00,87.30,0
39.00,87.54,0
76.00,86.49,0
36.00,84.70,0
68.00,82.33,0
93.00,79.99,0
57.00,78.15,0
41.00,76.21,0
74.00,73.98,0
51.00,71.82,0
43.00,69.62,0
70.00,67.35,0
51.00,65.33,0
49.00,63.47,0
110.00,62.09,0
81.00,61.88,0
55.00,62.38,0
78.00,62.93,0
69.00,63.57,0
110.00,64.65,0
67.00,66.27,0
82.00,68.00,0
79.00,69.63,0
79.00,71.20,0
57.00,72.47,0
44.00,73.00,0
162.00,73.53,0
97.00,75.33,0
46.00,77.54,0
73.00,78.83,0
104.00,79.64,0
70.00,80.53,0
42.00,80.91,0
59.00,80.29,0
35.00,78.78,0
48.00,76.48,0
45.00,73.67,0
57.00,70.71,0
79.00,68.09,0
100.00,66.45,0
62.00,65.82,0
50.00,65.44,0
60.00,64.81,0
43.00,63.96,0
76.00,63.03,0
155.00,63.13,0
85.00,65.03,0
59.00,67.49,0
80.00,69.48,0
70.00,71.08,0
76.00,72.39,0
103.00,73.68,0
98.00,75.36,0
68.00,77.19,0
61.00,78.46,0
75.00,79.03,0
64.00,79.11,0
76.00,78.87,0
46.00,78.24,0
62.00,77.08,0
74.00,75.67,0
35.00,74.12,0
77.00,72.32,0
87.00,70.85,0
60.00,69.95,0
71.00,69.26,0
73.00,68.71,0
48.00,68.22,0
56.00,67.44,0
75.00,66.57,0
46.00,65.79,0
47.00,64.79,0
73.00,63.65,0
82.00,62.95,0
77.00,62.94,0
67.00,63.35,0
40.00,63.64,0
67.00,63.53,0
111.00,63.70,0
87.00,64.83,0
106.00,66.78,0
78.00,69.17,0
49.00,71.28,0
47.00,72.36,0
80.00,72.64,0
78.00,72.80,0
69.00,73.04,0
71.00,73.18,0
58.00,73.09,0
90.00,72.89,0
95.00,73.08,0
66.00,73.67,0
54.00,74.00,0
75.00,73.87,0
54.00,73.45,0
57.00,72.69,0
87.00,71.82,0
58.00,71.17,0
43.00,70.36,0
96.00,69.40,0
60.00,68.81,0
46.00,68.25,0
58.00,67.31,0
36.00,66.00,0
52.00,64.33,0
47.00,62.48,0
70.00,60.80,0
54.00,59.50,0
50.00,58.43,0
75.00,57.57,0
62.00,57.19,0
148.00,57.88,0
39.00,59.76,0
66.00,61.63,0
70.00,63.01,0
59.00,64.16,0
116.00,65.43,0
202.00,68.30,0
78.00,73.17,0
36.00,77.70,0
70.00,80.40,0
40.00,81.57,0
68.00,81.57,0
83.00,81.01,0
75.00,80.46,0
44.00,79.68,0
41.00,78.14,0
101.00,76.25,0
58.00,74.79,0
55.00,73.45,0
40.00,71.73,0
53.00,69.60,0
35.00,67.18,0
56.00,64.61,0
37.00,62.03,0
81.00,59.77,0
55.00,58.17,0
82.00,57.29,0
42.00,56.89,0
60.00,56.57,0
128.00,56.86,0
59.00,58.31,0
104.00,60.37,0
50.00,62.56,0
93.00,64.61,0
88.00,66.71,0
55.00,68.78,0
91.00,70.47,0
121.00,72.38,0
74.00,74.81,0
62.00,76.91,0
52.00,78.04,0
56.00,78.15,0
73.00,77.61,0
115.00,77.25,0
79.00,77.58,0
67.00,78.07,0
74.00,78.24,0
37.00,77.86,0
72.00,76.82,0
58.00,75.46,0
59.00,73.97,0
35.00,72.15,0
62.00,69.95,0
62.00,67.79,0
43.00,65.81,0
69.00,63.92,0
39.00,62.18,0
54.00,60.47,0
102.00,59.23,0
44.00,58.82,0
84.00,58.84,0
70.00,59.23,0
62.00,59.94,0
99.00,60.92,0
140.00,62.94,0
66.00,66.08,0
86.00,69.24,0
71.00,71.91,0
122.00,74.45,0
43.00,76.88,0
118.00,78.88,0
70.00,80.67,0
58.00,81.98,0
73.00,82.40,0
44.00,82.05,0
80.00,81.06,0
41.00,79.66,0
59.00,77.78,0
41.00,75.43,0
79.00,72.97,0
36.00,70.62,0
42.00,68.10,0
73.00,65.53,0
40.00,63.30,0
38.00,61.08,0
110.00,59.25,0
82.00,58.70,0
38.00,58.94,0
78.00,59.13,0
113.00,59.84,0
99.00,61.76,0
56.00,64.20,0
66.00,66.22,0
123.00,68.14,0
82.00,70.61,0
40.00,72.85,0
80.00,74.15,0
121.00,75.34,0
73.00,77.01,0
46.00,78.33,0
48.00,78.50,0
100.00,78.03,0
86.00,77.86,0
48.00,77.80,0
36.00,76.97,0
40.00,75.11,0
38.00,72.49,0
58.00,69.55,0
82.00,66.96,0
41.00,64.95,0
40.00,62.96,0
40.00,60.70,0
53.00,58.40,0
43.00,56.29,0
96.00,54.77,0
78.00,54.39,0
36.00,54.68,0
98.00,55.14,0
83.00,56.27,0
93.00,58.23,0
110.00,60.92,0
68.00,64.10,0
72.00,67.02,0
86.00,69.49,0
63.00,71.61,0
81.00,73.27,0
127.00,75.02,0
67.00,77.19,0
132.00,79.54,0
67.00,81.98,0
166.00,84.70,0
56.00,87.72,0
65.00,89.95,0
68.00,90.76,0
94.00,90.82,0
58.00,90.45,0
43.00,89.28,0
54.00,87.07,0
36.00,84.07,0
43.00,80.40,0
40.00,76.29,0
58.00,72.14,0
36.00,68.19,0
38.00,64.32,0
38.00,60.49,0
51.00,56.94,0
55.00,53.98,0
37.00,51.57,0
70.00,49.69,0
77.00,48.70,0
75.00,48.82,0
115.00,50.12,0
72.00,52.57,0
56.00,55.29,0
83.00,57.74,0
67.00,60.08,0
95.00,62.45,0
58.00,64.79,0
74.00,66.78,0
129.00,68.85,0
68.00,71.46,0
38.00,73.59,0
72.00,74.56,0
132.00,75.43,0
93.00,77.14,0
45.00,78.89,0
62.00,79.64,0
37.00,79.28,0
62.00,78.01,0
70.00,76.37,0
57.00,74.75,0
42.00,72.90,0
67.00,70.82,0
51.00,68.76,0
62.00,66.84,0
63.00,65.14,0
37.00,63.55,0
69.00,61.94,0
124.00,61.15,0
125.00,62.19,0
44.00,64.38,0
76.00,66.31,0
35.00,67.49,0
94.00,68.14,0
70.00,68.80,0
92.00,69.73,0
55.00,70.69,0
80.00,71.41,0
69.00,71.94,0
60.00,72.26,0
51.00,72.10,0
85.00,71.64,0
120.00,71.75,0
50.00,72.55,0
35.00,72.87,0
67.00,72.25,0
65.00,71.33,0
55.00,70.35,0
116.00,69.69,0
73.00,69.86,0
34.00,70.13,0
87.00,69.90,0
38.00,69.44,0
31.00,68.40,0
50.00,66.59,0
54.00,64.54,0
46.00,62.53,0
76.00,60.78,0
60.00,59.56,0
72.00,58.89,0
53.00,58.56,0
56.00,58.30,0
54.00,57.99,0
69.00,57.76,0
66.00,57.81,0
149.00,58.83,0
71.00,61.27,0
78.00,64.14,0
116.00,67.04,0
54.00,70.04,0
63.00,72.38,0
151.00,74.50,0
57.00,77.13,0
76.00,79.39,0
70.00,80.80,0
46.00,81.36,0
85.00,81.13,0
35.00,80.35,0
63.00,78.91,0
38.00,76.84,0
42.00,74.23,0
54.00,71.25,0
48.00,68.27,0
40.00,65.31,0
36.00,62.26,0
58.00,59.29,0
111.00,57.24,0
47.00,56.50,0
108.00,56.65,0
77.00,57.70,0
52.00,59.19,0
90.00,60.61,0
82.00,62.28,0
65.00,64.12,0
60.00,65.64,0
98.00,66.97,0
108.00,68.77,0
72.00,71.06,0
72.00,73.13,0
66.00,74.62,0
52.00,75.41,0
48.00,75.30,0
110.00,74.87,0
91.00,75.03,0
124.00,76.12,0
76.00,77.86,0
63.00,79.42,0
50.00,80.05,0
45.00,79.60,0
64.00,78.32,0
37.00,76.49,0
51.00,74.12,0
63.00,71.54,0
87.00,69.40,0
51.00,67.86,0
50.00,66.43,0
72.00,64.98,0
38.00,63.66,0
78.00,62.41,0
105.00,61.87,0
117.00,62.76,0
88.00,64.91,0
68.00,67.37,0
78.00,69.51,0
54.00,71.14,0
103.00,72.41,0
36.00,73.43,0
66.00,73.76,0
63.00,73.49,0
56.00,72.90,0
64.00,72.02,0
105.00,71.36,0
66.00,71.31,0
69.00,71.44,0
64.00,71.39,0
41.00,70.96,0
51.00,69.92,0
37.00,68.30,0
42.00,66.20,0
71.00,63.99,0
54.00,62.17,0
51.00,60.62,0
38.00,59.05,0
44.00,57.32,0
38.00,55.46,0
67.00,53.77,0
35.00,52.41,0
63.00,51.30,0
91.00,50.84,0
62.00,51.35,0
73.00,52.42,0
63.00,53.74,0
56.00,55.07,0
60.00,56.20,0
92.00,57.42,0
87.00,59.18,0
127.00,61.80,0
73.00,65.19,0
63.00,68.39,0
70.00,70.79,0
75.00,72.56,0
85.00,74.03,0
77.00,75.36,0
47.00,76.25,0
46.00,76.19,0
63.00,75.30,0
46.00,73.93,0
46.00,72.11,0
63.00,70.00,0
43.00,67.86,0
39.00,65.55,0
49.00,63.02,0
38.00,60.47,0
37.00,57.87,0
52.00,55.33,0
35.00,53.02,0
56.00,50.99,0
36.00,49.27,0
68.00,47.96,0
88.00,47.52,0
41.00,47.98,0
39.00,48.46,0
63.00,48.74,0
73.00,49.30,0
59.00,50.32,0
157.00,52.30,0
85.00,55.86,0
93.00,60.20,0
56.00,64.21,0
75.00,67.44,0
54.00,69.82,0
90.00,71.58,0
53.00,72.92,0
72.00,73.74,0
68.00,74.13,0
53.00,74.12,0
65.00,73.64,0
76.00,72.98,0
63.00,72.38,0
57.00,71.67,0
77.00,70.86,0
36.00,69.95,0
39.00,68.49,0
53.00,66.50,0
35.00,64.27,0
50.00,61.88,0
45.00,59.51,0
79.00,57.55,0
94.00,56.62,0
87.00,56.96,0
65.00,58.10,0
60.00,59.33,0
57.00,60.31,0
67.00,61.05,0
65.00,61.71,0
81.00,62.47,0
61.00,63.36,0
73.00,64.22,0
75.00,65.08,0
59.00,65.92,0
141.00,67.14,0
47.00,69.04,0
70.00,70.73,0
78.00,71.86,0
48.00,72.62,0
66.00,72.77,0
60.00,72.47,0
51.00,71.81,0
35.00,70.56,0
62.00,68.79,0
56.00,66.95,0
61.00,65.28,0
44.00,63.69,0
52.00,62.03,0
48.00,60.34,0
82.00,58.97,0
62.00,58.23,0
38.00,57.77,0
61.00,57.15,0
73.00,56.72,0
64.00,56.75,0
50.00,56.98,0
67.00,57.17,0
57.00,57.42,0
75.00,57.83,0
93.00,58.71,0
78.00,60.24,0
86.00,62.19,0
60.00,64.17,0
77.00,65.89,0
55.00,67.25,0
104.00,68.46,0
91.00,70.04,0
82.00,71.97,0
57.00,73.63,0
82.00,74.76,0
44.00,75.34,0
79.00,75.34,0
36.00,74.81,0
41.00,73.52,0
58.00,71.56,0
44.00,69.37,0
52.00,67.05,0
67.00,64.85,0
51.00,62.99,0
36.00,61.18,0
48.00,59.20,0
70.00,57.41,0
44.00,56.07,0
58.00,54.98,0
76.00,54.29,0
57.00,54.18,0
55.00,54.33,0
61.00,54.53,0
69.00,54.91,0
38.00,55.35,0
56.00,55.51,0
77.00,55.68,0
72.00,56.30,0
53.00,57.17,0
85.00,58.11,0
78.00,59.40,0
61.00,60.90,0
56.00,62.15,0
64.00,63.01,0
49.00,63.49,0
56.00,63.57,0
66.00,63.40,0
38.00,63.04,0
52.00,62.28,0
53.00,61.26,0
41.00,60.11,0
95.00,59.14,0
37.00,58.67,0
35.00,58.05,0
51.00,56.98,0
46.00,55.78,0
60.00,54.71,0
48.00,53.86,0
59.00,53.21,0
61.00,52.83,0
71.00,52.87,0
86.00,53.54,0
71.00,54.89,0
66.00,56.52,0
74.00,58.19,0
62.00,59.81,0
88.00,61.42,0
74.00,63.20,0
67.00,64.96,0
79.00,66.53,0
113.00,68.31,0
78.00,70.57,0
68.00,72.73,0
59.00,74.23,0
66.00,75.00,0
36.00,74.98,0
93.00,74.40,0
56.00,73.79,0
47.00,72.98,0
61.00,71.69,0
36.00,70.04,0
38.00,67.87,0
86.00,65.62,0
38.00,63.79,0
36.00,61.93,0
50.00,59.79,0
44.00,57.67,0
52.00,55.73,0
63.00,54.15,0
54.00,53.08,0
56.00,52.38,0
91.00,52.25,0
62.00,52.90,0
78.00,54.07,0
67.00,55.53,0
81.00,57.22,0
85.00,59.22,0
91.00,61.60,0
81.00,64.25,0
96.00,67.03,0
63.00,69.69,0
79.00,71.91,0
128.00,74.09,0
139.00,77.23,0
71.00,81.00,0
54.00,83.95,0
46.00,85.28,0
43.00,85.05,0
53.00,83.60,0
41.00,81.30,0
48.00,78.38,0
42.00,75.05,0
48.00,71.53,0
50.00,68.04,0
35.00,64.66,0
37.00,61.25,0
53.00,57.97,0
39.00,55.06,0
46.00,52.50,0
67.00,50.45,0
47.00,49.10,0
46.00,48.17,0
100.00,47.84,0
38.00,48.37,0
87.00,49.34,0
62.00,50.71,0
95.00,52.60,0
46.00,54.76,0
141.00,57.30,0
46.00,60.42,0
98.00,63.53,0
66.00,66.34,0
49.00,68.59,0
106.00,70.26,0
134.00,72.48,0
80.00,75.52,0
132.00,78.85,0
59.00,82.11,0
54.00,84.38,0
77.00,85.32,0
68.00,85.50,0
60.00,85.07,0
48.00,83.88,0
92.00,82.25,0
36.00,80.50,0
37.00,78.17,0
45.00,75.09,0
107.00,72.20,0
37.00,70.07,0
97.00,68.43,0
64.00,67.36,0
46.00,66.56,0
70.00,65.62,0
44.00,64.64,0
69.00,63.63,0
71.00,62.85,0
50.00,62.34,0
96.00,62.09,0
77.00,62.49,0
72.00,63.39,0
68.00,64.37,0
56.00,65.16,0
44.00,65.46,0
184.00,66.23,0
53.00,68.49,0
37.00,70.65,0
81.00,71.67,0
35.00,72.01,0
54.00,71.58,0
43.00,70.43,0
68.00,68.95,0
42.00,67.37,0
43.00,65.55,0
34.00,63.34,0
48.00,60.88,0
48.00,58.48,0
56.00,56.37,0
41.00,54.56,0
83.00,53.22,0
58.00,52.62,0
36.00,52.37,0
69.00,52.10,0
54.00,52.05,0
68.00,52.32,0
144.00,53.54,0
74.00,56.26,0
80.00,59.54,0
59.00,62.49,0
90.00,65.04,0
70.00,67.38,0
109.00,69.74,0
56.00,72.07,0
82.00,73.96,0
62.00,75.28,0
75.00,76.13,0
77.00,76.64,0
72.00,76.98,0
94.00,77.30,0
38.00,77.46,0
36.00,76.71,0
40.00,74.84,0
56.00,72.37,0
76.00,69.98,0
63.00,68.09,0
46.00,66.45,0
36.00,64.59,0
48.00,62.42,0
66.00,60.34,0
51.00,58.67,0
39.00,57.18,0
75.00,55.84,0
52.00,54.97,0
63.00,54.49,0
66.00,54.33,0
78.00,54.68,0
74.00,55.58,0
73.00,56.90,0
115.00,58.79,0
42.00,61.14,0
89.00,63.29,0
83.00,65.33,0
68.00,67.39,0
72.00,69.14,0
74.00,70.54,0
71.00,71.68,0
35.00,72.25,0
75.00,72.08,0
47.00,71.48,0
68.00,70.63,0
35.00,69.45,0
55.00,67.85,0
55.00,66.04,0
55.00,64.31,0
100.00,63.05,0
48.00,62.51,0
34.00,61.94,0
50.00,60.82,0
127.00,60.12,0
40.00,60.44,0
55.00,60.85,0
46.00,60.77,0
61.00,60.42,0
68.00,60.10,0
69.00,60.08,0
121.00,60.77,0
61.00,62.37,0
72.00,64.11,0
55.00,65.47,0
104.00,66.70,0
73.00,68.21,0
129.00,70.23,0
51.00,72.60,0
145.00,75.11,0
77.00,77.98,0
50.00,80.47,0
76.00,81.79,0
47.00,82.14,0
68.00,81.66,0
37.00,80.42,0
39.00,78.30,0
82.00,75.73,0
38.00,73.27,0
35.00,70.57,0
50.00,67.50,0
37.00,64.35,0
75.00,61.47,0
71.00,59.39,0
93.00,58.40,0
63.00,58.38,0
68.00,58.80,0
115.00,59.77,0
38.00,61.31,0
65.00,62.58,0
63.00,63.38,0
78.00,64.11,0
36.00,64.66,0
76.00,64.81,0
76.00,64.96,0
71.00,65.40,0
73.00,65.98,0
79.00,66.68,0
87.00,67.64,0
71.00,68.81,0
49.00,69.72,0
53.00,69.95,0
162.00,70.43,0
66.00,72.14,0
48.00,73.88,0
59.00,74.58,0
36.00,74.33,0
55.00,73.21,0
71.00,71.75,0
114.00,70.83,0
50.00,70.67,0
60.00,70.47,0
48.00,69.80,0
37.00,68.58,0
34.00,66.67,0
43.00,64.25,0
66.00,61.82,0
82.00,60.05,0
39.00,58.94,0
46.00,57.86,0
87.00,56.92,0
57.00,56.62,0
77.00,56.81,0
57.00,57.29,0
66.00,57.88,0
46.00,58.36,0
70.00,58.68,0
107.00,59.41,0
39.00,60.66,0
79.00,61.78,0
62.00,62.74,0
71.00,63.66,0
44.00,64.30,0
116.00,64.93,0
43.00,65.90,0
60.00,66.63,0
81.00,67.00,0
44.00,67.26,0
62.00,67.14,0
36.00,66.52,0
73.00,65.55,0
49.00,64.56,0
56.00,63.55,0
48.00,62.40,0
38.00,61.03,0
76.00,59.63,0
49.00,58.57,0
49.00,57.67,0
58.00,56.78,0
80.00,56.25,0
47.00,56.17,0
60.00,56.20,0
57.00,56.21,0
66.00,56.34,0
71.00,56.73,0
68.00,57.43,0
99.00,58.58,0
68.00,60.28,0
90.00,62.26,0
59.00,64.25,0
102.00,66.20,0
71.00,68.25,0
98.00,70.38,0
40.00,72.20,0
94.00,73.45,0
74.00,74.47,0
65.00,75.32,0
56.00,75.63,0
39.00,75.14,0
60.00,73.88,0
49.00,72.20,0
47.00,70.22,0
64.00,68.11,0
60.00,66.19,0
49.00,64.47,0
127.00,63.39,0
78.00,63.62,0
40.00,64.36,0
61.00,64.61,0
38.00,64.31,0
75.00,63.70,0
81.00,63.36,0
74.00,63.58,0
59.00,64.02,0
62.00,64.34,0
80.00,64.63,0
56.00,65.01,0
97.00,65.54,0
41.00,66.18,0
76.00,66.59,0
66.00,66.84,0
66.00,67.09,0
56.00,67.15,0
70.00,67.03,0
89.00,67.08,0
83.00,67.64,0
84.00,68.62,0
52.00,69.61,0
60.00,70.10,0
42.00,69.93,0
54.00,69.12,0
75.00,68.08,0
40.00,67.05,0
36.00,65.64,0
129.00,64.38,0
96.00,64.54,0
40.00,65.51,0
58.00,66.01,0
41.00,65.83,0
51.00,65.10,0
58.00,64.05,0
75.00,63.14,0
41.00,62.41,0
72.00,61.69,0
100.00,61.46,0
84.00,62.20,0
109.00,63.81,0
49.00,65.83,0
57.00,67.37,0
63.00,68.18,0
82.00,68.72,0
70.00,69.32,0
80.00,69.98,0
63.00,70.59,0
32.00,70.69,0
72.00,70.07,0
39.00,69.07,0
57.00,67.72,0
86.00,66.44,0
58.00,65.65,0
36.00,64.84,0
61.00,63.66,0
77.00,62.61,0
37.00,61.82,0
70.00,61.00,0
56.00,60.28,0
52.00,59.68,0
42.00,58.93,0
40.00,57.86,0
35.00,56.44,0
118.00,55.37,0
36.00,55.28,0
55.00,55.40,0
89.00,55.60,0
50.00,56.25,0
79.00,57.10,0
58.00,58.06,0
74.00,59.09,0
43.00,59.98,0
110.00,60.90,0
43.00,62.12,0
68.00,63.17,0
81.00,64.03,0
82.00,65.15,0
72.00,66.46,0
77.00,67.76,0
80.00,69.04,0
36.00,69.99,0
69.00,70.22,0
37.00,69.83,0
59.00,68.89,0
42.00,67.53,0
52.00,65.88,0
56.00,64.12,0
86.00,62.72,0
79.00,62.13,0
67.00,62.19,0
46.00,62.33,0
44.00,62.05,0
58.00,61.37,0
42.00,60.49,0
63.00,59.53,0
40.00,58.54,0
69.00,57.61,0
99.00,57.28,0
77.00,57.98,0
74.00,59.30,0
71.00,60.79,0
77.00,62.33,0
51.00,63.73,0
167.00,65.54,0
44.00,68.28,0
155.00,71.49,0
90.00,75.23,0
50.00,78.77,0
78.00,81.07,0
51.00,82.26,0
74.00,82.54,0
56.00,82.13,0
34.00,80.93,0
52.00,78.80,0
54.00,76.16,0
43.00,73.31,0
51.00,70.31,0
91.00,67.65,0
44.00,65.69,0
57.00,63.98,0
77.00,62.51,0
36.00,61.36,0
41.00,60.04,0
48.00,58.42,0
47.00,56.77,0
61.00,55.33,0
83.00,54.48,0
62.00,54.42,0
127.00,55.33,0
58.00,57.29,0
42.00,59.24,0
61.00,60.44,0
144.00,61.90,0
70.00,64.42,0
113.00,67.48,0
82.00,70.70,0
73.00,73.70,0
63.00,75.95,0
66.00,77.34,0
68.00,78.01,0
120.00,78.61,0
71.00,79.59,0
48.00,80.28,0
57.00,80.00,0
54.00,78.92,0
65.00,77.40,0
76.00,75.84,0
36.00,74.23,0
62.00,72.29,0
113.00,70.68,0
