58.00,100.03,1
224.00,99.47,1
65.00,100.48,1
53.00,101.28,1
146.00,101.15,1
96.00,101.35,1
258.00,103.10,1
108.00,106.98,1
113.00,111.26,1
84.00,114.28,1
299.00,117.59,1
309.00,124.45,1
52.00,133.57,1
518.00,143.82,1
255.00,157.97,1
281.00,174.33,1
145.00,188.96,1
182.00,200.05,1
320.00,208.71,1
292.00,217.63,1
79.00,225.33,1
55.00,227.90,1
72.00,224.49,1
80.00,216.80,1
82.00,206.40,1
226.00,195.54,1
142.00,186.42,1
206.00,179.24,1
82.00,173.11,1
62.00,166.28,1
103.00,158.16,1
337.00,151.76,1
87.00,149.06,1
59.00,146.79,1
211.00,143.64,1
60.00,140.98,1
47.00,137.41,1
228.00,133.30,1
75.00,130.55,1
88.00,128.00,1
59.00,124.39,1
255.00,121.34,1
47.00,120.12,1
39.00,118.43,1
84.00,114.95,1
111.00,111.13,1
55.00,107.53,1
89.00,103.80,1
154.00,100.74,1
108.00,99.25,1
223.00,99.75,1
64.00,101.94,1
194.00,104.75,1
121.00,108.16,1
48.00,111.17,1
46.00,111.94,1
65.00,110.51,1
86.00,107.94,1
69.00,104.95,1
78.00,101.70,1
94.00,98.50,1
88.00,95.74,1
46.00,93.09,1
196.00,91.10,1
83.00,90.89,1
189.00,92.29,1
193.00,95.71,1
132.00,101.00,1
186.00,107.01,1
69.00,112.77,1
127.00,117.15,1
112.00,120.21,1
60.00,121.95,1
101.00,121.99,1
67.00,120.69,1
128.00,118.70,1
40.00,116.26,1
112.00,113.21,1
325.00,112.03,1
215.00,115.53,1
123.00,121.64,1
50.00,126.47,1
52.00,128.22,1
302.00,129.08,1
39.00,131.22,1
353.00,134.58,1
39.00,139.18,1
318.00,144.26,1
177.00,150.42,1
39.00,156.01,1
35.00,157.48,1
89.00,154.97,1
68.00,150.26,1
156.00,144.86,1
118.00,140.07,1
78.00,135.69,1
137.00,131.26,1
157.00,127.78,1
318.00,127.27,1
91.00,129.97,1
176.00,133.33,1
47.00,135.52,1
309.00,137.49,1
122.00,140.98,1
72.00,144.14,1
42.00,144.31,1
112.00,141.85,1
500.00,141.63,1
117.00,146.97,1
346.00,155.14,1
205.00,164.61,1
64.00,173.14,1
114.00,177.55,1
57.00,177.87,1
122.00,175.15,1
87.00,170.50,1
71.00,164.35,1
82.00,156.80,1
151.00,149.08,1
56.00,141.91,1
51.00,134.37,1
56.00,125.96,1
57.00,117.21,1
193.00,109.69,1
47.00,104.41,1
44.00,99.67,1
58.00,94.36,1
38.00,88.85,1
41.00,83.16,1
61.00,77.58,1
117.00,73.09,1
184.00,71.25,1
88.00,72.25,1
215.00,75.39,1
103.00,80.42,1
129.00,86.13,1
91.00,91.35,1
47.00,95.26,1
43.00,96.94,1
77.00,96.73,1
169.00,96.40,1
591.00,101.30,1
227.00,114.79,1
57.00,130.36,1
63.00,141.22,1
38.00,146.59,1
106.00,147.85,1
120.00,146.97,1
76.00,144.91,1
94.00,141.59,1
242.00,138.57,1
47.00,136.87,1
252.00,135.91,1
62.00,135.76,1
130.00,135.34,1
65.00,133.73,1
89.00,130.97,1
76.00,127.18,1
155.00,123.35,1
74.00,120.17,1
228.00,118.17,1
45.00,117.51,1
137.00,116.88,1
426.00,118.70,1
245.00,126.40,1
116.00,136.64,1
45.00,144.21,1
71.00,147.41,1
246.00,148.54,1
139.00,150.29,1
55.00,151.44,1
176.00,150.81,1
73.00,149.31,1
62.00,146.41,1
95.00,141.76,1
188.00,137.18,1
107.00,133.94,1
112.00,131.30,1
171.00,129.11,1
127.00,127.98,1
50.00,126.81,1
45.00,123.97,1
69.00,119.43,1
127.00,114.60,1
97.00,110.62,1
114.00,107.53,1
76.00,104.94,1
122.00,102.72,1
62.00,100.78,1
354.00,100.96,1
552.00,108.79,1
61.00,123.71,1
153.00,137.80,1
61.00,147.46,1
74.00,152.81,1
44.00,153.88,1
296.00,153.39,1
258.00,155.34,1
185.00,159.95,1
120.00,164.34,1
168.00,167.14,1
43.00,167.85,1
158.00,166.25,1
383.00,165.68,1
81.00,168.10,1
274.00,171.15,1
397.00,176.33,1
124.00,184.26,1
79.00,190.17,1
51.00,191.08,1
219.00,188.75,1
37.00,185.08,1
89.00,179.30,1
53.00,171.18,1
48.00,161.35,1
73.00,150.33,1
328.00,141.30,1
44.00,136.19,1
60.00,131.73,1
117.00,126.29,1
122.00,121.43,1
135.00,117.83,1
136.00,115.56,1
64.00,113.91,1
140.00,112.23,1
142.00,111.26,1
48.00,110.75,1
68.00,109.20,1
62.00,106.45,1
74.00,103.04,1
38.00,99.07,1
62.00,94.53,1
83.00,89.99,1
60.00,85.93,1
55.00,82.15,1
38.00,78.27,1
67.00,74.37,1
43.00,70.72,1
40.00,67.21,1
61.00,63.84,1
35.00,60.79,1
148.00,58.77,1
94.00,58.81,1
53.00,60.14,1
64.00,61.34,1
86.00,62.43,1
72.00,63.74,1
126.00,65.58,1
73.00,68.09,1
55.00,70.44,1
82.00,72.09,1
127.00,73.83,1
39.00,75.80,1
99.00,77.30,1
58.00,78.32,1
50.00,78.70,1
72.00,78.27,1
52.00,77.40,1
82.00,76.30,1
53.00,75.17,1
37.00,73.68,1
101.00,71.99,1
37.00,70.60,1
145.00,69.87,1
66.00,70.26,1
78.00,71.17,1
57.00,71.81,1
56.00,71.97,1
122.00,72.12,1
153.00,73.62,1
171.00,77.28,1
195.00,83.23,1
155.00,90.93,1
51.00,98.38,1
274.00,105.18,1
134.00,112.95,1
148.00,120.83,1
165.00,127.74,1
184.00,134.24,1
154.00,140.43,1
102.00,145.40,1
122.00,148.32,1
86.00,149.20,1
72.00,147.97,1
66.00,144.58,1
238.00,140.87,1
265.00,140.07,1
45.00,141.53,1
420.00,144.39,1
158.00,150.40,1
51.00,156.50,1
44.00,158.44,1
119.00,156.80,1
237.00,154.66,1
42.00,153.17,1
353.00,152.56,1
61.00,153.75,1
230.00,155.41,1
81.00,156.51,1
78.00,156.03,1
40.00,152.74,1
230.00,148.37,1
123.00,145.31,1
65.00,142.65,1
60.00,138.48,1
138.00,133.39,1
81.00,128.56,1
195.00,124.73,1
430.00,125.15,1
39.00,130.42,1
71.00,134.89,1
326.00,138.03,1
160.00,143.18,1
46.00,148.07,1
54.00,149.41,1
221.00,148.61,1
83.00,147.87,1
182.00,147.12,1
362.00,148.39,1
269.00,154.19,1
76.00,161.58,1
65.00,165.88,1
90.00,166.07,1
98.00,163.55,1
126.00,159.63,1
120.00,155.24,1
225.00,151.66,1
112.00,149.56,1
69.00,147.30,1
216.00,144.56,1
52.00,142.27,1
88.00,139.19,1
419.00,137.61,1
108.00,140.40,1
164.00,144.49,1
61.00,146.91,1
106.00,147.11,1
164.00,146.02,1
238.00,145.91,1
98.00,147.12,1
57.00,147.23,1
238.00,146.15,1
114.00,145.86,1
161.00,146.00,1
123.00,145.90,1
67.00,144.90,1
78.00,142.12,1
109.00,138.04,1
58.00,133.29,1
252.00,129.21,1
160.00,127.81,1
348.00,130.17,1
66.00,135.28,1
91.00,139.41,1
109.00,140.88,1
46.00,140.28,1
110.00,137.77,1
48.00,133.90,1
183.00,129.75,1
93.00,126.50,1
38.00,123.20,1
180.00,119.51,1
122.00,117.05,1
95.00,115.61,1
145.00,114.47,1
82.00,113.68,1
87.00,112.59,1
82.00,110.83,1
44.00,108.25,1
343.00,106.95,1
64.00,109.01,1
41.00,111.21,1
92.00,111.17,1
164.00,110.68,1
127.00,111.17,1
141.00,112.50,1
168.00,114.56,1
119.00,117.27,1
53.00,119.25,1
115.00,119.62,1
226.00,120.16,1
54.00,121.73,1
53.00,122.09,1
65.00,120.21,1
61.00,116.79,1
266.00,114.08,1
62.00,113.66,1
135.00,113.94,1
95.00,113.92,1
36.00,113.11,1
116.00,111.08,1
196.00,109.69,1
101.00,110.05,1
50.00,110.39,1
96.00,109.45,1
100.00,107.94,1
66.00,106.21,1
116.00,104.26,1
116.00,102.75,1
76.00,101.71,1
73.00,100.38,1
39.00,98.20,1
88.00,95.25,1
35.00,91.93,1
170.00,89.08,1
37.00,87.38,1
121.00,86.22,1
57.00,85.26,1
49.00,84.06,1
68.00,82.21,1
85.00,80.31,1
46.00,78.56,1
66.00,76.64,1
195.00,75.72,1
71.00,76.89,1
78.00,78.68,1
97.00,80.11,1
77.00,81.44,1
82.00,82.51,1
271.00,84.83,1
103.00,89.78,1
207.00,96.23,1
71.00,102.81,1
186.00,108.85,1
164.00,114.85,1
35.00,120.16,1
59.00,122.63,1
42.00,122.04,1
116.00,119.67,1
73.00,116.78,1
100.00,113.71,1
39.00,110.18,1
42.00,105.67,1
124.00,100.78,1
56.00,96.60,1
60.00,92.67,1
38.00,88.38,1
61.00,83.82,1
41.00,79.23,1
59.00,74.79,1
136.00,71.39,1
39.00,69.52,1
112.00,68.48,1
126.00,68.67,1
94.00,70.34,1
38.00,72.19,1
46.00,72.98,1
81.00,72.91,1
114.00,73.11,1
47.00,73.79,1
124.00,74.61,1
96.00,76.01,1
124.00,78.20,1
50.00,80.53,1
64.00,82.03,1
92.00,82.68,1
84.00,83.19,1
51.00,83.39,1
38.00,82.64,1
43.00,80.73,1
225.00,79.50,1
102.00,80.86,1
72.00,83.37,1
42.00,84.90,1
67.00,85.11,1
38.00,84.20,1
151.00,83.16,1
77.00,83.06,1
110.00,83.68,1
133.00,84.95,1
170.00,87.62,1
73.00,91.26,1
94.00,94.41,1
55.00,96.28,1
109.00,97.10,1
88.00,97.50,1
126.00,97.97,1
150.00,99.15,1
66.00,100.83,1
125.00,102.14,1
60.00,102.87,1
65.00,102.59,1
164.00,101.91,1
52.00,101.70,1
50.00,100.80,1
54.00,98.46,1
285.00,97.09,1
46.00,98.38,1
50.00,99.63,1
107.00,99.39,1
57.00,98.57,1
40.00,96.82,1
95.00,94.21,1
59.00,91.49,1
43.00,88.51,1
104.00,85.38,1
106.00,83.13,1
37.00,81.59,1
81.00,79.87,1
202.00,79.25,1
127.00,81.19,1
70.00,84.34,1
44.00,86.51,1
46.00,86.98,1
182.00,87.09,1
113.00,88.62,1
71.00,90.81,1
204.00,93.27,1
113.00,96.96,1
64.00,100.65,1
163.00,103.45,1
52.00,105.82,1
110.00,107.24,1
69.00,107.59,1
87.00,107.06,1
54.00,105.58,1
129.00,103.64,1
54.00,101.76,1
42.00,99.27,1
150.00,96.47,1
69.00,94.55,1
173.00,93.80,1
64.00,94.10,1
71.00,94.30,1
98.00,93.82,1
86.00,93.28,1
135.00,93.14,1
131.00,93.98,1
52.00,95.23,1
105.00,95.83,1
110.00,96.20,1
83.00,96.66,1
64.00,96.63,1
67.00,95.70,1
199.00,95.11,1
64.00,95.91,1
66.00,96.59,1
54.00,95.98,1
57.00,94.24,1
130.00,92.27,1
86.00,91.05,1
61.00,90.11,1
160.00,89.47,1
54.00,89.62,1
60.00,89.48,1
111.00,88.76,1
114.00,88.56,1
114.00,89.22,1
102.00,90.45,1
54.00,91.48,1
141.00,92.13,1
40.00,92.68,1
102.00,92.71,1
74.00,92.30,1
127.00,92.05,1
213.00,93.30,1
101.00,96.58,1
114.00,100.26,1
75.00,103.08,1
83.00,104.68,1
121.00,105.42,1
113.00,106.12,1
90.00,106.76,1
132.00,107.22,1
36.00,107.25,1
60.00,105.90,1
88.00,103.39,1
39.00,100.34,1
76.00,96.69,1
52.00,92.72,1
122.00,89.14,1
155.00,87.21,1
52.00,86.87,1
111.00,86.79,1
107.00,87.01,1
44.00,87.36,1
60.00,86.84,1
93.00,85.70,1
265.00,86.23,1
146.00,90.14,1
109.00,95.67,1
56.00,100.17,1
147.00,103.32,1
101.00,106.03,1
59.00,107.95,1
101.00,108.48,1
164.00,108.81,1
114.00,109.96,1
101.00,111.28,1
142.00,112.39,1
72.00,113.29,1
77.00,113.23,1
116.00,112.26,1
60.00,110.85,1
231.00,109.98,1
162.00,111.35,1
151.00,114.57,1
239.00,119.06,1
64.00,124.28,1
58.00,127.64,1
110.00,128.35,1
57.00,127.41,1
70.00,124.88,1
54.00,120.89,1
40.00,115.65,1
38.00,109.27,1
40.00,102.11,1
278.00,96.57,1
65.00,94.62,1
72.00,93.98,1
80.00,92.78,1
194.00,92.33,1
101.00,93.65,1
73.00,95.43,1
133.00,96.77,1
179.00,98.87,1
104.00,102.13,1
41.00,104.77,1
57.00,105.29,1
113.00,104.42,1
64.00,103.17,1
133.00,101.90,1
168.00,101.68,1
53.00,102.48,1
163.00,103.31,1
80.00,104.32,1
59.00,104.80,1
141.00,104.50,1
89.00,104.36,1
103.00,104.30,1
41.00,103.58,1
70.00,101.69,1
73.00,99.00,1
79.00,96.12,1
97.00,93.45,1
55.00,91.05,1
45.00,88.30,1
68.00,85.03,1
64.00,81.77,1
100.00,79.03,1
85.00,77.22,1
87.00,76.25,1
231.00,77.05,1
76.00,80.28,1
132.00,84.37,1
45.00,87.87,1
47.00,89.84,1
133.00,90.60,1
194.00,92.37,1
116.00,95.93,1
44.00,99.36,1
61.00,100.87,1
58.00,100.55,1
179.00,99.91,1
123.00,100.57,1
104.00,102.12,1
64.00,103.20,1
110.00,103.42,1
148.00,103.75,1
218.00,105.75,1
104.00,109.47,1
79.00,112.85,1
82.00,114.53,1
36.00,114.31,1
67.00,112.17,1
89.00,108.99,1
59.00,105.47,1
148.00,102.24,1
118.00,100.31,1
68.00,99.28,1
107.00,98.20,1
41.00,96.80,1
192.00,95.69,1
54.00,95.64,1
39.00,95.24,1
75.00,93.51,1
54.00,91.10,1
81.00,88.44,1
51.00,85.69,1
78.00,82.93,1
135.00,80.91,1
201.00,81.25,1
105.00,84.15,1
126.00,88.03,1
63.00,91.53,1
41.00,93.57,1
48.00,93.62,1
98.00,92.50,1
67.00,91.16,1
44.00,89.40,1
40.00,86.71,1
108.00,83.72,1
209.00,82.52,1
113.00,84.17,1
96.00,87.05,1
98.00,89.70,1
51.00,91.57,1
53.00,92.05,1
41.00,90.99,1
182.00,89.79,1
79.00,89.93,1
87.00,90.60,1
38.00,90.51,1
58.00,89.28,1
134.00,87.76,1
94.00,87.19,1
64.00,87.06,1
65.00,86.44,1
140.00,85.88,1
91.00,86.22,1
35.00,86.58,1
56.00,85.78,1
138.00,84.69,1
74.00,84.43,1
93.00,84.57,1
37.00,84.34,1
89.00,83.48,1
52.00,82.27,1
124.00,81.25,1
81.00,80.95,1
47.00,80.80,1
109.00,80.36,1
159.00,80.89,1
203.00,83.84,1
77.00,88.61,1
103.00,93.11,1
163.00,97.14,1
39.00,100.86,1
152.00,103.60,1
80.00,105.75,1
108.00,107.36,1
78.00,108.10,1
134.00,108.39,1
57.00,108.35,1
40.00,107.10,1
38.00,104.03,1
83.00,99.91,1
113.00,96.08,1
47.00,92.95,1
52.00,89.63,1
44.00,85.75,1
54.00,81.58,1
50.00,77.37,1
48.00,73.29,1
41.00,69.30,1
39.00,65.38,1
77.00,61.85,1
38.00,59.04,1
96.00,57.00,1
133.00,56.58,1
107.00,58.29,1
46.00,60.91,1
99.00,63.36,1
127.00,66.19,1
61.00,69.57,1
61.00,72.40,1
44.00,74.02,1
68.00,74.60,1
40.00,74.38,1
62.00,73.49,1
124.00,72.76,1
69.00,72.94,1
105.00,73.71,1
93.00,74.93,1
44.00,76.14,1
79.00,76.70,1
60.00,76.75,1
34.00,76.17,1
44.00,74.62,1
50.00,72.39,1
63.00,70.02,1
59.00,67.84,1
87.00,66.16,1
89.00,65.35,1
184.00,66.28,1
38.00,68.93,1
119.00,71.79,1
83.00,74.55,1
137.00,77.70,1
95.00,81.25,1
80.00,84.62,1
115.00,87.45,1
129.00,90.34,1
59.00,93.12,1
58.00,94.68,1
102.00,95.03,1
36.00,94.62,1
127.00,93.66,1
68.00,92.80,1
85.00,91.95,1
44.00,90.59,1
35.00,88.28,1
43.00,84.88,1
226.00,82.36,1
107.00,82.73,1
43.00,84.28,1
142.00,85.45,1
39.00,86.53,1
38.00,86.63,1
46.00,85.18,1
79.00,82.99,1
71.00,80.85,1
49.00,78.78,1
75.00,76.62,1
51.00,74.51,1
73.00,72.51,1
106.00,71.10,1
81.00,70.70,1
40.00,70.61,1
168.00,70.92,1
57.00,72.39,1
115.00,74.39,1
85.00,76.54,1
105.00,78.86,1
72.00,81.05,1
99.00,82.91,1
86.00,84.53,1
144.00,86.39,1
162.00,89.39,1
40.00,92.92,1
84.00,95.23,1
65.00,96.08,1
40.00,95.64,1
36.00,93.64,1
68.00,90.51,1
34.00,86.83,1
89.00,83.02,1
63.00,79.66,1
40.00,76.57,1
69.00,73.45,1
77.00,70.76,1
40.00,68.54,1
93.00,66.66,1
72.00,65.50,1
49.00,64.81,1
145.00,64.76,1
73.00,65.99,1
39.00,67.47,1
96.00,68.40,1
54.00,69.20,1
42.00,69.55,1
40.00,68.99,1
103.00,68.13,1
64.00,67.79,1
77.00,67.85,1
142.00,68.63,1
90.00,70.69,1
34.00,72.86,1
71.00,74.00,1
169.00,75.27,1
35.00,77.44,1
91.00,79.25,1
39.00,80.11,1
128.00,80.56,1
73.00,81.29,1
63.00,81.94,1
93.00,82.14,1
60.00,82.12,1
70.00,81.73,1
118.00,81.35,1
70.00,81.49,1
63.00,81.56,1
47.00,80.91,1
129.00,80.11,1
46.00,79.76,1
118.00,79.66,1
68.00,79.84,1
38.00,79.75,1
141.00,79.40,1
38.00,79.46,1
108.00,79.57,1
72.00,79.72,1
91.00,80.03,1
128.00,80.79,1
50.00,81.97,1
71.00,82.63,1
54.00,82.43,1
57.00,81.50,1
67.00,80.04,1
78.00,78.51,1
50.00,77.00,1
89.00,75.52,1
62.00,74.29,1
244.00,74.70,1
103.00,77.96,1
150.00,82.81,1
74.00,87.71,1
45.00,91.36,1
80.00,93.14,1
74.00,93.70,1
80.00,93.58,1
112.00,93.25,1
105.00,93.31,1
228.00,94.80,1
113.00,98.39,1
116.00,102.58,1
37.00,105.52,1
172.00,107.26,1
69.00,108.75,1
95.00,109.64,1
124.00,109.84,1
72.00,109.80,1
67.00,108.89,1
123.00,107.32,1
103.00,106.02,1
61.00,104.75,1
38.00,102.49,1
38.00,98.84,1
50.00,94.16,1
158.00,89.94,1
68.00,87.34,1
69.00,85.48,1
51.00,83.36,1
45.00,80.76,1
92.00,78.05,1
46.00,75.69,1
60.00,73.40,1
74.00,71.22,1
115.00,69.88,1
87.00,69.80,1
151.00,71.08,1
122.00,73.92,1
76.00,77.54,1
177.00,81.45,1
92.00,86.05,1
119.00,90.66,1
116.00,94.86,1
98.00,98.62,1
119.00,101.78,1
40.00,103.92,1
106.00,104.62,1
55.00,104.23,1
35.00,102.53,1
60.00,99.38,1
112.00,95.90,1
38.00,92.74,1
42.00,89.18,1
50.00,84.95,1
158.00,81.41,1
40.00,79.38,1
47.00,77.58,1
76.00,75.37,1
44.00,73.21,1
38.00,70.81,1
52.00,68.07,1
79.00,65.56,1
44.00,63.59,1
93.00,62.14,1
45.00,61.26,1
131.00,61.16,1
106.00,62.48,1
135.00,65.39,1
177.00,70.01,1
88.00,75.96,1
69.00,81.46,1
69.00,85.39,1
40.00,87.60,1
54.00,88.06,1
73.00,87.31,1
82.00,86.18,1
68.00,84.99,1
140.00,84.24,1
113.00,84.70,1
52.00,85.71,1
90.00,86.18,1
60.00,86.10,1
60.00,85.42,1
58.00,84.04,1
46.00,82.04,1
81.00,79.73,1
57.00,77.52,1
87.00,75.61,1
62.00,74.08,1
134.00,73.32,1
64.00,73.59,1
84.00,74.22,1
159.00,75.48,1
148.00,78.53,1
78.00,82.66,1
49.00,85.99,1
131.00,88.21,1
44.00,89.91,1
135.00,91.15,1
64.00,92.21,1
89.00,92.87,1
146.00,93.51,1
202.00,95.72,1
127.00,99.84,1
59.00,103.94,1
93.00,106.41,1
187.00,108.33,1
88.00,110.80,1
48.00,112.41,1
44.00,111.81,1
40.00,109.09,1
45.00,104.80,1
99.00,99.98,1
90.00,95.75,1
143.00,92.87,1
39.00,91.05,1
102.00,89.32,1
63.00,87.59,1
127.00,86.31,1
60.00,85.59,1
97.00,85.07,1
48.00,84.35,1
57.00,83.08,1
48.00,81.10,1
66.00,78.72,1
79.00,76.45,1
101.00,74.88,1
36.00,73.83,1
73.00,72.63,1
50.00,71.23,1
79.00,69.89,1
56.00,68.74,1
167.00,68.56,1
218.00,71.20,1
58.00,76.32,1
126.00,81.49,1
66.00,85.84,1
44.00,88.79,1
47.00,89.75,1
78.00,89.29,1
44.00,88.02,1
66.00,86.06,1
68.00,83.74,1
39.00,81.19,1
90.00,78.52,1
80.00,76.37,1
46.00,74.65,1
110.00,73.22,1
117.00,72.88,1
64.00,73.60,1
64.00,74.26,1
96.00,74.69,1
114.00,75.60,1
71.00,77.06,1
152.00,79.01,1
172.00,82.40,1
156.00,87.66,1
69.00,93.33,1
85.00,97.69,1
36.00,100.05,1
133.00,100.92,1
63.00,101.26,1
118.00,101.29,1
114.00,101.38,1
128.00,102.01,1
79.00,102.84,1
61.00,102.93,1
38.00,101.55,1
68.00,98.84,1
62.00,95.45,1
144.00,92.50,1
58.00,90.58,1
43.00,88.63,1
76.00,86.03,1
59.00,83.31,1
111.00,81.00,1
99.00,79.72,1
72.00,79.26,1
94.00,79.09,1
53.00,78.92,1
251.00,79.93,1
67.00,83.19,1
115.00,87.05,1
150.00,90.81,1
110.00,94.99,1
57.00,98.56,1
63.00,100.38,1
59.00,100.42,1
55.00,99.07,1
37.00,96.46,1
72.00,92.92,1
101.00,89.49,1
159.00,87.52,1
127.00,87.65,1
112.00,89.20,1
76.00,90.96,1
55.00,91.93,1
62.00,91.67,1
62.00,90.43,1
46.00,88.41,1
34.00,85.50,1
169.00,82.81,1
42.00,81.45,1
51.00,80.24,1
51.00,78.28,1
115.00,76.41,1
200.00,76.45,1
104.00,79.07,1
116.00,82.79,1
177.00,87.13,1
59.00,91.92,1
146.00,96.17,1
167.00,100.51,1
120.00,105.45,1
102.00,109.93,1
46.00,112.75,1
33.00,113.02,1
127.00,111.47,1
154.00,110.24,1
63.00,109.79,1
49.00,108.53,1
67.00,105.86,1
136.00,102.97,1
47.00,100.56,1
45.00,97.67,1
84.00,94.06,1
79.00,90.63,1
51.00,87.45,1
156.00,84.93,1
243.00,85.23,1
80.00,88.59,1
46.00,91.93,1
65.00,93.40,1
172.00,94.30,1
76.00,95.89,1
69.00,97.18,1
73.00,97.32,1
143.00,97.16,1
44.00,97.16,1
38.00,96.16,1
52.00,93.61,1
81.00,90.42,1
127.00,87.82,1
151.00,86.98,1
100.00,87.85,1
93.00,89.27,1
165.00,91.14,1
43.00,93.40,1
64.00,94.63,1
172.00,95.26,1
36.00,96.27,1
56.00,96.34,1
73.00,95.04,1
59.00,93.07,1
62.00,90.59,1
77.00,87.85,1
42.00,85.01,1
68.00,81.93,1
84.00,79.04,1
68.00,76.75,1
137.00,75.43,1
124.00,75.80,1
41.00,77.08,1
40.00,77.54,1
70.00,76.89,1
144.00,76.53,1
81.00,77.38,1
172.00,79.43,1
137.00,83.01,1
43.00,87.05,1
100.00,89.90,1
74.00,91.72,1
34.00,92.40,1
44.00,91.38,1
78.00,89.25,1
43.00,86.68,1
67.00,83.76,1
40.00,80.57,1
98.00,77.50,1
66.00,75.11,1
211.00,74.47,1
58.00,76.04,1
38.00,77.75,1
61.00,78.08,1
79.00,77.72,1
48.00,77.09,1
47.00,75.89,1
61.00,74.15,1
124.00,72.80,1
113.00,72.87,1
93.00,74.18,1
98.00,76.02,1
63.00,77.82,1
111.00,79.38,1
116.00,81.26,1
113.00,83.77,1
68.00,86.30,1
78.00,88.07,1
68.00,88.90,1
55.00,88.82,1
109.00,88.20,1
246.00,89.10,1
118.00,92.82,1
107.00,97.43,1
92.00,101.23,1
36.00,103.46,1
56.00,103.56,1
127.00,102.47,1
61.00,101.32,1
159.00,100.46,1
73.00,100.24,1
110.00,100.18,1
36.00,99.55,1
60.00,97.76,1
71.00,95.06,1
73.00,92.13,1
41.00,88.99,1
65.00,85.47,1
146.00,82.60,1
156.00,81.93,1
176.00,83.99,1
104.00,87.83,1
46.00,91.39,1
87.00,93.40,1
42.00,94.01,1
45.00,93.15,1
52.00,90.91,1
160.00,88.76,1
88.00,88.00,1
79.00,87.94,1
38.00,87.33,1
124.00,86.28,1
84.00,85.70,1
42.00,85.18,1
93.00,84.12,1
127.00,83.48,1
39.00,83.43,1
116.00,83.29,1
71.00,83.25,1
61.00,83.11,1
54.00,82.29,1
39.00,80.66,1
55.00,78.29,1
59.00,75.61,1
62.00,73.02,1
56.00,70.61,1
108.00,68.78,1
49.00,67.77,1
49.00,66.87,1
164.00,66.54,1
68.00,67.77,1
146.00,70.15,1
105.00,73.50,1
94.00,77.33,1
101.00,80.94,1
104.00,84.32,1
57.00,87.12,1
99.00,88.99,1
46.00,89.95,1
119.00,90.26,1
42.00,90.21,1
134.00,89.97,1
87.00,90.10,1
127.00,90.82,1
61.00,91.69,1
108.00,92.27,1
114.00,92.89,1
59.00,93.55,1
83.00,93.56,1
102.00,93.17,1
54.00,92.62,1
85.00,91.56,1
37.00,89.89,1
87.00,87.68,1
80.00,85.50,1
77.00,83.69,1
68.00,82.05,1
118.00,80.83,1
62.00,80.25,1
76.00,79.80,1
71.00,79.16,1
102.00,78.71,1
72.00,78.63,1
131.00,79.09,1
151.00,80.86,1
40.00,83.45,1
181.00,86.06,1
105.00,89.41,1
173.00,93.67,1
56.00,97.99,1
166.00,101.77,1
64.00,105.01,1
100.00,107.26,1
150.00,108.85,1
101.00,110.60,1
64.00,111.71,1
50.00,111.16,1
52.00,108.85,1
57.00,105.23,1
41.00,100.70,1
68.00,95.63,1
201.00,91.74,1
36.00,89.95,1
67.00,88.42,1
80.00,86.40,1
105.00,84.75,1
36.00,83.39,1
141.00,82.23,1
101.00,82.10,1
40.00,82.44,1
81.00,82.13,1
66.00,81.40,1
88.00,80.65,1
76.00,80.03,1
102.00,79.75,1
145.00,80.41,1
40.00,81.84,1
85.00,82.78,1
106.00,83.37,1
150.00,84.77,1
106.00,87.26,1
153.00,90.53,1
48.00,93.82,1
40.00,95.60,1
74.00,95.45,1
79.00,94.39,1
45.00,92.74,1
61.00,90.32,1
77.00,87.51,1
43.00,84.61,1
100.00,81.78,1
57.00,79.41,1
131.00,77.84,1
91.00,77.47,1
45.00,77.58,1
120.00,77.59,1
84.00,78.08,1
127.00,79.31,1
76.00,81.05,1
86.00,82.71,1
64.00,83.82,1
87.00,84.37,1
96.00,84.77,1
39.00,84.89,1
94.00,84.39,1
78.00,83.73,1
52.00,82.96,1
141.00,82.31,1
112.00,82.78,1
64.00,83.96,1
91.00,84.82,1
107.00,85.58,1
84.00,86.55,1
130.00,87.77,1
92.00,89.40,1
70.00,90.86,1
52.00,91.32,1
73.00,90.67,1
79.00,89.47,1
88.00,88.24,1
53.00,86.93,1
128.00,85.72,1
133.00,85.63,1
60.00,86.48,1
127.00,87.41,1
100.00,88.65,1
63.00,89.89,1
39.00,90.04,1
63.00,88.86,1
99.00,87.22,1
42.00,85.58,1
37.00,83.33,1
55.00,80.27,1
184.00,78.03,1
37.00,77.58,1
54.00,77.25,1
74.00,76.25,1
77.00,75.28,1
64.00,74.47,1
43.00,73.43,1
39.00,71.78,1
56.00,69.62,1
149.00,68.15,1
62.00,68.23,1
70.00,68.88,1
87.00,69.49,1
57.00,70.14,1
80.00,70.63,1
49.00,70.87,1
77.00,70.82,1
84.00,70.81,1
62.00,71.00,1
45.00,70.88,1
102.00,70.55,1
136.00,71.14,1
116.00,73.30,1
170.00,76.99,1
67.00,81.56,1
44.00,85.22,1
83.00,87.13,1
83.00,88.11,1
81.00,88.67,1
173.00,89.63,1
107.00,91.81,1
139.00,94.79,1
83.00,97.79,1
80.00,100.01,1
41.00,100.74,1
82.00,99.98,1
40.00,98.10,1
92.00,95.53,1
40.00,92.59,1
93.00,89.49,1
89.00,86.77,1
105.00,84.95,1
59.00,83.72,1
71.00,82.45,1
76.00,81.05,1
83.00,79.83,1
44.00,78.63,1
159.00,77.84,1
104.00,78.54,1
98.00,80.33,1
60.00,82.00,1
78.00,83.02,1
126.00,83.87,1
92.00,85.22,1
95.00,86.78,1
101.00,88.27,1
142.00,90.11,1
74.00,92.32,1
114.00,94.29,1
73.00,95.76,1
53.00,96.30,1
71.00,95.59,1
78.00,94.15,1
57.00,92.28,1
56.00,89.87,1
36.00,86.75,1
73.00,83.17,1
45.00,79.57,1
53.00,75.99,1
43.00,72.36,1
91.00,69.10,1
102.00,67.05,1
111.00,66.64,1
71.00,67.40,1
78.00,68.48,1
58.00,69.40,1
82.00,70.08,1
39.00,70.43,1
129.00,70.77,1
109.00,72.04,1
94.00,74.27,1
54.00,76.41,1
55.00,77.64,1
75.00,77.98,1
40.00,77.67,1
52.00,76.58,1
60.00,74.91,1
104.00,73.45,1
59.00,72.61,1
161.00,72.74,1
65.00,74.12,1
93.00,75.90,1
37.00,77.12,1
70.00,77.46,1
42.00,76.96,1
40.00,75.63,1
144.00,74.32,1
78.00,74.23,1
47.00,74.58,1
119.00,74.79,1
77.00,75.47,1
76.00,76.38,1
131.00,77.53,1
69.00,79.21,1
123.00,81.10,1
81.00,83.14,1
45.00,84.66,1
124.00,85.45,1
77.00,86.29,1
113.00,87.30,1
93.00,88.46,1
92.00,89.65,1
132.00,90.98,1
96.00,92.72,1
122.00,94.66,1
57.00,96.29,1
38.00,96.60,1
51.00,95.15,1
48.00,92.46,1
138.00,89.71,1
104.00,88.19,1
37.00,87.30,1
89.00,85.93,1
266.00,86.03,1
41.00,88.76,1
61.00,91.27,1
55.00,91.96,1
58.00,91.34,1
51.00,89.66,1
86.00,87.45,1
109.00,85.62,1
54.00,84.36,1
116.00,83.36,1
101.00,83.05,1
100.00,83.53,1
41.00,83.95,1
94.00,83.79,1
149.00,84.01,1
42.00,85.01,1
173.00,86.32,1
99.00,88.48,1
73.00,90.89,1
56.00,92.19,1
65.00,92.20,1
37.00,90.97,1
112.00,89.10,1
68.00,87.46,1
55.00,85.81,1
48.00,83.59,1
37.00,80.69,1
51.00,77.23,1
143.00,74.39,1
52.00,72.99,1
49.00,71.96,1
85.00,70.74,1
102.00,70.13,1
130.00,70.83,1
80.00,72.69,1
51.00,74.52,1
85.00,75.64,1
49.00,76.22,1
62.00,76.17,1
109.00,75.94,1
115.00,76.52,1
96.00,78.02,1
104.00,79.98,1
198.00,82.99,1
39.00,86.99,1
119.00,90.43,1
146.00,93.54,1
161.00,97.55,1
74.00,101.84,1
80.00,104.95,1
71.00,106.35,1
54.00,106.18,1
43.00,104.37,1
83.00,101.40,1
40.00,97.84,1
126.00,94.29,1
86.00,91.61,1
110.00,89.92,1
103.00,89.04,1
111.00,88.98,1
56.00,89.14,1
94.00,88.93,1
144.00,89.04,1
42.00,89.68,1
104.00,89.95,1
91.00,90.00,1
257.00,91.56,1
71.00,95.29,1
145.00,99.48,1
101.00,103.19,1
64.00,106.00,1
69.00,107.08,1
131.00,107.10,1
171.00,107.73,1
100.00,109.39,1
36.00,110.39,1
67.00,109.46,1
129.00,107.59,1
85.00,106.01,1
57.00,104.24,1
94.00,101.87,1
35.00,98.99,1
124.00,95.92,1
67.00,93.31,1
39.00,90.69,1
36.00,87.19,1
72.00,83.15,1
97.00,79.62,1
88.00,77.23,1
82.00,75.80,1
65.00,74.84,1
42.00,73.72,1
62.00,72.18,1
61.00,70.49,1
65.00,68.94,1
88.00,67.78,1
44.00,67.02,1
57.00,66.15,1
97.00,65.41,1
91.00,65.51,1
62.00,66.24,1
201.00,68.05,1
36.00,71.32,1
149.00,74.93,1
85.00,78.67,1
86.00,82.25,1
92.00,85.14,1
66.00,87.29,1
66.00,88.43,1
66.00,88.56,1
44.00,87.73,1
51.00,85.89,1
60.00,83.35,1
42.00,80.42,1
37.00,77.03,1
73.00,73.46,1
48.00,70.23,1
38.00,67.16,1
70.00,64.21,1
57.00,61.79,1
44.00,59.80,1
125.00,58.53,1
43.00,58.42,1
163.00,59.51,1
169.00,62.83,1
74.00,68.03,1
116.00,73.31,1
94.00,78.21,1
102.00,82.71,1
54.00,86.30,1
107.00,88.79,1
43.00,90.32,1
112.00,91.01,1
134.00,91.85,1
87.00,93.31,1
74.00,94.49,1
82.00,94.88,1
183.00,95.52,1
93.00,97.34,1
50.00,98.96,1
62.00,99.03,1
52.00,97.68,1
127.00,95.84,1
63.00,94.32,1
63.00,92.66,1
46.00,90.28,1
94.00,87.53,1
41.00,84.82,1
62.00,81.92,1
101.00,79.21,1
49.00,77.12,1
133.00,75.72,1
83.00,75.45,1
72.00,75.82,1
126.00,76.52,1
36.00,77.50,1
41.00,77.65,1
166.00,77.55,1
129.00,79.08,1
90.00,81.88,1
66.00,84.40,1
146.00,86.57,1
51.00,88.74,1
116.00,90.46,1
47.00,91.50,1
64.00,91.53,1
99.00,90.78,1
39.00,89.69,1
40.00,87.67,1
52.00,84.65,1
44.00,81.11,1
90.00,77.63,1
92.00,75.04,1
62.00,73.36,1
137.00,72.58,1
58.00,72.85,1
62.00,73.25,1
74.00,73.25,1
52.00,72.99,1
58.00,72.33,1
142.00,72.00,1
106.00,73.09,1
56.00,74.89,1
167.00,76.96,1
64.00,79.76,1
119.00,82.67,1
42.00,85.00,1
75.00,86.24,1
124.00,86.94,1
94.00,88.04,1
60.00,89.05,1
96.00,89.42,1
56.00,89.30,1
62.00,88.49,1
81.00,87.09,1
36.00,85.31,1
54.00,82.84,1
38.00,79.71,1
92.00,76.53,1
48.00,73.82,1
101.00,71.70,1
76.00,70.42,1
40.00,69.55,1
44.00,68.23,1
76.00,66.66,1
70.00,65.46,1
73.00,64.77,1
67.00,64.45,1
66.00,64.33,1
93.00,64.52,1
67.00,65.18,1
88.00,66.13,1
108.00,67.57,1
115.00,69.90,1
80.00,72.81,1
54.00,75.34,1
54.00,76.77,1
71.00,77.23,1
63.00,77.16,1
80.00,76.86,1
54.00,76.37,1
108.00,75.92,1
51.00,75.72,1
68.00,75.36,1
43.00,74.49,1
92.00,73.40,1
162.00,73.37,1
38.00,74.69,1
40.00,75.51,1
61.00,75.10,1
41.00,73.98,1
129.00,72.93,1
60.00,72.71,1
53.00,72.63,1
212.00,73.30,1
111.00,76.29,1
112.00,80.56,1
110.00,84.83,1
50.00,88.41,1
101.00,90.79,1
36.00,91.97,1
49.00,91.63,1
62.00,89.95,1
40.00,87.46,1
105.00,84.71,1
108.00,82.78,1
37.00,81.54,1
64.00,79.94,1
255.00,79.54,1
40.00,81.70,1
70.00,83.98,1
49.00,84.82,1
61.00,84.56,1
86.00,83.68,1
75.00,82.79,1
59.00,81.82,1
106.00,80.84,1
86.00,80.38,1
92.00,80.43,1
62.00,80.56,1
94.00,80.55,1
75.00,80.57,1
136.00,81.05,1
54.00,82.07,1
132.00,83.24,1
122.00,85.01,1
146.00,87.87,1
56.00,91.03,1
134.00,93.66,1
75.00,95.86,1
148.00,97.94,1
195.00,100.96,1
72.00,104.96,1
82.00,108.02,1
42.00,109.05,1
55.00,108.06,1
67.00,105.51,1
119.00,102.63,1
110.00,100.48,1
40.00,98.66,1
72.00,96.17,1
40.00,92.95,1
103.00,89.52,1
59.00,86.47,1
59.00,83.62,1
97.00,80.94,1
94.00,79.10,1
83.00,78.13,1
81.00,77.63,1
106.00,77.59,1
86.00,78.13,1
108.00,79.15,1
52.00,80.23,1
85.00,80.86,1
107.00,81.38,1
82.00,82.24,1
75.00,83.03,1
58.00,83.29,1
86.00,83.02,1
85.00,82.68,1
53.00,82.24,1
135.00,81.88,1
40.00,81.90,1
58.00,81.47,1
34.00,80.01,1
61.00,77.80,1
107.00,75.71,1
38.00,74.22,1
188.00,73.70,1
38.00,74.62,1
134.00,76.14,1
65.00,77.84,1
131.00,79.83,1
50.00,81.82,1
62.00,83.06,1
76.00,83.30,1
72.00,83.10,1
93.00,82.78,1
69.00,82.51,1
103.00,82.33,1
154.00,83.03,1
120.00,85.23,1
76.00,87.97,1
45.00,89.76,1
42.00,89.84,1
106.00,88.87,1
38.00,87.61,1
221.00,87.10,1
35.00,88.10,1
153.00,89.62,1
95.00,91.42,1
82.00,93.29,1
67.00,94.31,1
99.00,94.56,1
50.00,94.22,1
180.00,93.98,1
58.00,94.58,1
60.00,94.84,1
62.00,93.89,1
40.00,91.89,1
76.00,89.13,1
42.00,86.00,1
128.00,83.16,1
110.00,81.63,1
74.00,81.29,1
82.00,81.16,1
164.00,81.69,1
128.00,83.86,1
254.00,88.32,1
68.00,94.62,1
115.00,100.45,1
85.00,104.73,1
63.00,107.38,1
102.00,108.42,1
64.00,108.37,1
131.00,107.73,1
117.00,107.34,1
51.00,106.94,1
121.00,105.91,1
64.00,104.57,1
98.00,102.97,1
46.00,100.87,1
61.00,98.02,1
45.00,94.36,1
42.00,90.05,1
100.00,85.70,1
146.00,82.77,1
85.00,81.76,1
100.00,81.73,1
59.00,81.85,1
104.00,81.90,1
94.00,82.21,1
80.00,82.80,1
74.00,83.22,1
63.00,83.20,1
69.00,82.65,1
76.00,81.79,1
102.00,81.10,1
97.00,81.01,1
71.00,81.30,1
59.00,81.30,1
167.00,81.55,1
39.00,82.62,1
157.00,84.03,1
124.00,86.27,1
40.00,88.80,1
89.00,90.20,1
98.00,90.89,1
67.00,91.31,1
93.00,91.30,1
74.00,90.98,1
36.00,90.00,1
43.00,87.84,1
43.00,84.64,1
61.00,80.99,1
89.00,77.63,1
64.00,75.02,1
82.00,73.02,1
68.00,71.53,1
60.00,70.34,1
157.00,69.96,1
138.00,71.60,1
86.00,74.79,1
127.00,78.35,1
121.00,82.29,1
64.00,86.15,1
81.00,88.96,1
116.00,90.98,1
164.00,93.45,1
81.00,96.57,1
48.00,98.84,1
50.00,99.16,1
154.00,98.62,1
126.00,98.94,1
41.00,99.62,1
95.00,99.33,1
39.00,98.05,1
110.00,96.16,1
59.00,94.18,1
62.00,91.96,1
37.00,89.05,1
37.00,85.30,1
186.00,82.09,1
52.00,80.75,1
36.00,79.75,1
58.00,77.85,1
39.00,75.40,1
150.00,73.42,1
70.00,72.87,1
87.00,73.17,1
79.00,73.64,1
53.00,74.03,1
134.00,74.51,1
74.00,75.68,1
67.00,76.96,1
51.00,77.53,1
60.00,77.29,1
58.00,76.43,1
74.00,75.32,1
70.00,74.26,1
67.00,73.33,1
144.00,73.07,1
43.00,73.76,1
118.00,74.72,1
54.00,75.74,1
40.00,76.20,1
62.00,75.63,1
72.00,74.64,1
120.00,74.12,1
52.00,74.29,1
88.00,74.55,1
50.00,74.57,1
64.00,74.21,1
91.00,73.69,1
126.00,73.95,1
68.00,75.11,1
46.00,76.06,1
128.00,76.64,1
79.00,77.71,1
117.00,79.30,1
94.00,81.24,1
57.00,83.03,1
78.00,84.01,1
38.00,84.04,1
144.00,83.75,1
81.00,84.12,1
48.00,84.54,1
123.00,84.55,1
44.00,84.55,1
116.00,84.46,1
50.00,84.30,1
77.00,83.80,1
58.00,82.81,1
52.00,81.34,1
44.00,79.23,1
52.00,76.58,1
46.00,73.63,1
173.00,71.59,1
76.00,71.55,1
38.00,72.17,1
69.00,72.08,1
42.00,71.42,1
61.00,70.32,1
68.00,69.07,1
121.00,68.47,1
119.00,69.31,1
42.00,70.98,1
117.00,72.55,1
138.00,74.78,1
160.00,78.58,1
35.00,82.95,1
60.00,85.92,1
47.00,87.02,1
54.00,86.69,1
76.00,85.47,1
53.00,83.85,1
64.00,81.89,1
47.00,79.57,1
84.00,77.18,1
149.00,75.82,1
68.00,76.01,1
44.00,76.36,1
76.00,76.02,1
39.00,75.19,1
85.00,74.04,1
48.00,72.85,1
155.00,72.31,1
41.00,72.82,1
163.00,74.12,1
75.00,76.32,1
146.00,79.28,1
83.00,82.63,1
43.00,85.38,1
110.00,86.95,1
69.00,88.01,1
151.00,89.20,1
160.00,91.54,1
88.00,94.93,1
47.00,97.54,1
50.00,98.21,1
87.00,97.41,1
79.00,96.08,1
153.00,95.19,1
38.00,94.87,1
57.00,93.83,1
38.00,91.50,1
82.00,88.47,1
87.00,85.62,1
36.00,83.04,1
85.00,80.35,1
36.00,77.64,1
37.00,74.60,1
92.00,71.49,1
52.00,69.02,1
60.00,66.98,1
79.00,65.29,1
94.00,64.43,1
96.00,64.65,1
152.00,66.33,1
145.00,69.92,1
61.00,74.51,1
60.00,78.23,1
72.00,80.55,1
64.00,81.87,1
59.00,82.29,1
168.00,82.78,1
186.00,85.23,1
73.00,89.35,1
39.00,92.59,1
134.00,94.34,1
96.00,95.87,1
94.00,97.35,1
58.00,98.07,1
35.00,97.38,1
114.00,95.62,1
46.00,93.67,1
41.00,91.13,1
59.00,87.73,1
61.00,84.05,1
61.00,80.48,1
119.00,77.60,1
93.00,76.10,1
142.00,76.16,1
63.00,77.33,1
39.00,78.20,1
58.00,77.92,1
53.00,76.83,1
74.00,75.43,1
45.00,73.90,1
105.00,72.51,1
100.00,72.01,1
35.00,72.07,1
164.00,72.49,1
41.00,73.77,1
38.00,74.66,1
54.00,74.27,1
127.00,73.78,1
127.00,74.57,1
38.00,76.17,1
68.00,77.10,1
48.00,77.10,1
85.00,76.60,1
48.00,75.88,1
160.00,75.65,1
70.00,76.58,1
82.00,77.93,1
36.00,78.60,1
180.00,79.28,1
68.00,81.02,1
57.00,82.75,1
68.00,83.39,1
40.00,83.03,1
78.00,81.88,1
67.00,80.47,1
181.00,79.98,1
155.00,81.78,1
62.00,85.02,1
41.00,87.30,1
102.00,88.16,1
68.00,88.50,1
47.00,88.16,1
89.00,87.06,1
91.00,85.96,1
38.00,84.83,1
49.00,82.95,1
57.00,80.39,1
87.00,77.84,1
51.00,75.66,1
44.00,73.42,1
72.00,71.03,1
53.00,68.86,1
47.00,66.79,1
81.00,64.89,1
46.00,63.41,1
118.00,62.60,1
76.00,62.88,1
38.00,63.56,1
136.00,64.36,1
37.00,65.71,1
135.00,67.42,1
89.00,69.76,1
53.00,72.26,1
74.00,74.00,1
72.00,75.12,1
38.00,75.60,1
63.00,75.21,1
110.00,74.68,1
87.00,74.88,1
48.00,75.30,1
62.00,75.15,1
49.00,74.37,1
150.00,73.88,1
49.00,74.37,1
84.00,75.02,1
152.00,76.10,1
129.00,78.69,1
86.00,82.17,1
82.00,85.26,1
62.00,87.36,1
42.00,88.12,1
87.00,87.69,1
86.00,86.97,1
41.00,86.02,1
93.00,84.60,1
62.00,83.12,1
81.00,81.70,1
67.00,80.33,1
176.00,79.87,1
174.00,81.79,1
87.00,85.63,1
185.00,90.12,1
33.00,94.61,1
127.00,98.01,1
48.00,100.12,1
73.00,100.85,1
90.00,100.40,1
76.00,99.46,1
132.00,98.54,1
74.00,98.01,1
128.00,97.74,1
63.00,97.56,1
90.00,97.03,1
62.00,95.94,1
107.00,94.59,1
46.00,93.09,1
74.00,91.13,1
155.00,89.51,1
91.00,89.27,1
73.00,89.53,1
73.00,89.32,1
114.00,88.96,1
167.00,89.62,1
145.00,92.08,1
120.00,95.71,1
97.00,99.30,1
54.00,101.77,1
65.00,102.50,1
75.00,101.81,1
309.00,102.26,1
56.00,105.44,1
64.00,108.37,1
137.00,109.65,1
105.00,110.66,1
42.00,110.98,1
38.00,109.39,1
60.00,106.04,1
54.00,101.72,1
99.00,97.28,1
54.00,93.22,1
42.00,89.11,1
57.00,84.64,1
127.00,80.79,1
98.00,78.58,1
82.00,77.65,1
108.00,77.45,1
181.00,78.72,1
180.00,82.47,1
69.00,87.65,1
58.00,91.80,1
50.00,93.83,1
146.00,94.78,1
93.00,95.97,1
69.00,97.01,1
113.00,97.44,1
99.00,97.79,1
94.00,98.18,1
79.00,98.25,1
81.00,97.81,1
44.00,96.57,1
52.00,94.26,1
91.00,91.36,1
130.00,89.15,1
106.00,88.30,1
50.00,87.99,1
95.00,87.32,1
45.00,86.28,1
122.00,85.17,1
80.00,84.57,1
60.00,84.15,1
136.00,83.83,1
73.00,84.17,1
83.00,84.66,1
70.00,84.79,1
44.00,84.28,1
92.00,83.17,1
65.00,82.00,1
87.00,80.95,1
156.00,80.75,1
159.00,82.55,1
53.00,85.57,1
59.00,87.71,1
108.00,88.74,1
174.00,90.30,1
43.00,92.63,1
270.00,95.73,1
55.00,100.22,1
117.00,104.43,1
71.00,107.15,1
39.00,108.11,1
46.00,106.87,1
52.00,103.92,1
34.00,99.72,1
70.00,94.80,1
168.00,90.75,1
58.00,88.54,1
46.00,86.66,1
124.00,84.62,1
125.00,83.76,1
158.00,84.73,1
188.00,87.90,1
154.00,93.12,1
196.00,99.74,1
166.00,107.38,1
42.00,114.35,1
108.00,118.80,1
139.00,121.53,1
96.00,123.57,1
288.00,126.16,1
78.00,130.16,1
109.00,133.47,1
60.00,134.51,1
197.00,134.37,1
123.00,134.60,1
50.00,134.40,1
65.00,132.17,1
54.00,128.01,1
221.00,123.87,1
43.00,121.09,1
86.00,118.21,1
129.00,114.96,1
34.00,111.81,1
56.00,107.80,1
102.00,103.23,1
80.00,99.15,1
96.00,95.73,1
131.00,93.31,1
101.00,92.19,1
158.00,92.37,1
210.00,94.66,1
174.00,99.51,1
189.00,106.11,1
94.00,112.96,1
73.00,118.14,1
84.00,120.82,1
67.00,121.38,1
72.00,120.15,1
121.00,117.98,1
85.00,115.72,1
336.00,115.39,1
208.00,119.32,1
68.00,125.13,1
48.00,128.63,1
195.00,129.98,1
35.00,130.61,1
43.00,129.32,1
36.00,125.34,1
234.00,121.06,1
62.00,118.50,1
40.00,115.93,1
62.00,111.82,1
65.00,106.89,1
360.00,104.19,1
59.00,105.66,1
54.00,107.68,1
110.00,107.94,1
122.00,107.84,1
49.00,107.52,1
127.00,106.59,1
99.00,105.67,1
85.00,104.87,1
105.00,103.89,1
37.00,102.44,1
55.00,99.88,1
45.00,96.19,1
176.00,92.86,1
83.00,91.23,1
36.00,90.11,1
53.00,87.99,1
40.00,84.97,1
40.00,81.28,1
192.00,78.36,1
40.00,77.40,1
119.00,77.35,1
52.00,77.48,1
65.00,77.39,1
54.00,76.72,1
42.00,75.43,1
105.00,73.97,1
43.00,72.86,1
176.00,72.64,1
51.00,73.79,1
91.00,75.28,1
123.00,76.86,1
83.00,79.01,1
127.00,81.47,1
125.00,84.48,1
100.00,87.93,1
104.00,91.19,1
219.00,95.02,1
106.00,100.18,1
60.00,104.85,1
54.00,107.23,1
152.00,108.11,1
71.00,108.75,1
52.00,108.49,1
56.00,106.59,1
47.00,103.36,1
46.00,99.11,1
85.00,94.44,1
60.00,90.05,1
49.00,85.83,1
87.00,81.81,1
202.00,79.57,1
79.00,79.96,1
109.00,81.52,1
83.00,83.15,1
84.00,84.61,1
158.00,86.31,1
100.00,88.88,1
89.00,91.59,1
204.00,94.61,1
93.00,98.67,1
79.00,102.36,1
48.00,104.23,1
86.00,104.33,1
111.00,103.68,1
89.00,103.04,1
69.00,102.10,1
67.00,100.42,1
63.00,98.02,1
53.00,94.97,1
93.00,91.67,1
41.00,88.45,1
43.00,84.87,1
39.00,80.69,1
51.00,76.26,1
54.00,71.98,1
93.00,68.44,1
53.00,65.91,1
99.00,64.29,1
100.00,63.84,1
114.00,64.81,1
255.00,68.27,1
161.00,75.17,1
169.00,84.12,1
187.00,93.86,1
67.00,103.20,1
126.00,110.57,1
86.00,115.84,1
72.00,119.08,1
118.00,120.45,1
62.00,120.56,1
127.00,119.69,1
135.00,118.81,1
167.00,118.88,1
52.00,119.32,1
193.00,119.54,1
146.00,120.61,1
39.00,121.76,1
60.00,120.94,1
40.00,117.94,1
63.00,113.44,1
97.00,108.44,1
200.00,104.84,1
70.00,103.31,1
43.00,101.90,1
90.00,99.48,1
117.00,97.16,1
48.00,95.27,1
90.00,93.17,1
127.00,91.43,1
111.00,90.86,1
148.00,91.54,1
106.00,93.29,1
121.00,95.51,1
104.00,97.78,1
58.00,99.47,1
80.00,99.95,1
49.00,99.18,1
122.00,97.79,1
72.00,96.52,1
54.00,95.00,1
79.00,92.84,1
76.00,90.51,1
49.00,88.05,1
70.00,85.29,1
110.00,82.84,1
56.00,81.10,1
64.00,79.47,1
71.00,77.70,1
53.00,75.93,1
102.00,74.38,1
58.00,73.35,1
95.00,72.72,1
183.00,73.42,1
244.00,77.36,1
238.00,85.40,1
131.00,95.73,1
254.00,106.65,1
141.00,117.87,1
140.00,128.10,1
83.00,135.79,1
126.00,140.71,1
58.00,143.02,1
143.00,143.25,1
96.00,142.32,1
91.00,140.41,1
54.00,137.06,1
38.00,131.94,1
169.00,126.13,1
99.00,121.48,1
64.00,117.49,1
43.00,112.80,1
40.00,107.04,1
186.00,101.68,1
57.00,98.12,1
61.00,95.16,1
74.00,91.85,1
67.00,88.58,1
57.00,85.35,1
65.00,82.10,1
43.00,78.82,1
104.00,75.83,1
138.00,74.27,1
104.00,74.63,1
65.00,75.85,1
107.00,77.09,1
42.00,78.14,1
43.00,78.27,1
139.00,78.00,1
187.00,79.40,1
121.00,83.08,1
50.00,87.09,1
194.00,90.69,1
52.00,94.48,1
127.00,97.75,1
36.00,99.83,1
112.00,100.68,1
63.00,100.66,1
127.00,100.33,1
94.00,100.17,1
86.00,100.04,1
38.00,99.15,1
46.00,96.92,1
39.00,93.41,1
53.00,89.11,1
51.00,84.51,1
64.00,80.02,1
72.00,76.05,1
139.00,73.38,1
53.00,72.27,1
72.00,71.66,1
84.00,71.15,1
250.00,72.47,1
80.00,76.59,1
143.00,81.75,1
152.00,87.24,1
89.00,92.95,1
109.00,97.85,1
55.00,101.32,1
74.00,103.04,1
114.00,103.54,1
48.00,103.39,1
99.00,102.41,1
90.00,101.05,1
67.00,99.53,1
67.00,97.49,1
83.00,95.06,1
163.00,93.34,1
105.00,93.19,1
85.00,93.79,1
45.00,93.78,1
41.00,92.45,1
36.00,89.74,1
62.00,86.14,1
93.00,82.65,1
179.00,80.80,1
53.00,80.92,1
62.00,81.19,1
64.00,80.71,1
46.00,79.61,1
104.00,78.30,1
96.00,77.60,1
91.00,77.71,1
138.00,78.67,1
142.00,81.00,1
103.00,84.44,1
53.00,87.58,1
68.00,89.35,1
190.00,90.88,1
60.00,93.24,1
40.00,94.85,1
48.00,94.48,1
63.00,92.71,1
138.00,90.88,1
103.00,90.14,1
81.00,90.12,1
76.00,89.94,1
111.00,89.67,1
103.00,89.82,1
107.00,90.48,1
84.00,91.30,1
101.00,92.01,1
57.00,92.34,1
135.00,92.43,1
42.00,92.50,1
86.00,92.01,1
77.00,91.01,1
54.00,89.66,1
42.00,87.56,1
210.00,85.94,1
128.00,86.76,1
44.00,88.73,1
106.00,89.95,1
175.00,91.47,1
69.00,93.95,1
127.00,96.36,1
62.00,98.19,1
215.00,100.19,1
145.00,103.70,1
88.00,107.84,1
51.00,110.50,1
79.00,111.06,1
118.00,110.51,1
83.00,109.73,1
319.00,110.52,1
98.00,114.22,1
41.00,117.84,1
37.00,118.49,1
58.00,116.47,1
139.00,113.49,1
52.00,110.68,1
148.00,108.11,1
43.00,105.82,1
161.00,103.85,1
63.00,102.45,1
120.00,101.38,1
202.00,101.38,1
127.00,103.45,1
80.00,106.03,1
50.00,107.27,1
35.00,106.42,1
93.00,104.01,1
180.00,102.05,1
49.00,101.36,1
58.00,100.26,1
98.00,98.27,1
78.00,96.25,1
85.00,94.33,1
201.00,93.48,1
72.00,94.38,1
95.00,95.60,1
67.00,96.07,1
50.00,95.55,1
44.00,93.73,1
40.00,90.71,1
107.00,87.31,1
116.00,84.90,1
61.00,83.57,1
44.00,82.12,1
69.00,80.10,1
135.00,78.54,1
64.00,78.10,1
125.00,78.40,1
47.00,79.01,1
37.00,78.97,1
83.00,78.02,1
50.00,76.80,1
70.00,75.43,1
59.00,73.94,1
259.00,74.08,1
116.00,77.49,1
65.00,82.13,1
145.00,86.17,1
303.00,91.82,1
113.00,100.26,1
79.00,108.39,1
106.00,114.10,1
37.00,117.35,1
67.00,117.97,1
103.00,116.81,1
87.00,115.03,1
57.00,112.63,1
46.00,109.12,1
88.00,104.78,1
70.00,100.43,1
42.00,96.03,1
37.00,91.08,1
76.00,85.90,1
43.00,81.04,1
116.00,76.97,1
48.00,74.00,1
81.00,71.72,1
67.00,69.91,1
127.00,69.06,1
94.00,69.56,1
60.00,70.75,1
88.00,71.81,1
159.00,73.50,1
201.00,77.36,1
87.00,83.10,1
69.00,88.38,1
66.00,91.88,1
43.00,93.51,1
60.00,93.39,1
79.00,92.21,1
54.00,90.51,1
36.00,88.07,1
47.00,84.74,1
51.00,80.90,1
75.00,77.16,1
42.00,73.77,1
55.00,70.52,1
112.00,67.91,1
107.00,66.86,1
47.00,66.95,1
116.00,67.41,1
78.00,68.50,1
40.00,69.64,1
84.00,70.21,1
158.00,71.35,1
98.00,73.99,1
99.00,77.30,1
134.00,80.82,1
266.00,86.07,1
183.00,94.25,1
127.00,103.66,1
60.00,111.49,1
79.00,116.45,1
49.00,118.57,1
130.00,118.78,1
115.00,118.52,1
186.00,118.92,1
123.00,120.34,1
109.00,121.92,1
337.00,124.70,1
217.00,131.03,1
108.00,138.79,1
93.00,144.44,1
69.00,146.91,1
52.00,146.24,1
334.00,145.09,1
50.00,145.80,1
68.00,145.67,1
51.00,142.70,1
99.00,137.92,1
52.00,132.21,1
37.00,125.47,1
77.00,117.86,1
134.00,110.87,1
78.00,105.40,1
52.00,100.57,1
147.00,96.31,1
37.00,93.05,1
110.00,90.23,1
39.00,87.55,1
117.00,85.14,1
69.00,83.32,1
80.00,81.95,1
48.00,80.50,1
103.00,79.03,1
66.00,77.95,1
119.00,77.48,1
129.00,78.15,1
113.00,80.13,1
114.00,82.88,1
51.00,85.46,1
35.00,86.66,1
68.00,86.27,1
38.00,84.84,1
106.00,83.01,1
52.00,81.37,1
88.00,79.90,1
60.00,78.52,1
162.00,77.94,1
104.00,78.95,1
68.00,80.73,1
128.00,82.46,1
66.00,84.27,1
113.00,85.95,1
133.00,87.90,1
77.00,90.24,1
92.00,92.18,1
58.00,93.23,1
48.00,93.04,1
88.00,91.82,1
38.00,90.02,1
86.00,87.73,1
124.00,85.85,1
52.00,84.78,1
127.00,84.10,1
104.00,84.20,1
298.00,86.72,1
57.00,92.04,1
82.00,97.13,1
136.00,100.72,1
264.00,105.25,1
39.00,111.03,1
138.00,115.72,1
151.00,119.30,1
100.00,122.53,1
110.00,124.75,1
61.00,125.45,1
202.00,125.42,1
49.00,125.49,1
63.00,124.41,1
83.00,121.59,1
127.00,118.37,1
114.00,115.74,1
146.00,114.07,1
108.00,113.28,1
58.00,112.40,1
70.00,110.43,1
54.00,107.37,1
56.00,103.41,1
124.00,99.38,1
117.00,96.51,1
219.00,95.92,1
131.00,98.01,1
70.00,100.91,1
74.00,102.63,1
36.00,102.62,1
40.00,100.75,1
56.00,97.42,1
74.00,93.54,1
92.00,89.94,1
44.00,86.72,1
174.00,84.34,1
101.00,83.84,1
47.00,84.18,1
38.00,83.59,1
138.00,82.52,1
96.00,82.38,1
83.00,82.96,1
65.00,83.36,1
84.00,83.36,1
97.00,83.33,1
195.00,84.46,1
89.00,87.31,1
37.00,89.98,1
65.00,90.91,1
92.00,90.73,1
79.00,90.31,1
67.00,89.63,1
39.00,88.21,1
60.00,85.90,1
72.00,83.21,1
91.00,80.85,1
78.00,79.13,1
82.00,77.93,1
85.00,77.14,1
44.00,76.44,1
48.00,75.20,1
110.00,73.83,1
54.00,73.01,1
48.00,72.17,1
53.00,70.82,1
98.00,69.53,1
61.00,68.82,1
37.00,68.13,1
53.00,66.91,1
74.00,65.55,1
134.00,65.13,1
84.00,66.19,1
75.00,67.94,1
46.00,69.34,1
129.00,70.56,1
144.00,72.88,1
36.00,75.99,1
235.00,79.58,1
44.00,84.23,1
56.00,88.12,1
97.00,90.25,1
120.00,91.95,1
94.00,93.76,1
307.00,97.15,1
46.00,102.76,1
71.00,107.51,1
65.00,109.65,1
94.00,110.07,1
39.00,109.15,1
88.00,106.96,1
48.00,103.94,1
152.00,100.98,1
65.00,98.84,1
114.00,97.23,1
62.00,95.72,1
64.00,93.91,1
40.00,91.31,1
69.00,88.08,1
89.00,84.91,1
48.00,82.14,1
40.00,79.17,1
71.00,75.94,1
107.00,73.37,1
61.00,71.84,1
94.00,70.97,1
40.00,70.35,1
44.00,69.36,1
114.00,68.30,1
90.00,68.24,1
40.00,68.71,1
36.00,68.49,1
86.00,67.70,1
82.00,67.26,1
145.00,67.97,1
54.00,69.79,1
37.00,71.26,1
93.00,71.84,1
43.00,72.10,1
85.00,72.10,1
96.00,72.27,1
43.00,72.65,1
62.00,72.56,1
84.00,72.16,1
59.00,71.86,1
125.00,71.96,1
64.00,72.75,1
94.00,73.81,1
54.00,74.71,1
60.00,75.08,1
124.00,75.35,1
64.00,76.13,1
94.00,77.07,1
38.00,77.63,1
100.00,77.73,1
40.00,77.52,1
90.00,77.04,1
80.00,76.60,1
48.00,76.20,1
47.00,75.20,1
39.00,73.45,1
53.00,71.17,1
61.00,68.78,1
36.00,66.44,1
50.00,63.97,1
56.00,61.57,1
109.00,59.95,1
37.00,59.32,1
61.00,58.89,1
52.00,58.36,1
63.00,57.92,1
128.00,58.19,1
62.00,59.64,1
75.00,61.47,1
92.00,63.34,1
86.00,65.52,1
76.00,67.82,1
113.00,70.22,1
71.00,72.81,1
40.00,74.81,1
62.00,75.61,1
34.00,75.36,1
105.00,74.61,1
94.00,74.36,1
44.00,74.50,1
74.00,74.26,1
99.00,74.03,1
41.00,73.99,1
86.00,73.73,1
37.00,73.15,1
171.00,73.03,1
130.00,74.73,1
69.00,77.71,1
80.00,80.27,1
45.00,81.83,1
64.00,82.23,1
58.00,81.73,1
50.00,80.55,1
36.00,78.60,1
59.00,76.00,1
57.00,73.25,1
117.00,71.15,1
74.00,70.22,1
102.00,70.23,1
116.00,71.18,1
65.00,72.85,1
36.00,74.04,1
82.00,74.30,1
146.00,74.90,1
36.00,76.29,1
67.00,77.17,1
117.00,77.66,1
189.00,79.55,1
71.00,83.04,1
60.00,86.17,1
111.00,88.20,1
168.00,90.55,1
107.00,93.93,1
44.00,96.91,1
269.00,99.81,1
39.00,103.85,1
49.00,106.76,1
53.00,107.01,1
40.00,105.27,1
67.00,102.12,1
44.00,98.15,1
51.00,93.59,1
78.00,88.87,1
36.00,84.35,1
44.00,79.73,1
70.00,75.19,1
73.00,71.37,1
105.00,68.77,1
141.00,68.02,1
111.00,69.36,1
107.00,71.98,1
86.00,75.00,1
121.00,78.11,1
38.00,80.92,1
40.00,82.34,1
38.00,81.98,1
142.00,81.12,1
35.00,80.74,1
35.00,79.81,1
106.00,78.21,1
50.00,76.87,1
58.00,75.48,1
45.00,73.68,1
163.00,72.44,1
64.00,72.71,1
74.00,73.53,1
141.00,74.65,1
75.00,76.58,1
61.00,78.43,1
42.00,79.21,1
68.00,78.95,1
47.00,78.01,1
48.00,76.45,1
244.00,75.93,1
70.00,78.04,1
85.00,80.95,1
72.00,83.06,1
129.00,84.88,1
184.00,87.72,1
115.00,92.02,1
94.00,96.45,1
67.00,99.68,1
42.00,101.04,1
127.00,101.04,1
104.00,101.01,1
51.00,100.83,1
69.00,99.64,1
89.00,97.73,1
103.00,95.94,1
42.00,94.19,1
106.00,92.17,1
42.00,90.03,1
87.00,87.71,1
53.00,85.28,1
50.00,82.62,1
63.00,79.64,1
52.00,76.63,1
101.00,74.02,1
49.00,72.10,1
52.00,70.33,1
56.00,68.39,1
136.00,67.13,1
40.00,67.01,1
65.00,67.03,1
74.00,66.84,1
45.00,66.62,1
118.00,66.59,1
61.00,67.18,1
266.00,69.64,1
100.00,74.93,1
115.00,81.28,1
42.00,86.49,1
185.00,90.76,1
127.00,95.47,1
224.00,101.40,1
80.00,107.98,1
61.00,113.09,1
90.00,115.63,1
72.00,116.32,1
70.00,115.51,1
82.00,113.51,1
38.00,110.47,1
62.00,106.32,1
87.00,101.71,1
80.00,97.45,1
128.00,94.09,1
68.00,91.77,1
57.00,89.62,1
69.00,87.09,1
52.00,84.33,1
51.00,81.29,1
38.00,77.87,1
72.00,74.34,1
87.00,71.42,1
74.00,69.49,1
71.00,68.26,1
51.00,67.27,1
59.00,66.22,1
53.00,65.06,1
182.00,64.91,1
98.00,66.91,1
99.00,70.16,1
54.00,73.20,1
183.00,76.32,1
81.00,80.31,1
78.00,84.19,1
63.00,86.82,1
143.00,88.82,1
55.00,90.74,1
98.00,92.09,1
38.00,92.46,1
54.00,91.57,1
40.00,89.38,1
60.00,86.36,1
58.00,83.00,1
52.00,79.59,1
95.00,76.49,1
59.00,74.09,1
67.00,72.14,1
40.00,70.19,1
209.00,69.34,1
71.00,70.81,1
67.00,73.04,1
79.00,74.67,1
107.00,76.19,1
52.00,77.67,1
100.00,78.80,1
68.00,79.70,1
39.00,80.01,1
86.00,79.52,1
108.00,79.16,1
52.00,79.19,1
140.00,79.51,1
43.00,80.23,1
59.00,80.47,1
103.00,80.17,1
78.00,80.13,1
45.00,79.96,1
39.00,78.89,1
65.00,77.02,1
64.00,74.97,1
43.00,72.88,1
36.00,70.42,1
73.00,67.77,1
40.00,65.35,1
44.00,62.98,1
136.00,61.28,1
48.00,60.98,1
65.00,61.18,1
50.00,61.20,1
121.00,61.55,1
54.00,62.65,1
40.00,63.64,1
180.00,64.88,1
71.00,67.58,1
113.00,71.01,1
93.00,74.49,1
40.00,77.48,1
51.00,79.03,1
46.00,79.15,1
75.00,78.42,1
36.00,77.18,1
54.00,75.35,1
54.00,73.10,1
65.00,70.85,1
46.00,68.69,1
52.00,66.51,1
62.00,64.40,1
47.00,62.52,1
111.00,61.22,1
95.00,61.23,1
50.00,62.11,1
40.00,62.68,1
133.00,63.21,1
72.00,64.66,1
149.00,67.16,1
61.00,70.40,1
65.00,73.31,1
174.00,76.12,1
107.00,80.04,1
130.00,84.65,1
55.00,88.85,1
38.00,91.39,1
94.00,92.15,1
157.00,92.85,1
84.00,94.39,1
115.00,96.07,1
64.00,97.30,1
100.00,97.85,1
58.00,97.69,1
94.00,96.90,1
82.00,95.81,1
72.00,94.54,1
52.00,92.74,1
64.00,90.28,1
56.00,87.39,1
48.00,84.14,1
53.00,80.58,1
77.00,77.12,1
128.00,74.71,1
68.00,73.73,1
160.00,74.06,1
167.00,76.46,1
116.00,80.82,1
110.00,85.69,1
89.00,90.07,1
64.00,93.32,1
117.00,95.46,1
68.00,96.95,1
51.00,97.39,1
158.00,97.20,1
94.00,97.67,1
115.00,98.60,1
36.00,99.03,1
56.00,98.09,1
50.00,95.78,1
36.00,92.43,1
40.00,88.17,1
155.00,84.25,1
110.00,82.32,1
48.00,81.63,1
45.00,80.48,1
58.00,78.55,1
75.00,76.44,1
54.00,74.47,1
43.00,72.38,1
37.00,69.85,1
69.00,67.15,1
36.00,64.63,1
116.00,62.69,1
154.00,62.64,1
130.00,65.13,1
203.00,70.00,1
107.00,76.70,1
122.00,83.70,1
38.00,89.46,1
106.00,93.40,1
34.00,95.64,1
100.00,96.44,1
80.00,96.46,1
130.00,96.50,1
66.00,96.70,1
46.00,96.20,1
47.00,94.32,1
68.00,91.49,1
146.00,89.04,1
47.00,87.60,1
39.00,85.91,1
39.00,83.12,1
67.00,79.77,1
88.00,76.74,1
76.00,74.54,1
61.00,72.90,1
100.00,71.70,1
136.00,71.70,1
196.00,74.02,1
120.00,78.69,1
54.00,83.70,1
71.00,87.21,1
131.00,89.70,1
129.00,92.44,1
162.00,96.04,1
52.00,99.77,1
61.00,102.00,1
38.00,102.06,1
106.00,100.72,1
61.00,98.94,1
77.00,96.83,1
89.00,94.54,1
144.00,92.97,1
126.00,92.88,1
64.00,93.54,1
62.00,93.57,1
52.00,92.49,1
142.00,91.15,1
49.00,90.30,1
39.00,88.98,1
52.00,86.49,1
64.00,83.45,1
54.00,80.32,1
190.00,78.28,1
75.00,78.36,1
131.00,79.73,1
77.00,81.57,1
122.00,83.63,1
92.00,85.84,1
98.00,88.02,1
138.00,90.30,1
89.00,92.87,1
84.00,95.06,1
40.00,96.02,1
119.00,95.92,1
164.00,96.32,1
57.00,97.62,1
106.00,98.56,1
79.00,98.89,1
86.00,98.75,1
77.00,98.09,1
58.00,96.80,1
69.00,94.79,1
72.00,92.34,1
51.00,89.61,1
85.00,86.70,1
91.00,84.20,1
60.00,82.22,1
66.00,80.29,1
39.00,78.07,1
48.00,75.39,1
48.00,72.36,1
62.00,69.37,1
63.00,66.74,1
41.00,64.43,1
127.00,62.79,1
113.00,62.83,1
122.00,64.70,1
82.00,67.63,1
72.00,70.58,1
102.00,73.20,1
122.00,76.07,1
112.00,79.52,1
78.00,83.01,1
204.00,86.83,1
44.00,91.25,1
62.00,94.52,1
97.00,96.06,1
89.00,96.91,1
58.00,97.10,1
53.00,96.16,1
48.00,93.99,1
42.00,90.80,1
59.00,86.96,1
145.00,83.68,1
63.00,81.83,1
42.00,80.31,1
44.00,78.07,1
125.00,75.89,1
40.00,74.49,1
97.00,73.46,1
104.00,73.04,1
106.00,73.71,1
58.00,74.88,1
106.00,76.00,1
89.00,77.31,1
38.00,78.41,1
74.00,78.62,1
86.00,78.43,1
104.00,78.59,1
37.00,78.85,1
78.00,78.55,1
76.00,77.95,1
71.00,77.41,1
41.00,76.58,1
115.00,75.63,1
49.00,75.05,1
120.00,74.89,1
78.00,75.32,1
74.00,76.05,1
67.00,76.52,1
36.00,76.35,1
38.00,75.16,1
74.00,73.30,1
57.00,71.47,1
94.00,70.04,1
44.00,69.03,1
40.00,67.82,1
48.00,66.08,1
101.00,64.52,1
68.00,63.85,1
72.00,63.78,1
59.00,63.86,1
94.00,64.15,1
140.00,65.46,1
159.00,68.70,1
90.00,73.44,1
82.00,78.09,1
102.00,81.98,1
41.00,84.93,1
42.00,86.22,1
128.00,86.43,1
93.00,86.97,1
68.00,87.66,1
70.00,87.76,1
101.00,87.49,1
71.00,87.22,1
86.00,86.85,1
80.00,86.37,1
49.00,85.59,1
88.00,84.36,1
68.00,83.05,1
56.00,81.63,1
127.00,80.39,1
49.00,79.76,1
54.00,78.94,1
83.00,77.69,1
38.00,76.30,1
100.00,74.87,1
103.00,74.12,1
76.00,74.26,1
48.00,74.42,1
53.00,73.94,1
127.00,73.46,1
139.00,74.35,1
113.00,76.86,1
39.00,79.56,1
46.00,80.94,1
91.00,81.14,1
176.00,81.94,1
144.00,84.70,1
90.00,88.61,1
94.00,92.11,1
166.00,95.38,1
69.00,98.82,1
86.00,101.39,1
69.00,102.55,1
40.00,102.22,1
47.00,100.21,1
67.00,97.02,1
36.00,93.18,1
62.00,88.83,1
41.00,84.24,1
136.00,80.28,1
69.00,77.78,1
37.00,75.88,1
175.00,74.56,1
84.00,74.99,1
107.00,76.56,1
62.00,78.19,1
87.00,79.48,1
100.00,80.61,1
137.00,82.31,1
39.00,84.30,1
96.00,85.59,1
92.00,86.41,1
87.00,87.21,1
94.00,87.91,1
154.00,89.07,1
94.00,91.12,1
117.00,93.46,1
135.00,95.97,1
73.00,98.52,1
70.00,100.09,1
49.00,100.13,1
42.00,98.58,1
80.00,95.89,1
135.00,93.46,1
91.00,92.17,1
80.00,91.44,1
48.00,90.32,1
77.00,88.57,1
92.00,86.74,1
90.00,85.38,1
65.00,84.32,1
64.00,83.06,1
106.00,81.84,1
111.00,81.40,1
90.00,81.84,1
73.00,82.47,1
48.00,82.58,1
214.00,83.10,1
57.00,85.18,1
95.00,87.44,1
74.00,88.92,1
122.00,90.12,1
80.00,91.34,1
97.00,92.38,1
41.00,92.71,1
50.00,91.79,1
61.00,89.72,1
54.00,87.05,1
36.00,83.83,1
82.00,80.33,1
41.00,77.01,1
67.00,73.84,1
55.00,70.90,1
104.00,68.64,1
122.00,67.86,1
89.00,68.63,1
50.00,69.84,1
107.00,70.90,1
67.00,72.10,1
134.00,73.72,1
87.00,76.00,1
133.00,78.88,1
38.00,81.69,1
36.00,83.15,1
81.00,83.06,1
40.00,82.21,1
52.00,80.61,1
60.00,78.40,1
101.00,76.39,1
50.00,74.92,1
70.00,73.56,1
64.00,72.19,1
67.00,70.96,1
52.00,69.74,1
61.00,68.42,1
45.00,66.97,1
39.00,65.21,1
49.00,63.14,1
37.00,60.91,1
63.00,58.74,1
85.00,57.20,1
87.00,56.79,1
66.00,57.29,1
36.00,57.89,1
84.00,58.26,1
127.00,59.36,1
40.00,61.36,1
66.00,63.11,1
87.00,64.50,1
74.00,66.01,1
206.00,68.64,1
67.00,72.95,1
103.00,77.48,1
58.00,81.10,1
40.00,83.30,1
88.00,84.06,1
50.00,84.07,1
83.00,83.54,1
51.00,82.57,1
81.00,81.30,1
94.00,80.18,1
89.00,79.65,1
71.00,79.45,1
86.00,79.29,1
48.00,78.95,1
69.00,78.15,1
50.00,76.91,1
53.00,75.26,1
41.00,73.14,1
50.00,70.63,1
211.00,69.30,1
100.00,70.74,1
76.00,73.52,1
85.00,75.99,1
153.00,78.66,1
124.00,82.35,1
42.00,86.09,1
48.00,88.19,1
86.00,88.72,1
94.00,88.79,1
66.00,88.71,1
40.00,87.91,1
83.00,86.29,1
98.00,84.72,1
112.00,83.97,1
55.00,83.73,1
96.00,83.42,1
88.00,83.19,1
150.00,83.75,1
138.00,85.76,1
58.00,88.47,1
59.00,90.20,1
127.00,91.03,1
37.00,91.54,1
88.00,91.29,1
69.00,90.41,1
67.00,89.18,1
46.00,87.34,1
67.00,84.91,1
80.00,82.41,1
61.00,80.16,1
86.00,78.19,1
125.00,77.06,1
100.00,77.28,1
64.00,78.11,1
62.00,78.55,1
62.00,78.36,1
72.00,77.75,1
55.00,76.87,1
90.00,75.91,1
86.00,75.32,1
149.00,75.78,1
56.00,77.27,1
52.00,78.43,1
52.00,78.48,1
46.00,77.59,1
36.00,75.82,1
148.00,74.16,1
34.00,73.49,1
52.00,72.75,1
44.00,71.29,1
52.00,69.41,1
64.00,67.43,1
61.00,65.69,1
120.00,64.73,1
53.00,64.80,1
63.00,65.10,1
79.00,65.31,1
62.00,65.65,1
42.00,65.77,1
102.00,65.73,1
60.00,66.06,1
276.00,68.26,1
148.00,73.97,1
81.00,81.32,1
61.00,87.28,1
75.00,91.21,1
72.00,93.50,1
164.00,95.31,1
106.00,97.72,1
148.00,100.66,1
81.00,103.56,1
140.00,106.05,1
103.00,108.28,1
34.00,109.52,1
68.00,108.82,1
60.00,106.59,1
39.00,103.22,1
130.00,99.46,1
158.00,97.08,1
47.00,96.16,1
48.00,94.75,1
40.00,92.06,1
89.00,88.75,1
103.00,85.96,1
112.00,84.37,1
169.00,84.47,1
74.00,86.08,1
127.00,88.14,1
52.00,89.93,1
87.00,90.94,1
120.00,91.57,1
115.00,92.67,1
74.00,93.95,1
53.00,94.42,1
40.00,93.48,1
127.00,91.80,1
234.00,91.85,1
76.00,94.42,1
37.00,96.75,1
71.00,97.14,1
247.00,97.75,1
74.00,100.27,1
63.00,102.66,1
61.00,103.23,1
49.00,102.19,1
79.00,99.97,1
43.00,97.04,1
70.00,93.54,1
62.00,89.81,1
56.00,86.07,1
58.00,82.29,1
108.00,79.02,1
114.00,77.13,1
149.00,77.16,1
70.00,78.61,1
114.00,80.45,1
141.00,82.82,1
101.00,85.99,1
125.00,89.44,1
185.00,93.54,1
77.00,98.29,1
94.00,102.23,1
66.00,104.57,1
122.00,105.77,1
40.00,106.07,1
115.00,105.41,1
83.00,104.34,1
168.00,103.79,1
49.00,103.82,1
46.00,102.98,1
47.00,100.47,1
60.00,96.90,1
38.00,92.67,1
107.00,88.41,1
42.00,84.67,1
51.00,81.03,1
126.00,77.82,1
98.00,76.12,1
59.00,75.46,1
105.00,75.12,1
68.00,75.17,1
74.00,75.32,1
100.00,75.56,1
45.00,75.88,1
47.00,75.57,1
107.00,74.87,1
164.00,75.37,1
78.00,77.52,1
53.00,79.68,1
92.00,80.96,1
127.00,82.27,1
156.00,84.71,1
100.00,88.20,1
53.00,91.33,1
62.00,92.89,1
87.00,93.18,1
169.00,93.67,1
43.00,94.82,1
56.00,95.13,1
66.00,94.05,1
51.00,92.09,1
62.00,89.45,1
48.00,86.33,1
37.00,82.69,1
73.00,78.80,1
57.00,75.22,1
105.00,72.44,1
82.00,70.81,1
79.00,70.11,1
112.00,70.18,1
83.00,71.11,1
103.00,72.61,1
65.00,74.28,1
40.00,75.35,1
100.00,75.69,1
128.00,76.50,1
166.00,78.91,1
62.00,82.46,1
64.00,85.36,1
44.00,86.66,1
118.00,87.00,1
69.00,87.28,1
80.00,87.37,1
132.00,87.54,1
36.00,87.91,1
87.00,87.70,1
67.00,86.93,1
89.00,86.03,1
40.00,84.85,1
59.00,83.04,1
57.00,80.68,1
45.00,78.02,1
44.00,74.99,1
108.00,72.20,1
81.00,70.51,1
78.00,69.78,1
86.00,69.60,1
75.00,69.84,1
76.00,70.30,1
122.00,71.21,1
44.00,72.56,1
50.00,73.33,1
102.00,73.52,1
114.00,74.28,1
117.00,76.12,1
73.00,78.48,1
126.00,80.90,1
52.00,83.18,1
101.00,84.90,1
44.00,85.86,1
52.00,85.74,1
40.00,84.35,1
35.00,81.88,1
67.00,78.75,1
57.00,75.63,1
131.00,73.35,1
82.00,72.52,1
68.00,72.51,1
65.00,72.44,1
69.00,72.20,1
75.00,71.92,1
65.00,71.68,1
65.00,71.36,1
145.00,71.57,1
97.00,73.10,1
76.00,75.30,1
53.00,76.98,1
127.00,78.26,1
62.00,79.70,1
104.00,81.10,1
71.00,82.30,1
116.00,83.48,1
140.00,85.28,1
110.00,88.02,1
58.00,90.65,1
46.00,91.91,1
99.00,91.88,1
92.00,91.60,1
40.00,91.02,1
57.00,89.46,1
38.00,86.91,1
57.00,83.66,1
55.00,80.14,1
110.00,77.10,1
42.00,74.87,1
60.00,72.80,1
41.00,70.50,1
43.00,67.94,1
80.00,65.46,1
95.00,63.88,1
139.00,63.96,1
69.00,65.57,1
39.00,67.24,1
124.00,68.53,1
90.00,70.36,1
151.00,73.19,1
62.00,76.67,1
56.00,79.51,1
118.00,81.45,1
80.00,83.32,1
76.00,84.90,1
38.00,85.53,1
153.00,85.69,1
82.00,86.52,1
78.00,87.55,1
64.00,87.94,1
73.00,87.63,1
76.00,86.85,1
48.00,85.65,1
56.00,83.78,1
64.00,81.45,1
39.00,78.83,1
45.00,75.76,1
76.00,72.62,1
54.00,69.91,1
44.00,67.42,1
65.00,65.01,1
55.00,62.92,1
108.00,61.60,1
120.00,61.78,1
118.00,63.73,1
70.00,66.63,1
96.00,69.56,1
60.00,72.15,1
128.00,74.57,1
148.00,77.79,1
112.00,82.13,1
119.00,86.76,1
98.00,91.11,1
98.00,94.82,1
70.00,97.51,1
55.00,98.74,1
70.00,98.45,1
92.00,97.34,1
39.00,95.69,1
39.00,92.98,1
36.00,89.10,1
90.00,84.85,1
97.00,81.42,1
85.00,79.17,1
74.00,77.67,1
45.00,76.25,1
72.00,74.60,1
78.00,73.09,1
50.00,71.82,1
110.00,70.86,1
44.00,70.40,1
80.00,70.01,1
127.00,70.15,1
44.00,71.07,1
63.00,71.71,1
43.00,71.59,1
106.00,71.23,1
65.00,71.25,1
49.00,71.27,1
83.00,70.96,1
84.00,70.84,1
59.00,70.98,1
98.00,71.22,1
35.00,71.44,1
66.00,71.18,1
49.00,70.42,1
38.00,69.17,1
108.00,67.85,1
70.00,67.29,1
47.00,67.08,1
67.00,66.62,1
37.00,65.86,1
44.00,64.62,1
83.00,63.27,1
38.00,62.20,1
67.00,61.19,1
128.00,60.89,1
80.00,61.99,1
54.00,63.61,1
89.00,65.02,1
47.00,66.25,1
102.00,67.36,1
92.00,68.80,1
60.00,70.49,1
86.00,71.90,1
74.00,73.12,1
68.00,74.13,1
76.00,74.81,1
67.00,75.22,1
71.00,75.37,1
70.00,75.30,1
94.00,75.27,1
104.00,75.76,1
63.00,76.64,1
38.00,76.99,1
72.00,76.44,1
88.00,75.73,1
61.00,75.24,1
52.00,74.55,1
41.00,73.26,1
104.00,71.82,1
41.00,70.75,1
94.00,69.91,1
107.00,69.74,1
78.00,70.51,1
122.00,71.95,1
87.00,74.05,1
50.00,76.06,1
129.00,77.68,1
83.00,79.58,1
143.00,82.02,1
47.00,84.61,1
103.00,86.59,1
68.00,87.88,1
84.00,88.62,1
68.00,88.77,1
62.00,88.27,1
74.00,87.17,1
132.00,86.28,1
63.00,86.07,1
45.00,85.57,1
37.00,83.92,1
61.00,81.39,1
43.00,78.43,1
58.00,75.28,1
40.00,72.04,1
96.00,69.13,1
186.00,68.10,1
85.00,69.64,1
38.00,71.78,1
114.00,73.30,1
115.00,75.19,1
128.00,78.05,1
57.00,81.18,1
104.00,83.73,1
68.00,85.66,1
69.00,86.84,1
96.00,87.37,1
53.00,87.47,1
89.00,87.05,1
50.00,86.17,1
70.00,84.80,1
38.00,82.81,1
58.00,80.25,1
74.00,77.54,1
127.00,75.67,1
85.00,75.18,1
72.00,75.37,1
127.00,75.97,1
63.00,77.14,1
106.00,78.44,1
76.00,79.74,1
47.00,80.61,1
41.00,80.36,1
58.00,79.04,1
38.00,77.04,1
39.00,74.39,1
70.00,71.46,1
84.00,69.04,1
147.00,68.09,1
118.00,69.22,1
61.00,71.46,1
48.00,73.18,1
65.00,73.90,1
219.00,75.30,1
91.00,78.79,1
66.00,82.70,1
115.00,85.72,1
116.00,88.58,1
72.00,91.30,1
126.00,93.53,1
52.00,95.24,1
252.00,97.37,1
55.00,100.82,1
61.00,103.60,1
101.00,104.60,1
36.00,104.37,1
44.00,102.53,1
70.00,99.34,1
79.00,95.81,1
102.00,92.69,1
64.00,90.12,1
41.00,87.42,1
60.00,84.18,1
49.00,80.66,1
38.00,76.93,1
106.00,73.47,1
193.00,72.07,1
68.00,73.28,1
64.00,75.02,1
97.00,76.28,1
55.00,77.31,1
103.00,78.09,1
84.00,78.96,1
98.00,80.07,1
119.00,81.55,1
56.00,83.23,1
115.00,84.61,1
64.00,85.76,1
77.00,86.43,1
64.00,86.42,1
87.00,85.97,1
113.00,85.68,1
150.00,86.47,1
50.00,88.05,1
36.00,88.70,1
104.00,88.13,1
51.00,87.22,1
55.00,85.80,1
53.00,83.64,1
60.00,81.05,1
64.00,78.37,1
48.00,75.68,1
66.00,73.01,1
166.00,71.42,1
42.00,71.49,1
36.00,71.55,1
74.00,70.77,1
53.00,69.80,1
99.00,69.06,1
95.00,69.08,1
71.00,69.80,1
127.00,71.04,1
42.00,72.67,1
121.00,74.26,1
68.00,75.91,1
83.00,77.47,1
70.00,78.61,1
59.00,79.21,1
37.00,78.90,1
63.00,77.67,1
95.00,76.29,1
117.00,75.78,1
48.00,76.02,1
67.00,76.00,1
43.00,75.34,1
61.00,74.10,1
66.00,72.61,1
85.00,71.38,1
80.00,70.71,1
42.00,70.23,1
59.00,69.38,1
133.00,68.87,1
40.00,69.23,1
96.00,69.77,1
78.00,70.43,1
131.00,71.78,1
96.00,74.04,1
73.00,76.58,1
76.00,78.61,1
71.00,80.00,1
83.00,80.89,1
97.00,81.66,1
236.00,83.79,1
67.00,87.90,1
138.00,92.32,1
44.00,95.83,1
59.00,97.68,1
90.00,97.92,1
36.00,97.13,1
88.00,95.39,1
69.00,93.24,1
53.00,90.82,1
83.00,88.11,1
71.00,85.53,1
95.00,83.39,1
83.00,81.86,1
70.00,80.72,1
55.00,79.48,1
41.00,77.73,1
83.00,75.65,1
136.00,74.41,1
61.00,74.45,1
49.00,74.56,1
45.00,73.87,1
121.00,73.05,1
53.00,72.81,1
48.00,72.50,1
185.00,72.63,1
40.00,74.13,1
43.00,75.35,1
37.00,75.12,1
67.00,73.98,1
47.00,72.46,1
57.00,70.71,1
106.00,69.25,1
95.00,68.85,1
95.00,69.52,1
38.00,70.40,1
67.00,70.71,1
38.00,70.33,1
36.00,69.19,1
46.00,67.32,1
37.00,65.03,1
63.00,62.66,1
70.00,60.70,1
67.00,59.45,1
59.00,58.70,1
82.00,58.40,1
41.00,58.43,1
92.00,58.63,1
68.00,59.28,1
87.00,60.41,1
99.00,62.10,1
71.00,64.28,1
186.00,67.34,1
53.00,71.56,1
38.00,75.13,1
63.00,76.94,1
184.00,78.64,1
36.00,81.21,1
50.00,83.00,1
56.00,83.21,1
81.00,82.62,1
70.00,81.83,1
94.00,81.12,1
42.00,80.38,1
71.00,79.21,1
41.00,77.56,1
71.00,75.59,1
92.00,73.86,1
62.00,72.73,1
47.00,71.64,1
70.00,70.31,1
44.00,68.88,1
60.00,67.32,1
62.00,65.78,1
72.00,64.55,1
38.00,63.50,1
64.00,62.35,1
72.00,61.38,1
63.00,60.86,1
70.00,60.66,1
124.00,61.21,1
62.00,62.76,1
69.00,64.48,1
49.00,65.72,1
89.00,66.60,1
124.00,67.97,1
56.00,70.01,1
84.00,71.90,1
56.00,73.26,1
129.00,74.57,1
63.00,76.21,1
57.00,77.52,1
85.00,78.11,1
47.00,78.24,1
84.00,77.92,1
49.00,77.29,1
38.00,76.06,1
45.00,74.02,1
37.00,71.37,1
47.00,68.36,1
55.00,65.35,1
51.00,62.62,1
132.00,60.87,1
65.00,60.68,1
84.00,61.39,1
76.00,62.46,1
128.00,64.22,1
83.00,66.88,1
61.00,69.63,1
36.00,71.40,1
126.00,72.52,1
43.00,73.72,1
77.00,74.58,1
62.00,74.91,1
86.00,75.05,1
44.00,74.98,1
94.00,74.66,1
84.00,74.56,1
199.00,75.84,1
90.00,79.04,1
42.00,82.35,1
132.00,84.67,1
38.00,86.47,1
48.00,87.09,1
52.00,86.21,1
36.00,84.25,1
51.00,81.42,1
86.00,78.42,1
99.00,76.21,1
70.00,74.95,1
124.00,74.52,1
107.00,75.25,1
72.00,76.71,1
57.00,77.82,1
70.00,78.21,1
75.00,78.16,1
135.00,78.48,1
211.00,80.73,1
145.00,85.56,1
80.00,91.24,1
60.00,95.55,1
103.00,98.17,1
68.00,99.66,1
80.00,100.13,1
75.00,99.68,1
72.00,98.53,1
61.00,96.70,1
77.00,94.35,1
127.00,92.28,1
63.00,90.91,1
112.00,89.88,1
50.00,88.91,1
53.00,87.43,1
38.00,85.01,1
119.00,82.42,1
39.00,80.33,1
40.00,78.04,1
38.00,75.01,1
58.00,71.65,1
108.00,68.90,1
44.00,67.16,1
45.00,65.60,1
114.00,64.30,1
72.00,64.05,1
171.00,65.30,1
76.00,68.14,1
214.00,72.47,1
104.00,78.44,1
90.00,84.61,1
62.00,89.36,1
122.00,92.80,1
43.00,95.22,1
77.00,96.27,1
62.00,96.03,1
44.00,94.68,1
89.00,92.50,1
74.00,90.24,1
55.00,87.94,1
108.00,85.70,1
57.00,83.88,1
47.00,81.94,1
82.00,79.69,1
70.00,77.66,1
52.00,75.82,1
49.00,73.75,1
116.00,71.94,1
114.00,71.44,1
86.00,72.26,1
89.00,73.60,1
63.00,74.89,1
92.00,75.92,1
57.00,76.71,1
104.00,77.34,1
135.00,78.56,1
57.00,80.47,1
70.00,81.90,1
57.00,82.37,1
98.00,82.33,1
72.00,82.26,1
43.00,81.84,1
109.00,81.02,1
51.00,80.29,1
43.00,79.18,1
63.00,77.36,1
49.00,75.22,1
65.00,72.97,1
81.00,71.00,1
74.00,69.64,1
45.00,68.57,1
55.00,67.30,1
72.00,65.98,1
120.00,65.44,1
38.00,65.77,1
88.00,66.19,1
105.00,66.96,1
51.00,68.22,1
88.00,69.36,1
135.00,70.92,1
109.00,73.64,1
82.00,76.87,1
108.00,79.94,1
35.00,82.38,1
88.00,83.71,1
101.00,84.53,1
70.00,85.33,1
42.00,85.46,1
43.00,84.36,1
68.00,82.37,1
97.00,80.41,1
95.00,79.22,1
40.00,78.40,1
42.00,76.98,1
44.00,74.73,1
113.00,72.55,1
118.00,71.71,1
62.00,72.12,1
36.00,72.34,1
66.00,71.77,1
90.00,71.10,1
48.00,70.67,1
96.00,70.34,1
40.00,70.07,1
126.00,70.05,1
116.00,71.09,1
83.00,73.20,1
80.00,75.37,1
89.00,77.28,1
131.00,79.38,1
107.00,82.16,1
172.00,85.83,1
91.00,90.27,1
90.00,94.34,1
40.00,96.87,1
137.00,98.13,1
70.00,99.01,1
121.00,99.70,1
57.00,99.98,1
107.00,99.70,1
107.00,99.32,1
74.00,99.01,1
47.00,97.99,1
73.00,95.95,1
44.00,93.19,1
100.00,90.16,1
88.00,87.62,1
39.00,85.39,1
53.00,82.70,1
62.00,79.61,1
58.00,76.58,1
128.00,74.27,1
203.00,74.34,1
134.00,77.48,1
97.00,82.01,1
103.00,86.30,1
104.00,90.07,1
52.00,92.96,1
96.00,94.59,1
76.00,95.34,1
76.00,95.43,1
44.00,94.60,1
131.00,93.26,1
127.00,92.75,1
127.00,93.53,1
102.00,95.03,1
98.00,96.58,1
45.00,97.40,1
92.00,97.11,1
58.00,96.04,1
70.00,94.35,1
91.00,92.33,1
71.00,90.42,1
36.00,88.20,1
47.00,85.15,1
69.00,81.67,1
116.00,78.80,1
108.00,77.41,1
59.00,77.03,1
42.00,76.41,1
45.00,74.96,1
87.00,73.19,1
78.00,71.88,1
154.00,71.80,1
100.00,73.39,1
94.00,75.88,1
38.00,77.95,1
39.00,78.67,1
45.00,77.93,1
92.00,76.62,1
68.00,75.55,1
66.00,74.67,1
40.00,73.51,1
127.00,72.46,1
36.00,71.99,1
36.00,71.20,1
62.00,69.66,1
40.00,67.83,1
43.00,65.72,1
108.00,63.89,1
82.00,63.21,1
38.00,63.16,1
53.00,62.78,1
108.00,62.50,1
68.00,63.02,1
45.00,63.71,1
133.00,64.54,1
70.00,66.20,1
89.00,68.27,1
43.00,70.00,1
52.00,70.86,1
92.00,71.15,1
90.00,71.71,1
125.00,73.06,1
92.00,75.25,1
68.00,77.54,1
109.00,79.50,1
88.00,81.45,1
61.00,83.11,1
54.00,83.78,1
68.00,83.48,1
69.00,82.62,1
65.00,81.47,1
43.00,79.90,1
34.00,77.59,1
60.00,74.67,1
100.00,72.08,1
84.00,70.57,1
68.00,69.86,1
60.00,69.34,1
38.00,68.51,1
78.00,67.38,1
69.00,66.47,1
75.00,65.99,1
56.00,65.72,1
53.00,65.32,1
106.00,65.07,1
38.00,65.25,1
119.00,65.71,1
178.00,67.64,1
127.00,71.89,1
158.00,77.63,1
43.00,83.44,1
120.00,88.10,1
65.00,91.60,1
106.00,94.18,1
88.00,96.03,1
89.00,97.33,1
36.00,97.59,1
71.00,96.48,1
107.00,94.80,1
67.00,93.29,1
39.00,91.39,1
70.00,88.68,1
74.00,85.78,1
97.00,83.35,1
73.00,81.57,1
35.00,79.81,1
82.00,77.70,1
51.00,75.58,1
72.00,73.59,1
73.00,71.86,1
76.00,70.60,1
121.00,70.18,1
201.00,71.82,1
50.00,75.41,1
37.00,78.43,1
95.00,79.96,1
176.00,81.81,1
64.00,84.75,1
199.00,88.35,1
97.00,92.77,1
48.00,96.72,1
57.00,98.56,1
40.00,98.36,1
81.00,96.76,1
67.00,94.56,1
39.00,91.85,1
192.00,89.55,1
96.00,89.14,1
36.00,89.35,1
66.00,88.49,1
55.00,86.74,1
73.00,84.60,1
51.00,82.26,1
68.00,79.77,1
65.00,77.31,1
104.00,75.39,1
75.00,74.32,1
83.00,73.83,1
86.00,73.72,1
156.00,74.59,1
70.00,76.67,1
45.00,78.54,1
53.00,79.11,1
88.00,78.91,1
67.00,78.58,1
95.00,78.36,1
52.00,78.16,1
98.00,77.87,1
86.00,77.84,1
114.00,78.42,1
108.00,79.76,1
157.00,82.17,1
85.00,85.46,1
70.00,88.42,1
79.00,90.26,1
74.00,91.17,1
50.00,91.13,1
50.00,89.93,1
47.00,87.67,1
91.00,84.99,1
41.00,82.37,1
77.00,79.73,1
110.00,77.60,1
65.00,76.41,1
132.00,76.07,1
144.00,77.20,1
49.00,79.39,1
172.00,81.85,1
56.00,84.73,1
52.00,86.89,1
66.00,87.52,1
103.00,87.48,1
36.00,87.09,1
71.00,85.95,1
103.00,84.56,1
44.00,83.37,1
137.00,82.41,1
68.00,82.16,1
35.00,81.79,1
53.00,80.39,1
52.00,78.26,1
96.00,76.15,1
62.00,74.56,1
94.00,73.49,1
121.00,73.31,1
41.00,73.88,1
43.00,73.91,1
175.00,73.98,1
129.00,75.93,1
42.00,78.83,1
79.00,80.83,1
89.00,82.07,1
96.00,83.21,1
150.00,84.89,1
73.00,87.24,1
77.00,89.23,1
128.00,90.72,1
42.00,91.95,1
60.00,92.08,1
51.00,90.89,1
42.00,88.67,1
149.00,86.40,1
49.00,85.02,1
96.00,84.00,1
67.00,83.00,1
114.00,82.33,1
74.00,82.16,1
390.00,84.72,1
37.00,91.26,1
35.00,97.35,1
53.00,100.08,1
41.00,100.34,1
76.00,98.97,1
75.00,96.87,1
103.00,94.79,1
37.00,92.70,1
65.00,90.05,1
78.00,87.07,1
131.00,84.84,1
72.00,83.74,1
89.00,83.15,1
74.00,82.63,1
37.00,81.77,1
55.00,80.08,1
47.00,77.74,1
88.00,75.35,1
111.00,73.81,1
57.00,73.23,1
148.00,73.45,1
83.00,74.80,1
91.00,76.71,1
66.00,78.36,1
173.00,80.29,1
102.00,83.36,1
67.00,86.62,1
139.00,89.33,1
52.00,91.72,1
42.00,92.84,1
45.00,92.13,1
37.00,89.93,1
34.00,86.53,1
45.00,82.32,1
66.00,77.97,1
58.00,74.03,1
37.00,70.39,1
36.00,66.69,1
65.00,63.11,1
40.00,60.00,1
86.00,57.56,1
102.00,56.40,1
95.00,56.87,1
114.00,58.70,1
128.00,61.88,1
127.00,66.38,1
97.00,71.58,1
44.00,76.17,1
63.00,79.19,1
112.00,81.20,1
42.00,82.75,1
60.00,83.30,1
68.00,82.87,1
96.00,82.21,1
65.00,81.67,1
126.00,81.48,1
37.00,81.56,1
45.00,80.95,1
81.00,79.51,1
63.00,78.03,1
48.00,76.41,1
75.00,74.59,1
63.00,72.90,1
35.00,71.15,1
38.00,68.87,1
112.00,66.71,1
106.00,65.93,1
133.00,66.92,1
62.00,69.07,1
82.00,71.22,1
86.00,73.09,1
136.00,75.31,1
94.00,78.26,1
120.00,81.59,1
150.00,85.43,1
100.00,89.83,1
188.00,94.66,1
71.00,99.72,1
129.00,104.07,1
130.00,107.72,1
157.00,111.46,1
206.00,116.00,1
50.00,120.74,1
71.00,123.46,1
43.00,123.37,1
137.00,121.65,1
61.00,119.45,1
55.00,116.41,1
73.00,112.26,1
67.00,107.61,1
47.00,102.62,1
69.00,97.33,1
126.00,92.66,1
178.00,90.18,1
39.00,89.61,1
49.00,88.74,1
81.00,86.93,1
83.00,85.12,1
87.00,83.68,1
107.00,82.84,1
86.00,82.66,1
38.00,82.41,1
71.00,81.42,1
78.00,80.11,1
65.00,78.88,1
146.00,78.27,1
102.00,79.02,1
120.00,80.86,1
125.00,83.45,1
60.00,86.21,1
68.00,88.04,1
53.00,88.57,1
38.00,87.79,1
35.00,85.65,1
58.00,82.53,1
41.00,79.02,1
37.00,75.20,1
60.00,71.25,1
49.00,67.60,1
73.00,64.49,1
45.00,61.99,1
83.00,60.07,1
100.00,59.21,1
137.00,60.06,1
126.00,62.85,1
81.00,66.78,1
45.00,70.31,1
111.00,73.00,1
64.00,75.36,1
111.00,77.56,1
108.00,79.93,1
48.00,82.18,1
67.00,83.42,1
88.00,83.84,1
121.00,84.40,1
93.00,85.53,1
155.00,87.38,1
60.00,89.74,1
96.00,91.62,1
58.00,92.58,1
37.00,92.29,1
112.00,91.03,1
57.00,89.69,1
149.00,88.80,1
93.00,88.91,1
62.00,89.33,1
93.00,89.25,1
116.00,89.25,1
78.00,89.63,1
55.00,89.66,1
104.00,89.13,1
39.00,88.27,1
75.00,86.82,1
100.00,85.23,1
75.00,84.10,1
40.00,82.86,1
75.00,81.06,1
74.00,79.20,1
71.00,77.59,1
121.00,76.60,1
43.00,76.26,1
115.00,76.14,1
143.00,76.98,1
90.00,79.14,1
58.00,81.31,1
75.00,82.59,1
110.00,83.45,1
44.00,84.16,1
94.00,84.31,1
93.00,84.33,1
43.00,84.22,1
55.00,83.29,1
59.00,81.58,1
85.00,79.72,1
65.00,78.10,1
75.00,76.68,1
116.00,75.80,1
80.00,75.83,1
42.00,75.98,1
97.00,75.73,1
99.00,75.81,1
132.00,76.91,1
149.00,79.44,1
61.00,82.80,1
79.00,85.50,1
45.00,86.90,1
166.00,87.86,1
41.00,89.14,1
109.00,90.12,1
98.00,90.83,1
108.00,91.79,1
156.00,93.37,1
50.00,95.37,1
107.00,96.74,1
91.00,97.51,1
59.00,97.75,1
64.00,96.95,1
68.00,95.25,1
83.00,93.13,1
67.00,90.93,1
76.00,88.67,1
70.00,86.41,1
66.00,84.16,1
73.00,81.95,1
164.00,80.67,1
115.00,81.30,1
115.00,83.30,1
80.00,85.58,1
110.00,87.67,1
148.00,90.06,1
112.00,93.20,1
84.00,96.27,1
80.00,98.40,1
64.00,99.29,1
47.00,98.79,1
193.00,98.05,1
72.00,98.42,1
119.00,99.22,1
107.00,99.99,1
65.00,100.56,1
124.00,100.65,1
66.00,100.52,1
43.00,99.56,1
81.00,97.46,1
99.00,95.14,1
45.00,92.92,1
150.00,90.96,1
61.00,89.82,1
67.00,88.78,1
167.00,88.05,1
105.00,88.78,1
60.00,90.01,1
98.00,90.64,1
155.00,91.52,1
72.00,93.13,1
135.00,94.87,1
93.00,96.65,1
142.00,98.63,1
111.00,100.92,1
148.00,103.55,1
80.00,106.16,1
112.00,108.10,1
181.00,110.01,1
86.00,112.45,1
132.00,114.60,1
34.00,115.62,1
186.00,115.75,1
70.00,115.95,1
242.00,116.97,1
61.00,118.98,1
109.00,120.48,1
146.00,121.15,1
74.00,121.58,1
87.00,121.03,1
40.00,118.98,1
246.00,116.89,1
47.00,116.24,1
70.00,115.28,1
48.00,112.67,1
39.00,108.66,1
82.00,103.72,1
92.00,98.97,1
40.00,94.62,1
65.00,90.14,1
124.00,86.18,1
44.00,83.28,1
120.00,81.08,1
84.00,79.77,1
86.00,79.24,1
40.00,78.66,1
70.00,77.55,1
92.00,76.40,1
125.00,76.13,1
62.00,76.77,1
93.00,77.54,1
150.00,78.86,1
134.00,81.63,1
40.00,84.83,1
55.00,86.67,1
78.00,87.08,1
44.00,86.61,1
95.00,85.53,1
84.00,84.51,1
73.00,83.71,1
110.00,83.16,1
80.00,83.07,1
81.00,83.17,1
52.00,82.91,1
150.00,82.74,1
64.00,83.32,1
120.00,84.30,1
123.00,85.79,1
36.00,87.41,1
106.00,88.23,1
91.00,88.73,1
41.00,88.90,1
135.00,88.63,1
130.00,89.15,1
80.00,90.52,1
68.00,91.53,1
62.00,91.56,1
75.00,90.76,1
61.00,89.41,1
145.00,88.25,1
40.00,87.69,1
110.00,87.13,1
84.00,86.67,1
66.00,86.29,1
43.00,85.30,1
36.00,83.26,1
76.00,80.54,1
66.00,77.91,1
75.00,75.68,1
202.00,74.93,1
73.00,76.46,1
38.00,78.28,1
55.00,78.76,1
163.00,79.08,1
82.00,80.54,1
151.00,82.93,1
153.00,86.46,1
151.00,91.33,1
53.00,96.20,1
117.00,99.81,1
87.00,102.35,1
88.00,104.02,1
107.00,104.90,1
121.00,105.59,1
44.00,105.88,1
48.00,104.71,1
72.00,102.11,1
63.00,98.88,1
127.00,95.83,1
124.00,94.00,1
77.00,93.24,1
90.00,92.63,1
61.00,91.72,1
99.00,90.57,1
43.00,89.19,1
75.00,87.34,1
44.00,85.00,1
101.00,82.60,1
100.00,80.90,1
73.00,80.04,1
60.00,79.26,1
75.00,78.26,1
127.00,77.70,1
71.00,78.01,1
121.00,78.90,1
82.00,80.24,1
80.00,81.62,1
47.00,82.35,1
127.00,82.68,1
138.00,83.82,1
153.00,86.55,1
75.00,90.06,1
114.00,93.20,1
69.00,95.58,1
108.00,97.20,1
109.00,98.48,1
128.00,99.95,1
153.00,102.05,1
41.00,104.20,1
71.00,104.92,1
105.00,104.37,1
104.00,103.68,1
49.00,102.72,1
88.00,100.99,1
42.00,98.54,1
41.00,95.17,1
52.00,90.91,1
72.00,86.45,1
115.00,82.77,1
65.00,80.28,1
59.00,78.25,1
97.00,76.43,1
54.00,75.06,1
115.00,74.18,1
73.00,74.02,1
114.00,74.54,1
86.00,75.68,1
64.00,76.94,1
69.00,77.70,1
146.00,78.58,1
81.00,80.30,1
59.00,81.98,1
106.00,83.07,1
157.00,84.69,1
74.00,87.19,1
84.00,89.43,1
35.00,90.45,1
89.00,90.26,1
106.00,89.76,1
106.00,89.78,1
48.00,89.86,1
63.00,89.13,1
72.00,87.66,1
39.00,85.68,1
58.00,83.05,1
66.00,80.14,1
77.00,77.48,1
138.00,75.87,1
69.00,75.64,1
104.00,76.11,1
117.00,77.21,1
68.00,78.85,1
75.00,80.20,1
66.00,80.92,1
75.00,81.12,1
84.00,81.08,1
92.00,81.13,1
134.00,81.81,1
46.00,82.98,1
68.00,83.56,1
80.00,83.40,1
128.00,83.47,1
56.00,84.01,1
103.00,84.47,1
56.00,84.66,1
98.00,84.59,1
72.00,84.42,1
53.00,83.94,1
58.00,82.74,1
61.00,80.99,1
66.00,79.02,1
70.00,77.08,1
84.00,75.45,1
119.00,74.67,1
71.00,74.86,1
48.00,75.09,1
152.00,75.41,1
52.00,76.50,1
71.00,77.51,1
141.00,78.47,1
184.00,81.04,1
80.00,85.20,1
88.00,89.11,1
100.00,92.08,1
71.00,94.26,1
55.00,95.25,1
34.00,94.62,1
183.00,93.55,1
92.00,93.72,1
141.00,94.95,1
100.00,96.66,1
68.00,98.14,1
78.00,98.62,1
63.00,98.10,1
46.00,96.51,1
75.00,94.00,1
64.00,91.13,1
51.00,88.03,1
54.00,84.57,1
61.00,80.97,1
97.00,77.81,1
69.00,75.52,1
59.00,73.71,1
166.00,72.83,1
64.00,73.54,1
109.00,74.97,1
91.00,76.67,1
105.00,78.70,1
112.00,81.05,1
109.00,83.79,1
151.00,87.08,1
43.00,90.46,1
115.00,92.94,1
67.00,94.56,1
122.00,95.73,1
54.00,96.47,1
50.00,96.15,1
103.00,94.85,1
109.00,93.74,1
64.00,92.98,1
76.00,91.91,1
39.00,90.16,1
49.00,87.53,1
64.00,84.29,1
89.00,81.24,1
63.00,78.75,1
64.00,76.57,1
48.00,74.35,1
43.00,71.88,1
70.00,69.32,1
75.00,67.21,1
38.00,65.52,1
106.00,64.19,1
39.00,63.46,1
101.00,63.16,1
115.00,63.80,1
138.00,66.10,1
71.00,69.48,1
66.00,72.61,1
92.00,75.02,1
83.00,77.13,1
108.00,79.20,1
76.00,81.27,1
90.00,83.04,1
69.00,84.32,1
81.00,85.06,1
122.00,85.73,1
110.00,87.00,1
92.00,88.68,1
46.00,89.84,1
53.00,89.71,1
80.00,88.55,1
49.00,86.91,1
64.00,84.78,1
39.00,82.14,1
76.00,79.22,1
44.00,76.31,1
38.00,73.25,1
58.00,69.97,1
76.00,67.06,1
39.00,64.69,1
108.00,62.92,1
101.00,62.44,1
157.00,63.87,1
122.00,67.32,1
75.00,71.65,1
133.00,75.92,1
65.00,80.01,1
79.00,83.30,1
109.00,85.79,1
132.00,88.39,1
34.00,90.81,1
155.00,92.58,1
81.00,94.37,1
39.00,95.55,1
61.00,95.11,1
45.00,93.32,1
58.00,90.59,1
111.00,87.77,1
50.00,85.45,1
69.00,83.18,1
60.00,80.76,1
86.00,78.52,1
38.00,76.45,1
69.00,74.26,1
36.00,71.88,1
79.00,69.52,1
102.00,67.88,1
52.00,67.16,1
164.00,67.45,1
68.00,69.18,1
84.00,71.37,1
64.00,73.16,1
66.00,74.39,1
166.00,75.86,1
69.00,78.34,1
102.00,81.00,1
162.00,83.93,1
116.00,87.87,1
99.00,92.04,1
69.00,95.33,1
110.00,97.53,1
42.00,98.72,1
62.00,98.46,1
51.00,96.79,1
45.00,94.04,1
55.00,90.43,1
42.00,86.32,1
61.00,82.00,1
79.00,78.01,1
84.00,74.90,1
74.00,72.72,1
102.00,71.42,1
104.00,71.24,1
130.00,72.37,1
85.00,74.55,1
55.00,76.68,1
103.00,78.22,1
97.00,79.76,1
80.00,81.42,1
61.00,82.61,1
153.00,83.72,1
64.00,85.37,1
39.00,86.45,1
170.00,86.98,1
88.00,88.38,1
148.00,90.61,1
40.00,92.82,1
42.00,93.64,1
55.00,92.65,1
106.00,90.95,1
37.00,89.17,1
52.00,86.77,1
80.00,83.91,1
46.00,81.08,1
45.00,78.04,1
48.00,74.68,1
37.00,71.11,1
64.00,67.59,1
71.00,64.62,1
119.00,62.93,1
50.00,62.53,1
84.00,62.66,1
36.00,62.79,1
46.00,62.47,1
88.00,61.95,1
60.00,61.84,1
93.00,62.20,1
81.00,63.12,1
104.00,64.70,1
110.00,67.07,1
58.00,69.82,1
64.00,72.00,1
84.00,73.51,1
75.00,74.76,1
172.00,76.60,1
129.00,80.00,1
95.00,84.29,1
61.00,87.90,1
52.00,89.96,1
107.00,90.81,1
66.00,91.20,1
51.00,90.86,1
76.00,89.63,1
47.00,87.78,1
41.00,85.22,1
58.00,82.00,1
78.00,78.77,1
70.00,76.07,1
127.00,74.35,1
79.00,73.93,1
89.00,74.26,1
127.00,75.23,1
126.00,77.38,1
68.00,80.16,1
55.00,82.24,1
87.00,83.29,1
68.00,83.78,1
107.00,84.11,1
44.00,84.27,1
200.00,84.87,1
84.00,86.89,1
43.00,88.95,1
56.00,89.44,1
73.00,88.72,1
82.00,87.59,1
44.00,86.15,1
56.00,84.07,1
50.00,81.41,1
108.00,78.88,1
48.00,76.95,1
107.00,75.50,1
57.00,74.55,1
52.00,73.62,1
79.00,72.46,1
37.00,71.22,1
74.00,69.80,1
36.00,68.24,1
71.00,66.58,1
106.00,65.47,1
86.00,65.52,1
116.00,66.65,1
95.00,68.72,1
127.00,71.60,1
142.00,75.48,1
72.00,79.95,1
40.00,83.39,1
136.00,85.63,1
119.00,88.07,1
56.00,90.57,1
86.00,92.09,1
84.00,92.77,1
43.00,92.68,1
71.00,91.54,1
54.00,89.63,1
41.00,87.03,1
99.00,84.11,1
102.00,81.94,1
39.00,80.40,1
63.00,78.59,1
110.00,76.89,1
121.00,76.40,1
54.00,76.85,1
91.00,77.30,1
40.00,77.37,1
62.00,76.79,1
70.00,75.74,1
39.00,74.43,1
145.00,73.40,1
107.00,73.80,1
75.00,75.26,1
114.00,76.95,1
111.00,79.11,1
73.00,81.52,1
122.00,83.80,1
95.00,86.16,1
74.00,88.30,1
103.00,89.86,1
48.00,90.79,1
125.00,91.16,1
56.00,91.36,1
75.00,91.07,1
130.00,90.61,1
76.00,90.67,1
64.00,90.57,1
37.00,89.49,1
91.00,87.59,1
81.00,85.73,1
83.00,84.27,1
78.00,83.05,1
61.00,81.86,1
61.00,80.40,1
66.00,78.69,1
38.00,76.70,1
118.00,74.79,1
54.00,73.59,1
104.00,72.98,1
150.00,73.50,1
108.00,75.71,1
99.00,78.75,1
94.00,81.76,1
131.00,84.80,1
47.00,87.64,1
70.00,89.35,1
98.00,90.04,1
110.00,90.70,1
37.00,91.14,1
54.00,90.41,1
73.00,88.68,1
65.00,86.61,1
131.00,84.94,1
60.00,84.06,1
41.00,83.02,1
86.00,81.37,1
243.00,81.20,1
41.00,83.48,1
40.00,85.47,1
57.00,85.62,1
123.00,85.18,1
62.00,85.05,1
36.00,84.47,1
39.00,82.65,1
50.00,79.89,1
124.00,77.32,1
96.00,76.08,1
59.00,75.73,1
106.00,75.60,1
96.00,76.04,1
214.00,78.09,1
104.00,82.27,1
195.00,87.82,1
127.00,94.31,1
67.00,100.38,1
70.00,104.42,1
115.00,106.67,1
56.00,107.78,1
96.00,107.74,1
46.00,106.55,1
84.00,104.37,1
52.00,101.45,1
44.00,97.79,1
56.00,93.38,1
44.00,88.59,1
40.00,83.53,1
104.00,78.81,1
37.00,74.97,1
70.00,71.62,1
161.00,69.51,1
116.00,69.83,1
145.00,72.20,1
94.00,75.78,1
67.00,79.31,1
97.00,82.05,1
142.00,84.76,1
174.00,88.61,1
90.00,93.40,1
78.00,97.52,1
229.00,101.35,1
38.00,105.66,1
140.00,109.11,1
88.00,111.49,1
43.00,112.57,1
49.00,111.48,1
163.00,109.48,1
71.00,108.03,1
51.00,106.30,1
41.00,103.22,1
46.00,98.95,1
67.00,94.08,1
42.00,89.10,1
57.00,84.09,1
70.00,79.37,1
70.00,75.37,1
57.00,72.04,1
74.00,69.26,1
94.00,67.33,1
46.00,66.19,1
141.00,65.83,1
60.00,66.60,1
113.00,68.07,1
103.00,70.16,1
63.00,72.59,1
44.00,74.29,1
65.00,74.90,1
118.00,75.31,1
48.00,76.01,1
97.00,76.61,1
151.00,77.77,1
171.00,80.79,1
80.00,85.19,1
59.00,88.93,1
104.00,91.32,1
127.00,93.38,1
60.00,95.31,1
76.00,96.31,1
112.00,96.55,1
36.00,96.32,1
114.00,95.43,1
219.00,95.60,1
64.00,97.66,1
168.00,100.25,1
55.00,102.67,1
87.00,104.12,1
62.00,104.19,1
144.00,103.72,1
108.00,103.73,1
241.00,105.26,1
177.00,109.29,1
126.00,114.69,1
38.00,118.86,1
41.00,120.11,1
137.00,119.22,1
114.00,118.13,1
138.00,117.57,1
114.00,117.41,1
110.00,117.35,1
113.00,117.12,1
166.00,117.22,1
93.00,117.87,1
190.00,118.96,1
35.00,120.05,1
55.00,119.49,1
100.00,117.15,1
142.00,114.77,1
40.00,112.67,1
78.00,109.82,1
128.00,106.69,1
118.00,104.53,1
44.00,102.80,1
72.00,100.38,1
95.00,97.57,1
148.00,95.60,1
38.00,94.49,1
74.00,92.98,1
88.00,91.02,1
192.00,90.17,1
160.00,91.78,1
53.00,94.65,1
154.00,97.17,1
88.00,99.59,1
141.00,102.03,1
95.00,104.35,1
183.00,106.91,1
43.00,109.49,1
155.00,111.34,1
37.00,112.29,1
36.00,111.48,1
60.00,108.56,1
97.00,104.84,1
83.00,101.33,1
60.00,97.99,1
63.00,94.40,1
42.00,90.44,1
78.00,86.29,1
36.00,82.22,1
152.00,78.90,1
123.00,77.58,1
41.00,77.66,1
83.00,77.53,1
64.00,77.11,1
51.00,76.41,1
113.00,75.65,1
79.00,75.52,1
224.00,77.03,1
219.00,81.78,1
93.00,88.94,1
51.00,95.21,1
121.00,99.43,1
121.00,102.77,1
64.00,105.44,1
73.00,106.65,1
169.00,107.17,1
95.00,108.21,1
113.00,109.32,1
108.00,110.10,1
95.00,110.55,1
73.00,110.30,1
126.00,109.50,1
117.00,108.92,1
67.00,108.41,1
133.00,107.61,1
67.00,106.75,1
45.00,105.14,1
66.00,102.29,1
58.00,98.68,1
114.00,95.11,1
102.00,92.47,1
42.00,90.39,1
110.00,88.26,1
84.00,86.58,1
48.00,85.14,1
54.00,83.16,1
62.00,80.71,1
59.00,78.13,1
99.00,75.89,1
93.00,74.58,1
42.00,73.82,1
58.00,72.74,1
75.00,71.44,1
127.00,70.87,1
161.00,72.14,1
51.00,74.85,1
67.00,77.15,1
55.00,78.35,1
35.00,78.41,1
40.00,77.23,1
39.00,75.04,1
38.00,72.19,1
40.00,68.90,1
38.00,65.41,1
58.00,62.03,1
80.00,59.34,1
266.00,59.36,1
74.00,63.11,1
63.00,67.82,1
76.00,71.42,1
132.00,74.67,1
114.00,78.43,1
199.00,83.34,1
113.00,89.48,1
125.00,95.74,1
103.00,101.18,1
45.00,105.08,1
124.00,107.17,1
56.00,108.09,1
196.00,108.79,1
39.00,109.75,1
102.00,109.96,1
83.00,109.18,1
80.00,107.84,1
72.00,105.86,1
102.00,103.54,1
94.00,101.42,1
38.00,99.16,1
45.00,95.94,1
97.00,92.18,1
105.00,89.11,1
84.00,87.07,1
71.00,85.48,1
48.00,83.71,1
92.00,81.74,1
65.00,79.99,1
40.00,78.18,1
66.00,75.95,1
64.00,73.70,1
60.00,71.66,1
35.00,69.54,1
127.00,67.76,1
157.00,67.84,1
89.00,70.05,1
136.00,73.32,1
264.00,78.57,1
152.00,86.71,1
37.00,95.06,1
43.00,100.47,1
177.00,103.75,1
55.00,106.54,1
77.00,108.15,1
58.00,108.00,1
222.00,107.75,1
181.00,109.64,1
123.00,113.29,1
98.00,116.66,1
64.00,118.52,1
40.00,118.21,1
64.00,115.75,1
94.00,112.21,1
51.00,108.32,1
71.00,103.98,1
76.00,99.46,1
119.00,95.56,1
93.00,92.81,1
132.00,91.27,1
69.00,90.60,1
63.00,89.84,1
42.00,88.25,1
201.00,86.99,1
147.00,88.06,1
41.00,90.39,1
97.00,91.87,1
63.00,92.43,1
206.00,93.34,1
172.00,96.29,1
199.00,101.53,1
61.00,107.39,1
199.00,112.59,1
53.00,117.05,1
112.00,120.01,1
49.00,120.96,1
38.00,119.70,1
86.00,116.52,1
88.00,112.70,1
57.00,108.70,1
71.00,104.33,1
54.00,99.63,1
39.00,94.56,1
128.00,89.72,1
82.00,86.22,1
91.00,83.87,1
94.00,82.27,1
52.00,81.07,1
74.00,79.73,1
55.00,78.18,1
109.00,76.84,1
127.00,76.59,1
72.00,77.47,1
61.00,78.33,1
101.00,78.82,1
128.00,79.82,1
161.00,82.22,1
98.00,85.88,1
90.00,89.51,1
101.00,92.44,1
40.00,94.35,1
90.00,94.91,1
134.00,95.13,1
37.00,95.42,1
62.00,94.71,1
79.00,93.02,1
84.00,91.17,1
62.00,89.30,1
104.00,87.51,1
79.00,86.14,1
141.00,85.58,1
88.00,86.05,1
76.00,86.80,1
140.00,87.64,1
44.00,88.69,1
112.00,89.37,1
47.00,89.53,1
92.00,89.14,1
122.00,88.82,1
44.00,88.79,1
59.00,88.05,1
82.00,86.59,1
116.00,85.42,1
88.00,85.03,1
80.00,85.00,1
46.00,84.59,1
154.00,84.18,1
57.00,84.49,1
142.00,85.32,1
57.00,86.42,1
62.00,87.03,1
46.00,86.50,1
49.00,84.90,1
39.00,82.39,1
69.00,79.38,1
126.00,76.97,1
39.00,75.58,1
65.00,74.25,1
140.00,73.33,1
64.00,73.59,1
107.00,74.46,1
82.00,75.62,1
42.00,76.60,1
100.00,77.00,1
42.00,77.11,1
38.00,76.47,1
100.00,75.25,1
78.00,74.46,1
100.00,74.34,1
119.00,75.07,1
70.00,76.52,1
50.00,77.65,1
87.00,78.06,1
95.00,78.43,1
120.00,79.40,1
95.00,81.07,1
62.00,82.73,1
71.00,83.65,1
93.00,84.04,1
146.00,84.89,1
71.00,86.50,1
39.00,87.56,1
54.00,87.14,1
65.00,85.69,1
46.00,83.67,1
107.00,81.54,1
134.00,80.49,1
185.00,81.65,1
90.00,84.77,1
126.00,88.39,1
96.00,91.85,1
52.00,94.49,1
181.00,96.52,1
51.00,98.72,1
81.00,100.13,1
76.00,100.28,1
100.00,99.83,1
64.00,99.00,1
78.00,97.61,1
167.00,96.54,1
67.00,96.48,1
97.00,96.55,1
101.00,96.39,1
147.00,96.78,1
126.00,98.19,1
74.00,99.92,1
98.00,101.01,1
46.00,101.09,1
74.00,100.01,1
58.00,97.95,1
40.00,95.05,1
127.00,91.89,1
62.00,89.39,1
42.00,86.95,1
65.00,83.97,1
36.00,80.64,1
186.00,78.11,1
98.00,77.82,1
158.00,79.51,1
100.00,82.43,1
85.00,85.60,1
38.00,87.71,1
50.00,88.16,1
199.00,88.37,1
112.00,90.25,1
192.00,93.79,1
129.00,98.57,1
102.00,103.51,1
65.00,107.12,1
46.00,108.59,1
49.00,107.82,1
83.00,105.54,1
55.00,102.54,1
48.00,98.85,1
74.00,94.63,1
58.00,90.39,1
148.00,86.97,1
80.00,85.10,1
56.00,83.88,1
38.00,82.07,1
125.00,80.11,1
83.00,79.05,1
102.00,78.89,1
52.00,78.96,1
103.00,78.95,1
61.00,78.98,1
37.00,78.55,1
61.00,77.23,1
196.00,76.62,1
83.00,78.06,1
117.00,80.55,1
49.00,82.81,1
57.00,84.03,1
78.00,84.17,1
40.00,83.58,1
139.00,82.82,1
107.00,83.02,1
40.00,83.68,1
57.00,83.43,1
81.00,82.41,1
64.00,81.26,1
149.00,80.65,1
61.00,81.02,1
38.00,81.18,1
46.00,80.12,1
72.00,78.33,1
42.00,76.29,1
79.00,74.16,1
43.00,72.10,1
36.00,69.81,1
57.00,67.18,1
57.00,64.67,1
100.00,62.87,1
127.00,62.60,1
95.00,64.05,1
80.00,66.32,1
88.00,68.69,1
45.00,70.71,1
106.00,72.25,1
177.00,74.63,1
169.00,79.18,1
173.00,85.72,1
105.00,92.99,1
61.00,99.11,1
60.00,102.86,1
139.00,104.93,1
100.00,106.66,1
44.00,107.61,1
47.00,106.73,1
43.00,104.00,1
95.00,100.37,1
55.00,96.68,1
49.00,92.77,1
70.00,88.57,1
88.00,84.74,1
95.00,81.85,1
136.00,80.38,1
158.00,80.95,1
235.00,84.41,1
45.00,89.81,1
64.00,94.15,1
169.00,97.17,1
263.00,101.76,1
66.00,108.19,1
51.00,113.18,1
119.00,115.58,1
107.00,116.86,1
62.00,117.23,1
106.00,116.41,1
112.00,115.14,1
84.00,113.78,1
95.00,112.08,1
192.00,110.94,1
87.00,111.09,1
54.00,111.00,1
88.00,109.59,1
106.00,107.67,1
50.00,105.54,1
42.00,102.47,1
43.00,98.21,1
149.00,94.01,1
66.00,91.09,1
47.00,88.57,1
71.00,85.64,1
39.00,82.45,1
37.00,78.84,1
77.00,75.06,1
43.00,71.63,1
75.00,68.63,1
116.00,66.63,1
57.00,65.95,1
100.00,65.98,1
149.00,67.18,1
143.00,70.38,1
62.00,74.61,1
64.00,78.09,1
111.00,80.63,1
74.00,82.88,1
114.00,84.93,1
58.00,86.65,1
37.00,87.29,1
144.00,87.17,1
49.00,87.30,1
122.00,87.51,1
40.00,87.54,1
42.00,86.65,1
71.00,84.73,1
42.00,82.33,1
41.00,79.39,1
82.00,76.24,1
40.00,73.35,1
127.00,71.12,1
108.00,70.41,1
50.00,70.79,1
59.00,70.94,1
57.00,70.57,1
107.00,70.28,1
130.00,71.04,1
65.00,72.86,1
160.00,75.30,1
133.00,78.96,1
165.00,84.03,1
66.00,89.49,1
47.00,93.52,1
100.00,95.62,1
160.00,97.42,1
102.00,99.88,1
121.00,102.47,1
161.00,105.22,1
74.00,108.10,1
80.00,109.93,1
98.00,110.42,1
55.00,109.88,1
47.00,107.92,1
48.00,104.48,1
50.00,100.01,1
70.00,95.09,1
38.00,90.09,1
86.00,85.23,1
70.00,81.04,1
38.00,77.35,1
135.00,74.31,1
75.00,72.71,1
86.00,72.17,1
153.00,72.68,1
96.00,74.70,1
156.00,77.93,1
182.00,82.69,1
96.00,88.67,1
116.00,94.33,1
69.00,98.80,1
142.00,102.20,1
68.00,104.89,1
116.00,106.71,1
54.00,107.49,1
57.00,106.86,1
95.00,105.00,1
61.00,102.66,1
56.00,99.75,1
139.00,96.82,1
39.00,94.48,1
156.00,92.66,1
86.00,91.83,1
51.00,91.29,1
64.00,89.95,1
66.00,87.98,1
45.00,85.56,1
59.00,82.67,1
40.00,79.41,1
40.00,75.78,1
87.00,72.23,1
151.00,70.17,1
66.00,70.06,1
152.00,71.26,1
160.00,74.21,1
85.00,78.63,1
121.00,83.12,1
154.00,87.77,1
149.00,93.17,1
72.00,98.52,1
92.00,102.51,1
79.00,104.92,1
114.00,106.28,1
60.00,106.83,1
89.00,106.39,1
66.00,105.03,1
61.00,102.85,1
76.00,99.98,1
37.00,96.54,1
68.00,92.54,1
66.00,88.41,1
71.00,84.58,1
85.00,81.30,1
63.00,78.63,1
64.00,76.28,1
81.00,74.22,1
138.00,73.21,1
106.00,73.87,1
44.00,75.20,1
125.00,76.35,1
70.00,77.71,1
83.00,79.06,1
138.00,80.56,1
76.00,82.63,1
140.00,85.04,1
63.00,87.52,1
168.00,90.11,1
74.00,93.01,1
62.00,95.26,1
66.00,96.01,1
44.00,95.36,1
126.00,94.03,1
124.00,93.39,1
141.00,94.07,1
72.00,95.43,1
93.00,96.43,1
40.00,96.46,1
178.00,96.20,1
44.00,96.46,1
183.00,97.18,1
60.00,98.40,1
41.00,98.90,1
37.00,97.49,1
45.00,94.49,1
65.00,90.67,1
156.00,87.50,1
40.00,85.65,1
77.00,83.99,1
66.00,82.11,1
190.00,81.27,1
118.00,82.63,1
41.00,84.80,1
68.00,85.86,1
69.00,85.84,1
56.00,85.15,1
102.00,84.15,1
89.00,83.49,1
119.00,83.53,1
133.00,84.61,1
37.00,86.13,1
103.00,87.00,1
54.00,87.24,1
132.00,87.37,1
46.00,87.59,1
78.00,87.36,1
43.00,86.31,1
36.00,84.30,1
50.00,81.36,1
78.00,78.19,1
61.00,75.41,1
46.00,72.83,1
132.00,70.82,1
54.00,69.97,1
52.00,69.43,1
49.00,68.43,1
135.00,67.76,1
116.00,68.61,1
87.00,70.74,1
158.00,73.73,1
255.00,79.00,1
139.00,87.07,1
129.00,95.80,1
100.00,103.38,1
38.00,108.75,1
49.00,111.08,1
151.00,111.52,1
71.00,111.66,1
172.00,111.92,1
36.00,112.14,1
193.00,112.21,1
40.00,112.38,1
48.00,111.43,1
74.00,108.75,1
76.00,105.37,1
60.00,101.67,1
103.00,97.97,1
47.00,94.50,1
73.00,90.98,1
82.00,87.57,1
38.00,84.35,1
86.00,81.13,1
72.00,78.33,1
202.00,77.18,1
85.00,78.41,1
175.00,81.30,1
175.00,85.88,1
68.00,91.42,1
105.00,96.05,1
39.00,99.01,1
78.00,100.15,1
176.00,100.77,1
57.00,101.93,1
56.00,102.30,1
87.00,101.33,1
96.00,99.93,1
41.00,98.21,1
114.00,96.06,1
70.00,94.05,1
107.00,92.40,1
46.00,90.82,1
85.00,88.97,1
42.00,86.74,1
69.00,84.15,1
108.00,81.78,1
39.00,79.95,1
44.00,77.82,1
79.00,75.34,1
118.00,73.61,1
77.00,73.11,1
48.00,72.96,1
119.00,72.85,1
94.00,73.50,1
200.00,75.77,1
179.00,80.61,1
78.00,86.91,1
99.00,92.41,1
134.00,96.92,1
101.00,101.01,1
105.00,104.42,1
131.00,107.22,1
113.00,109.76,1
101.00,111.85,1
127.00,113.39,1
72.00,114.34,1
45.00,113.88,1
37.00,111.39,1
114.00,107.75,1
56.00,104.06,1
37.00,99.99,1
55.00,95.12,1
108.00,90.37,1
97.00,86.83,1
62.00,84.28,1
96.00,82.17,1
93.00,80.72,1
73.00,79.89,1
271.00,80.82,1
47.00,84.35,1
62.00,87.77,1
67.00,89.44,1
42.00,89.70,1
110.00,89.09,1
45.00,88.21,1
129.00,87.35,1
89.00,87.05,1
65.00,87.02,1
74.00,86.54,1
50.00,85.49,1
111.00,84.21,1
69.00,83.28,1
60.00,82.37,1
40.00,80.84,1
164.00,79.52,1
63.00,79.45,1
72.00,79.77,1
44.00,79.44,1
38.00,78.20,1
55.00,76.12,1
58.00,73.72,1
42.00,71.21,1
42.00,68.48,1
46.00,65.55,1
84.00,62.96,1
87.00,61.39,1
51.00,60.75,1
69.00,60.38,1
48.00,60.06,1
142.00,60.38,1
38.00,61.69,1
46.00,62.83,1
80.00,63.34,1
111.00,64.26,1
87.00,66.06,1
137.00,68.75,1
44.00,71.87,1
91.00,74.48,1
74.00,76.47,1
67.00,77.99,1
34.00,78.56,1
45.00,77.89,1
87.00,76.54,1
112.00,75.73,1
65.00,75.71,1
66.00,75.74,1
38.00,75.20,1
65.00,74.01,1
85.00,72.75,1
59.00,71.82,1
47.00,70.80,1
85.00,69.65,1
89.00,69.00,1
58.00,68.89,1
80.00,68.88,1
98.00,69.21,1
105.00,70.32,1
79.00,72.06,1
42.00,73.51,1
86.00,74.25,1
271.00,76.38,1
