119.113.00,89.03,0
105.00,90.03,0
85.00,91.19,0
99.00,92.15,0
107.00,93.05,0
65.00,93.78,0
92.00,93.95,0
48.00,93.42,0
99.00,92.30,0
36.00,90.72,0
61.00,88.44,0
36.00,85.38,0
40.00,81.64,0
54.00,77.51,0
37.00,73.33,0
62.00,69.31,0
43.00,65.64,0
70.00,62.49,0
63.00,60.06,0
74.00,58.47,0
92.00,57.83,0
58.00,58.05,0
80.00,58.68,0
79.00,59.68,0
85.00,61.13,0
98.00,63.09,0
77.00,65.46,0
111.00,68.09,0
92.00,71.07,0
81.00,74.10,0
90.00,76.79,0
114.00,79.40,0
96.00,82.19,0
90.00,84.86,0
89.00,87.11,0
103.00,89.00,0
39.00,90.25,0
81.00,90.40,0
37.00,89.48,0
43.00,87.45,0
39.00,84.36,0
36.00,80.53,0
54.00,76.32,0
47.00,72.17,0
68.00,68.41,0
43.00,65.17,0
68.00,62.38,0
71.00,60.27,0
65.00,58.94,0
86.00,58.37,0
91.00,58.71,0
53.00,59.68,0
74.00,60.69,0
83.00,61.79,0
94.00,63.34,0
84.00,65.37,0
105.00,67.79,0
120.00,70.81,0
94.00,74.39,0
97.00,78.00,0
102.00,81.40,0
83.00,84.46,0
101.00,87.04,0
64.00,89.00,0
110.00,90.36,0
48.00,91.15,0
75.00,91.04,0
41.00,89.93,0
53.00,87.85,0
64.00,85.11,0
38.00,82.02,0
64.00,78.65,0
52.00,75.28,0
73.00,72.23,0
49.00,69.56,0
64.00,67.18,0
91.00,65.36,0
77.00,64.49,0
84.00,64.41,0
71.00,64.83,0
92.00,65.63,0
81.00,66.85,0
81.00,68.34,0
84.00,69.91,0
109.00,71.76,0
91.00,74.04,0
110.00,76.63,0
107.00,79.53,0
111.00,82.69,0
99.00,85.90,0
66.00,88.59,0
88.00,90.35,0
63.00,91.22,0
87.00,91.35,0
46.00,90.76,0
93.00,89.56,0
67.00,88.15,0
47.00,86.43,0
36.00,83.89,0
35.00,80.48,0
55.00,76.55,0
39.00,72.54,0
76.00,68.83,0
45.00,65.68,0
58.00,62.97,0
77.00,60.80,0
84.00,59.59,0
86.00,59.44,0
105.00,60.36,0
105.00,62.39,0
78.00,65.12,0
83.00,67.89,0
105.00,70.62,0
112.00,73.73,0
106.00,77.25,0
120.00,81.05,0
98.00,84.93,0
89.00,88.42,0
106.00,91.30,0
78.00,93.61,0
100.00,95.26,0
56.00,96.12,0
112.00,96.28,0
41.00,95.87,0
58.00,94.47,0
35.00,91.87,0
43.00,88.28,0
39.00,83.94,0
43.00,79.22,0
63.00,74.57,0
51.00,70.40,0
78.00,66.90,0
52.00,64.18,0
64.00,62.02,0
84.00,60.51,0
102.00,60.14,0
75.00,60.88,0
108.00,62.40,0
116.00,64.88,0
97.00,68.23,0
104.00,71.96,0
89.00,75.68,0
106.00,79.21,0
94.00,82.54,0
75.00,85.39,0
81.00,87.42,0
71.00,88.61,0
117.00,89.39,0
41.00,89.88,0
74.00,89.54,0
41.00,88.21,0
53.00,86.00,0
44.00,83.04,0
37.00,79.52,0
64.00,75.71,0
46.00,72.05,0
82.00,68.85,0
65.00,66.43,0
73.00,64.75,0
76.00,63.71,0
78.00,63.32,0
74.00,63.47,0
85.00,64.05,0
66.00,64.93,0
93.00,66.02,0
90.00,67.49,0
120.00,69.63,0
108.00,72.57,0
85.00,75.88,0
99.00,79.01,0
90.00,81.86,0
66.00,84.17,0
82.00,85.65,0
46.00,86.23,0
85.00,85.95,0
57.00,85.15,0
113.00,84.31,0
48.00,83.62,0
53.00,82.50,0
36.00,80.50,0
34.00,77.63,0
49.00,74.14,0
35.00,70.40,0
65.00,66.76,0
37.00,63.46,0
61.00,60.50,0
63.00,58.09,0
68.00,56.44,0
92.00,55.73,0
86.00,56.13,0
86.00,57.47,0
70.00,59.31,0
79.00,61.27,0
100.00,63.44,0
77.00,65.92,0
83.00,68.42,0
105.00,70.93,0
103.00,73.76,0
129.00,77.10,0
101.00,80.93,0
99.00,84.71,0
92.00,88.02,0
68.00,90.52,0
94.00,92.09,0
60.00,92.85,0
101.00,92.97,0
37.00,92.44,0
67.00,90.98,0
36.00,88.57,0
60.00,85.45,0
75.00,82.15,0
36.00,78.97,0
58.00,75.62,0
43.00,72.19,0
78.00,69.03,0
52.00,66.43,0
56.00,64.22,0
95.00,62.56,0
104.00,62.14,0
91.00,63.03,0
56.00,64.45,0
81.00,65.75,0
93.00,67.14,0
106.00,69.05,0
99.00,71.58,0
104.00,74.51,0
112.00,77.73,0
96.00,81.11,0
94.00,84.29,0
70.00,86.84,0
97.00,88.64,0
58.00,89.74,0
107.00,90.25,0
40.00,90.23,0
58.00,89.24,0
38.00,87.13,0
36.00,84.05,0
42.00,80.18,0
38.00,75.89,0
69.00,71.66,0
44.00,67.89,0
118.00,65.06,0
77.00,63.70,0
86.00,63.52,0
89.00,64.09,0
73.00,65.19,0
63.00,66.33,0
74.00,67.27,0
108.00,68.38,0
105.00,70.24,0
93.00,72.73,0
96.00,75.42,0
110.00,78.23,0
92.00,81.16,0
83.00,83.82,0
93.00,85.97,0
72.00,87.58,0
98.00,88.68,0
59.00,89.28,0
93.00,89.35,0
45.00,88.83,0
106.00,87.88,0
71.00,86.97,0
75.00,86.08,0
49.00,84.78,0
50.00,82.83,0
42.00,80.19,0
38.00,76.96,0
49.00,73.34,0
44.00,69.64,0
70.00,66.24,0
92.00,63.76,0
69.00,62.44,0
99.00,62.09,0
74.00,62.61,0
106.00,63.84,0
82.00,65.71,0
113.00,68.12,0
107.00,71.13,0
130.00,74.84,0
119.00,79.21,0
137.00,84.08,0
118.00,89.23,0
134.00,94.38,0
131.00,99.46,0
114.00,104.24,0
118.00,108.37,0
81.00,111.49,0
126.00,113.53,0
82.00,114.75,0
95.00,115.07,0
72.00,114.36,0
73.00,112.62,0
49.00,109.78,0
43.00,105.76,0
40.00,100.65,0
63.00,94.97,0
53.00,89.33,0
64.00,84.00,0
71.00,79.26,0
68.00,75.30,0
75.00,72.13,0
65.00,69.68,0
48.00,67.60,0
56.00,65.58,0
52.00,63.63,0
61.00,61.87,0
71.00,60.51,0
96.00,59.95,0
89.00,60.45,0
107.00,61.99,0
95.00,64.40,0
105.00,67.43,0
127.00,71.09,0
94.00,75.27,0
124.00,79.60,0
91.00,83.84,0
142.00,88.00,0
57.00,91.83,0
111.00,94.73,0
50.00,96.52,0
85.00,97.12,0
58.00,96.65,0
81.00,95.44,0
35.00,93.47,0
42.00,90.48,0
39.00,86.51,0
39.00,81.94,0
45.00,77.11,0
38.00,72.26,0
38.00,67.51,0
50.00,63.02,0
56.00,59.13,0
47.00,55.94,0
57.00,53.39,0
45.00,51.38,0
85.00,50.07,0
95.00,49.97,0
84.00,51.21,0
87.00,53.34,0
109.00,56.24,0
100.00,59.91,0
139.00,64.45,0
98.00,69.68,0
125.00,75.16,0
74.00,80.32,0
126.00,84.88,0
94.00,89.02,0
114.00,92.76,0
78.00,95.83,0
77.00,97.87,0
62.00,98.62,0
61.00,98.08,0
40.00,96.27,0
52.00,93.31,0
40.00,89.47,0
55.00,85.14,0
38.00,80.58,0
46.00,75.90,0
42.00,71.26,0
43.00,66.80,0
59.00,62.75,0
57.00,59.40,0
68.00,56.88,0
82.00,55.37,0
80.00,54.98,0
82.00,55.54,0
105.00,57.02,0
105.00,59.55,0
113.00,63.05,0
82.00,67.04,0
108.00,71.05,0
91.00,74.96,0
119.00,78.84,0
79.00,82.56,0
127.00,85.99,0
68.00,89.08,0
83.00,91.33,0
48.00,92.36,0
75.00,92.18,0
41.00,90.97,0
45.00,88.69,0
36.00,85.41,0
54.00,81.51,0
43.00,77.39,0
56.00,73.32,0
35.00,69.38,0
44.00,65.49,0
44.00,61.75,0
36.00,58.26,0
65.00,55.17,0
71.00,52.96,0
69.00,51.81,0
102.00,51.79,0
91.00,53.09,0
78.00,55.32,0
103.00,58.08,0
93.00,61.37,0
128.00,65.28,0
106.00,69.85,0
117.00,74.79,0
74.00,79.50,0
126.00,83.68,0
98.00,87.60,0
106.00,91.22,0
71.00,94.11,0
69.00,95.81,0
58.00,96.12,0
69.00,95.29,0
43.00,93.48,0
48.00,90.69,0
37.00,87.00,0
38.00,82.65,0
37.00,77.86,0
38.00,72.87,0
43.00,67.96,0
57.00,63.48,0
46.00,59.66,0
44.00,56.37,0
74.00,53.73,0
82.00,52.21,0
101.00,52.14,0
103.00,53.57,0
108.00,56.31,0
109.00,60.09,0
117.00,64.64,0
108.00,69.69,0
134.00,75.08,0
97.00,80.61,0
147.00,86.07,0
68.00,91.16,0
119.00,95.34,0
89.00,98.63,0
109.00,101.23,0
72.00,102.98,0
79.00,103.64,0
49.00,103.04,0
62.00,101.16,0
41.00,98.16,0
66.00,94.37,0
39.00,90.13,0
38.00,85.42,0
39.00,80.30,0
41.00,75.05,0
68.00,70.14,0
48.00,65.95,0
59.00,62.43,0
44.00,59.42,0
72.00,56.99,0
91.00,55.57,0
106.00,55.63,0
101.00,57.19,0
109.00,59.94,0
89.00,63.41,0
116.00,67.29,0
101.00,71.51,0
136.00,76.11,0
75.00,80.79,0
141.00,85.20,0
89.00,89.42,0
114.00,93.26,0
73.00,96.31,0
79.00,98.24,0
53.00,98.80,0
81.00,98.15,0
39.00,96.50,0
51.00,93.80,0
43.00,90.17,0
42.00,85.91,0
36.00,81.19,0
46.00,76.24,0
39.00,71.33,0
47.00,66.66,0
74.00,62.61,0
85.00,59.79,0
60.00,58.19,0
52.00,57.17,0
91.00,56.61,0
108.00,57.14,0
99.00,58.99,0
105.00,61.86,0
113.00,65.47,0
77.00,69.43,0
109.00,73.26,0
102.00,77.02,0
163.00,81.27,0
99.00,86.18,0
128.00,91.10,0
66.00,95.31,0
109.00,98.40,0
84.00,100.54,0
72.00,101.72,0
60.00,101.62,0
58.00,100.25,0
53.00,97.80,0
51.00,94.48,0
36.00,90.40,0
46.00,85.72,0
37.00,80.69,0
39.00,75.50,0
42.00,70.37,0
41.00,65.49,0
60.00,61.14,0
73.00,57.74,0
75.00,55.58,0
66.00,54.50,0
78.00,54.23,0
105.00,54.94,0
108.00,56.95,0
108.00,60.15,0
103.00,64.12,0
92.00,68.37,0
112.00,72.64,0
76.00,76.73,0
135.00,80.59,0
93.00,84.50,0
118.00,88.30,0
83.00,91.67,0
101.00,94.39,0
50.00,96.09,0
66.00,96.41,0
58.00,95.45,0
94.00,93.83,0
35.00,91.82,0
42.00,88.97,0
47.00,85.23,0
39.00,81.02,0
38.00,76.50,0
48.00,71.88,0
44.00,67.46,0
44.00,63.36,0
60.00,59.73,0
59.00,56.85,0
63.00,54.78,0
74.00,53.53,0
78.00,53.19,0
111.00,54.01,0
103.00,56.17,0
95.00,59.36,0
106.00,63.13,0
94.00,67.22,0
114.00,71.48,0
79.00,75.68,0
135.00,79.73,0
93.00,83.81,0
103.00,87.66,0
68.00,90.71,0
84.00,92.70,0
61.00,93.59,0
69.00,93.44,0
36.00,92.18,0
64.00,89.86,0
41.00,86.83,0
36.00,83.15,0
40.00,78.86,0
38.00,74.27,0
44.00,69.65,0
41.00,65.22,0
48.00,61.13,0
43.00,57.49,0
88.00,54.65,0
52.00,52.93,0
78.00,52.10,0
65.00,52.00,0
90.00,52.68,0
105.00,54.34,0
123.00,57.31,0
97.00,61.39,0
114.00,66.02,0
80.00,70.71,0
127.00,75.26,0
79.00,79.65,0
128.00,83.76,0
95.00,87.68,0
122.00,91.39,0
62.00,94.51,0
86.00,96.48,0
39.00,97.06,0
69.00,96.19,0
41.00,94.16,0
42.00,91.11,0
42.00,87.16,0
36.00,82.62,0
40.00,77.71,0
41.00,72.70,0
40.00,67.84,0
44.00,63.26,0
65.00,59.28,0
45.00,56.11,0
66.00,53.67,0
63.00,52.03,0
93.00,51.42,0
89.00,52.04,0
101.00,53.86,0
99.00,56.69,0
114.00,60.37,0
105.00,64.74,0
115.00,69.54,0
65.00,74.20,0
138.00,78.45,0
74.00,82.52,0
128.00,86.31,0
94.00,89.84,0
116.00,93.12,0
86.00,95.94,0
82.00,97.98,0
52.00,98.77,0
71.00,98.22,0
43.00,96.51,0
47.00,93.71,0
36.00,89.88,0
38.00,85.31,0
40.00,80.28,0
46.00,75.16,0
37.00,70.18,0
51.00,65.48,0
53.00,61.34,0
40.00,57.79,0
71.00,54.87,0
76.00,52.97,0
70.00,52.19,0
90.00,52.41,0
92.00,53.67,0
78.00,55.76,0
146.00,58.78,0
98.00,62.98,0
110.00,67.83,0
90.00,72.66,0
110.00,77.23,0
88.00,81.44,0
132.00,85.40,0
100.00,89.33,0
104.00,92.96,0
75.00,95.82,0
89.00,97.66,0
59.00,98.40,0
67.00,97.98,0
39.00,96.31,0
52.00,93.48,0
43.00,89.77,0
43.00,85.47,0
44.00,80.81,0
45.00,76.06,0
39.00,71.36,0
45.00,66.82,0
70.00,62.80,0
64.00,59.73,0
108.00,57.95,0
74.00,57.61,0
96.00,58.37,0
84.00,59.92,0
100.00,62.13,0
86.00,64.81,0
108.00,67.85,0
97.00,71.22,0
129.00,74.99,0
58.00,78.80,0
125.00,82.14,0
74.00,85.12,0
114.00,87.78,0
89.00,90.12,0
92.00,92.10,0
53.00,93.24,0
75.00,93.28,0
42.00,92.26,0
55.00,90.19,0
40.00,87.23,0
63.00,83.73,0
37.00,79.98,0
51.00,76.05,0
37.00,72.00,0
42.00,67.93,0
49.00,63.99,0
43.00,60.39,0
73.00,57.39,0
84.00,55.46,0
92.00,54.92,0
91.00,55.67,0
77.00,57.31,0
100.00,59.50,0
113.00,62.41,0
76.00,65.90,0
112.00,69.49,0
101.00,73.24,0
129.00,77.34,0
88.00,81.59,0
127.00,85.70,0
81.00,89.48,0
111.00,92.71,0
95.00,95.38,0
112.00,97.67,0
57.00,99.30,0
60.00,99.61,0
49.00,98.42,0
40.00,95.87,0
40.00,92.17,0
49.00,87.71,0
36.00,82.87,0
41.00,77.78,0
51.00,72.74,0
40.00,68.02,0
38.00,63.58,0
48.00,59.46,0
70.00,56.05,0
57.00,53.64,0
82.00,52.23,0
83.00,51.94,0
95.00,52.84,0
108.00,54.92,0
126.00,58.30,0
103.00,62.75,0
127.00,67.86,0
98.00,73.25,0
127.00,78.64,0
73.00,83.65,0
135.00,88.07,0
104.00,92.20,0
114.00,96.08,0
91.00,99.34,0
84.00,101.68,0
77.00,102.86,0
70.00,102.91,0
55.00,101.78,0
61.00,99.55,0
40.00,96.37,0
40.00,92.24,0
39.00,87.36,0
46.00,82.12,0
52.00,76.92,0
37.00,71.97,0
42.00,67.21,0
40.00,62.71,0
66.00,58.77,0
73.00,55.85,0
94.00,54.31,0
112.00,54.44,0
97.00,56.18,0
98.00,58.98,0
101.00,62.42,0
105.00,66.31,0
130.00,70.72,0
83.00,75.45,0
132.00,80.09,0
92.00,84.59,0
129.00,88.89,0
84.00,92.81,0
124.00,96.20,0
95.00,99.12,0
97.00,101.46,0
56.00,102.74,0
57.00,102.51,0
48.00,100.73,0
50.00,97.71,0
45.00,93.78,0
40.00,89.18,0
44.00,84.12,0
40.00,78.88,0
53.00,73.76,0
42.00,68.97,0
49.00,64.60,0
41.00,60.63,0
72.00,57.29,0
86.00,55.11,0
109.00,54.54,0
109.00,55.72,0
113.00,58.41,0
88.00,62.01,0
118.00,66.07,0
105.00,70.51,0
124.00,75.31,0
91.00,80.14,0
124.00,84.72,0
79.00,88.86,0
129.00,92.46,0
92.00,95.68,0
117.00,98.52,0
79.00,100.77,0
89.00,102.15,0
48.00,102.35,0
69.00,101.20,0
42.00,98.86,0
48.00,95.47,0
52.00,91.28,0
43.00,86.70,0
38.00,81.79,0
44.00,76.69,0
48.00,71.72,0
76.00,67.36,0
83.00,64.16,0
77.00,62.25,0
76.00,61.34,0
86.00,61.22,0
92.00,61.92,0
112.00,63.56,0
112.00,66.26,0
100.00,69.73,0
117.00,73.61,0
85.00,77.58,0
129.00,81.48,0
81.00,85.25,0
120.00,88.70,0
72.00,91.63,0
120.00,94.01,0
56.00,95.74,0
76.00,96.45,0
43.00,95.88,0
65.00,94.16,0
40.00,91.51,0
50.00,88.08,0
39.00,84.04,0
37.00,79.55,0
40.00,74.76,0
40.00,69.94,0
52.00,65.40,0
42.00,61.32,0
55.00,57.77,0
70.00,55.00,0
78.00,53.33,0
84.00,52.88,0
67.00,53.37,0
68.00,54.33,0
102.00,55.79,0
104.00,58.16,0
120.00,61.59,0
95.00,65.80,0
123.00,70.42,0
95.00,75.21,0
124.00,79.98,0
91.00,84.55,0
135.00,88.87,0
106.00,93.07,0
106.00,96.93,0
81.00,99.96,0
105.00,102.02,0
53.00,103.07,0
66.00,102.74,0
42.00,100.96,0
46.00,97.90,0
37.00,93.74,0
49.00,88.86,0
48.00,83.72,0
41.00,78.60,0
40.00,73.51,0
46.00,68.59,0
53.00,64.12,0
77.00,60.49,0
84.00,58.14,0
83.00,57.14,0
94.00,57.33,0
75.00,58.45,0
99.00,60.20,0
71.00,62.39,0
127.00,65.03,0
95.00,68.37,0
124.00,72.30,0
87.00,76.45,0
131.00,80.63,0
91.00,84.78,0
147.00,88.92,0
98.00,93.13,0
112.00,97.01,0
79.00,100.07,0
91.00,102.06,0
46.00,102.74,0
56.00,101.84,0
35.00,99.39,0
61.00,95.78,0
38.00,91.50,0
38.00,86.66,0
43.00,81.42,0
45.00,76.14,0
36.00,71.01,0
38.00,66.04,0
49.00,61.41,0
64.00,57.51,0
63.00,54.63,0
80.00,52.87,0
82.00,52.29,0
95.00,52.91,0
110.00,54.80,0
120.00,58.02,0
115.00,62.41,0
96.00,67.36,0
122.00,72.44,0
85.00,77.42,0
160.00,82.37,0
98.00,87.57,0
152.00,92.83,0
86.00,97.79,0
112.00,101.93,0
86.00,104.98,0
79.00,106.82,0
70.00,107.29,0
69.00,106.48,0
53.00,104.50,0
43.00,101.34,0
42.00,97.08,0
42.00,92.00,0
36.00,86.44,0
41.00,80.65,0
34.00,74.83,0
40.00,69.17,0
55.00,63.98,0
72.00,59.76,0
53.00,56.65,0
72.00,54.49,0
99.00,53.49,0
100.00,54.02,0
102.00,55.96,0
108.00,58.99,0
117.00,62.93,0
110.00,67.57,0
122.00,72.66,0
114.00,78.00,0
124.00,83.40,0
90.00,88.48,0
138.00,93.07,0
98.00,97.32,0
126.00,101.13,0
99.00,104.39,0
94.00,106.88,0
54.00,108.06,0
71.00,107.62,0
46.00,105.72,0
76.00,102.76,0
40.00,99.09,0
42.00,94.64,0
40.00,89.50,0
37.00,83.94,0
41.00,78.22,0
45.00,72.65,0
37.00,67.40,0
51.00,62.59,0
64.00,58.55,0
60.00,55.52,0
94.00,53.68,0
75.00,53.18,0
86.00,53.78,0
102.00,55.34,0
108.00,57.98,0
118.00,61.67,0
114.00,66.23,0
96.00,71.15,0
127.00,76.12,0
98.00,81.09,0
138.00,85.99,0
98.00,90.77,0
121.00,95.16,0
83.00,98.85,0
98.00,101.57,0
68.00,103.13,0
80.00,103.50,0
58.00,102.71,0
57.00,100.80,0
48.00,97.84,0
56.00,94.09,0
37.00,89.77,0
46.00,84.97,0
39.00,79.91,0
51.00,74.87,0
51.00,70.15,0
41.00,65.84,0
62.00,62.01,0
49.00,58.81,0
102.00,56.61,0
78.00,55.80,0
86.00,56.18,0
112.00,57.59,0
91.00,60.10,0
117.00,63.40,0
140.00,67.65,0
105.00,72.82,0
108.00,78.13,0
92.00,82.99,0
135.00,87.47,0
95.00,91.76,0
127.00,95.72,0
74.00,99.07,0
90.00,101.33,0
78.00,102.45,0
92.00,102.70,0
54.00,102.11,0
71.00,100.51,0
54.00,98.05,0
39.00,94.71,0
42.00,90.47,0
44.00,85.63,0
36.00,80.49,0
39.00,75.22,0
40.00,69.99,0
62.00,65.20,0
65.00,61.29,0
49.00,58.29,0
78.00,56.08,0
95.00,55.03,0
125.00,55.68,0
105.00,58.07,0
112.00,61.69,0
107.00,66.01,0
143.00,70.98,0
95.00,76.46,0
140.00,82.00,0
84.00,87.29,0
131.00,92.06,0
88.00,96.22,0
107.00,99.63,0
84.00,102.11,0
78.00,103.54,0
43.00,103.55,0
55.00,101.94,0
39.00,98.91,0
65.00,94.97,0
39.00,90.57,0
43.00,85.75,0
39.00,80.61,0
46.00,75.41,0
40.00,70.39,0
38.00,65.59,0
37.00,61.05,0
64.00,57.03,0
84.00,54.15,0
97.00,52.88,0
93.00,53.25,0
99.00,54.91,0
102.00,57.62,0
114.00,61.21,0
111.00,65.56,0
113.00,70.43,0
138.00,75.73,0
96.00,81.26,0
143.00,86.70,0
98.00,91.93,0
137.00,96.80,0
102.00,101.22,0
98.00,104.85,0
63.00,107.13,0
76.00,107.80,0
69.00,107.08,0
62.00,105.28,0
42.00,102.37,0
44.00,98.33,0
42.00,93.42,0
46.00,88.03,0
42.00,82.47,0
38.00,76.91,0
51.00,71.54,0
49.00,66.65,0
54.00,62.42,0
72.00,59.03,0
83.00,56.82,0
78.00,55.88,0
106.00,56.17,0
106.00,57.83,0
107.00,60.70,0
107.00,64.41,0
113.00,68.70,0
99.00,73.26,0
127.00,77.93,0
89.00,82.56,0
153.00,87.13,0
100.00,91.84,0
131.00,96.37,0
73.00,100.23,0
85.00,102.84,0
72.00,104.01,0
85.00,104.06,0
48.00,103.05,0
55.00,100.81,0
47.00,97.47,0
43.00,93.30,0
38.00,88.43,0
39.00,83.11,0
50.00,77.69,0
47.00,72.54,0
59.00,67.90,0
46.00,63.88,0
83.00,60.65,0
73.00,58.53,0
81.00,57.55,0
109.00,57.74,0
91.00,59.22,0
108.00,61.68,0
139.00,65.21,0
107.00,69.81,0
124.00,74.94,0
92.00,80.05,0
127.00,84.89,0
91.00,89.37,0
142.00,93.55,0
92.00,97.49,0
113.00,100.89,0
72.00,103.37,0
89.00,104.69,0
66.00,104.84,0
96.00,104.11,0
45.00,102.63,0
51.00,100.07,0
56.00,96.51,0
59.00,92.44,0
42.00,88.07,0
47.00,83.40,0
39.00,78.54,0
44.00,73.63,0
52.00,68.95,0
54.00,64.78,0
105.00,61.67,0
94.00,60.24,0
78.00,60.25,0
97.00,61.14,0
97.00,62.87,0
84.00,65.21,0
132.00,68.12,0
101.00,71.83,0
149.00,76.27,0
88.00,81.17,0
125.00,85.94,0
106.00,90.39,0
95.00,94.36,0
72.00,97.29,0
78.00,98.91,0
49.00,99.13,0
55.00,97.92,0
42.00,95.41,0
43.00,91.82,0
35.00,87.39,0
44.00,82.42,0
41.00,77.26,0
43.00,72.18,0
66.00,67.53,0
68.00,63.77,0
89.00,61.21,0
87.00,59.99,0
99.00,60.07,0
97.00,61.31,0
99.00,63.47,0
99.00,66.27,0
130.00,69.74,0
110.00,73.95,0
127.00,78.66,0
102.00,83.49,0
139.00,88.29,0
100.00,92.99,0
143.00,97.46,0
86.00,101.55,0
114.00,104.84,0
82.00,107.14,0
85.00,108.35,0
54.00,108.21,0
64.00,106.66,0
55.00,103.90,0
66.00,100.34,0
43.00,96.24,0
42.00,91.51,0
54.00,86.40,0
47.00,81.28,0
38.00,76.25,0
41.00,71.26,0
64.00,66.63,0
70.00,62.89,0
73.00,60.25,0
89.00,58.78,0
108.00,58.69,0
114.00,60.15,0
107.00,62.92,0
116.00,66.61,0
138.00,71.14,0
92.00,76.23,0
118.00,81.22,0
101.00,85.87,0
129.00,90.28,0
110.00,94.52,0
127.00,98.55,0
90.00,102.11,0
114.00,104.92,0
94.00,106.99,0
98.00,108.33,0
74.00,108.78,0
75.00,108.18,0
44.00,106.34,0
54.00,103.22,0
45.00,99.07,0
58.00,94.30,0
43.00,89.24,0
38.00,83.96,0
40.00,78.49,0
39.00,73.03,0
44.00,67.81,0
81.00,63.32,0
61.00,60.03,0
81.00,57.89,0
76.00,56.82,0
95.00,56.83,0
88.00,57.89,0
111.00,59.93,0
95.00,62.83,0
110.00,66.36,0
132.00,70.54,0
110.00,75.39,0
130.00,80.57,0
93.00,85.68,0
135.00,90.45,0
108.00,94.97,0
155.00,99.45,0
63.00,103.54,0
98.00,106.37,0
80.00,107.80,0
95.00,108.22,0
53.00,107.62,0
64.00,105.79,0
45.00,102.75,0
51.00,98.72,0
36.00,93.90,0
50.00,88.54,0
54.00,83.12,0
39.00,77.88,0
61.00,72.91,0
64.00,68.58,0
65.00,65.13,0
78.00,62.59,0
94.00,61.22,0
115.00,61.29,0
108.00,62.90,0
110.00,65.69,0
114.00,69.30,0
93.00,73.32,0
144.00,77.61,0
114.00,82.42,0
179.00,87.89,0
106.00,93.93,0
131.00,99.72,0
87.00,104.58,0
106.00,108.22,0
81.00,110.53,0
135.00,111.97,0
62.00,112.78,0
68.00,112.37,0
43.00,110.31,0
48.00,106.77,0
42.00,102.05,0
47.00,96.56,0
41.00,90.66,0
37.00,84.54,0
44.00,78.41,0
39.00,72.52,0
45.00,67.03,0
78.00,62.35,0
60.00,58.90,0
72.00,56.56,0
100.00,55.43,0
109.00,55.88,0
91.00,57.78,0
103.00,60.56,0
113.00,64.06,0
88.00,68.06,0
127.00,72.29,0
88.00,76.68,0
135.00,81.10,0
104.00,85.60,0
127.00,90.07,0
88.00,94.18,0
88.00,97.42,0
84.00,99.54,0
104.00,100.84,0
64.00,101.43,0
70.00,101.00,0
49.00,99.43,0
80.00,96.98,0
37.00,93.95,0
37.00,90.11,0
39.00,85.44,0
44.00,80.38,0
42.00,75.27,0
40.00,70.28,0
61.00,65.67,0
67.00,61.89,0
72.00,59.19,0
97.00,57.73,0
92.00,57.67,0
126.00,59.11,0
107.00,61.96,0
117.00,65.86,0
114.00,70.40,0
89.00,75.13,0
140.00,79.80,0
103.00,84.62,0
140.00,89.51,0
96.00,94.22,0
111.00,98.35,0
94.00,101.64,0
89.00,103.97,0
50.00,104.98,0
72.00,104.42,0
51.00,102.57,0
66.00,99.76,0
51.00,96.27,0
48.00,92.23,0
35.00,87.61,0
40.00,82.52,0
39.00,77.19,0
42.00,71.92,0
40.00,66.88,0
36.00,62.15,0
58.00,57.90,0
66.00,54.56,0
96.00,52.59,0
89.00,52.21,0
113.00,53.43,0
112.00,56.13,0
124.00,60.14,0
106.00,65.06,0
116.00,70.39,0
111.00,75.81,0
146.00,81.42,0
103.00,87.20,0
147.00,92.82,0
104.00,98.17,0
112.00,102.85,0
96.00,106.51,0
89.00,109.01,0
68.00,110.13,0
65.00,109.73,0
62.00,107.94,0
61.00,105.08,0
44.00,101.32,0
53.00,96.77,0
47.00,91.74,0
39.00,86.42,0
37.00,80.86,0
42.00,75.25,0
55.00,69.95,0
42.00,65.21,0
81.00,61.27,0
76.00,58.57,0
66.00,57.06,0
105.00,56.61,0
107.00,57.55,0
127.00,60.04,0
126.00,64.00,0
94.00,68.80,0
124.00,73.79,0
94.00,78.74,0
156.00,83.78,0
100.00,89.01,0
145.00,94.18,0
105.00,99.10,0
120.00,103.48,0
62.00,106.75,0
115.00,108.68,0
72.00,109.56,0
92.00,109.50,0
49.00,108.34,0
70.00,106.04,0
63.00,102.87,0
54.00,99.12,0
48.00,94.80,0
42.00,89.97,0
35.00,84.72,0
38.00,79.17,0
56.00,73.72,0
38.00,68.70,0
57.00,64.17,0
54.00,60.31,0
89.00,57.48,0
95.00,56.15,0
112.00,56.50,0
118.00,58.54,0
114.00,61.98,0
106.00,66.28,0
127.00,71.11,0
112.00,76.33,0
149.00,81.91,0
82.00,87.51,0
144.00,92.66,0
95.00,97.35,0
117.00,101.42,0
98.00,104.69,0
110.00,107.21,0
88.00,108.95,0
76.00,109.65,0
65.00,109.09,0
69.00,107.33,0
35.00,104.41,0
45.00,100.24,0
42.00,95.15,0
38.00,89.53,0
40.00,83.60,0
38.00,77.63,0
37.00,71.78,0
43.00,66.26,0
55.00,61.34,0
73.00,57.43,0
70.00,54.80,0
86.00,53.46,0
86.00,53.39,0
86.00,54.40,0
103.00,56.34,0
93.00,59.14,0
112.00,62.63,0
107.00,66.71,0
114.00,71.24,0
100.00,75.93,0
130.00,80.66,0
110.00,85.47,0
175.00,90.65,0
105.00,96.25,0
110.00,101.41,0
64.00,105.20,0
84.00,107.24,0
48.00,107.55,0
91.00,106.48,0
50.00,104.45,0
54.00,101.47,0
41.00,97.50,0
40.00,92.72,0
38.00,87.32,0
41.00,81.64,0
38.00,75.93,0
42.00,70.39,0
48.00,65.25,0
67.00,60.89,0
86.00,57.78,0
100.00,56.33,0
91.00,56.48,0
117.00,58.04,0
104.00,60.86,0
109.00,64.58,0
108.00,68.84,0
101.00,73.31,0
149.00,78.09,0
102.00,83.29,0
143.00,88.60,0
103.00,93.76,0
111.00,98.39,0
86.00,102.05,0
100.00,104.62,0
76.00,106.11,0
83.00,106.50,0
56.00,105.74,0
58.00,103.75,0
35.00,100.51,0
41.00,96.12,0
36.00,90.89,0
38.00,85.17,0
45.00,79.30,0
41.00,73.61,0
36.00,68.20,0
42.00,63.11,0
76.00,58.78,0
57.00,55.62,0
84.00,53.63,0
93.00,52.99,0
96.00,53.78,0
110.00,55.86,0
127.00,59.25,0
106.00,63.74,0
143.00,69.04,0
103.00,74.87,0
129.00,80.78,0
94.00,86.36,0
140.00,91.52,0
99.00,96.34,0
128.00,100.66,0
91.00,104.31,0
90.00,106.94,0
72.00,108.23,0
80.00,108.21,0
73.00,107.14,0
74.00,105.26,0
48.00,102.58,0
44.00,98.92,0
48.00,94.39,0
38.00,89.30,0
43.00,83.87,0
35.00,78.28,0
39.00,72.70,0
38.00,67.30,0
50.00,62.34,0
61.00,58.16,0
84.00,55.17,0
86.00,53.67,0
98.00,53.70,0
125.00,55.32,0
103.00,58.44,0
113.00,62.56,0
121.00,67.35,0
108.00,72.59,0
141.00,78.14,0
81.00,83.66,0
133.00,88.69,0
113.00,93.39,0
134.00,97.95,0
73.00,101.92,0
98.00,104.69,0
65.00,106.10,0
80.00,106.21,0
58.00,105.11,0
62.00,102.94,0
49.00,99.80,0
44.00,95.79,0
44.00,91.08,0
43.00,85.94,0
38.00,80.58,0
43.00,75.18,0
62.00,70.14,0
41.00,65.71,0
39.00,61.68,0
70.00,58.14,0
78.00,55.65,0
74.00,54.40,0
103.00,54.38,0
111.00,55.80,0
116.00,58.67,0
123.00,62.76,0
139.00,67.92,0
96.00,73.71,0
124.00,79.43,0
95.00,84.78,0
148.00,89.86,0
102.00,94.82,0
145.00,99.57,0
93.00,103.90,0
137.00,107.62,0
89.00,110.65,0
84.00,112.59,0
73.00,113.08,0
89.00,112.34,0
53.00,110.57,0
52.00,107.62,0
54.00,103.56,0
47.00,98.76,0
42.00,93.43,0
38.00,87.68,0
40.00,81.73,0
38.00,75.78,0
47.00,70.11,0
68.00,65.13,0
83.00,61.40,0
81.00,59.15,0
91.00,58.27,0
99.00,58.68,0
125.00,60.47,0
110.00,63.62,0
133.00,67.87,0
91.00,72.71,0
141.00,77.75,0
97.00,82.90,0
141.00,88.00,0
102.00,92.93,0
150.00,97.71,0
105.00,102.29,0
140.00,106.53,0
86.00,110.12,0
108.00,112.67,0
77.00,114.01,0
99.00,114.25,0
50.00,113.34,0
61.00,111.05,0
50.00,107.47,0
49.00,102.94,0
38.00,97.64,0
41.00,91.77,0
47.00,85.65,0
50.00,79.70,0
47.00,74.14,0
78.00,69.31,0
62.00,65.53,0
55.00,62.62,0
63.00,60.28,0
95.00,58.78,0
88.00,58.51,0
122.00,59.62,0
131.00,62.31,0
114.00,66.43,0
122.00,71.35,0
104.00,76.55,0
132.00,81.80,0
111.00,87.04,0
145.00,92.26,0
110.00,97.41,0
131.00,102.19,0
97.00,106.33,0
111.00,109.57,0
69.00,111.60,0
104.00,112.38,0
65.00,112.08,0
90.00,110.82,0
50.00,108.62,0
52.00,105.37,0
50.00,101.10,0
39.00,96.09,0
45.00,90.53,0
40.00,84.71,0
43.00,78.89,0
38.00,73.21,0
45.00,67.82,0
58.00,63.03,0
84.00,59.33,0
90.00,57.17,0
124.00,56.83,0
121.00,58.49,0
119.00,61.83,0
110.00,66.22,0
115.00,71.12,0
82.00,75.99,0
163.00,80.83,0
84.00,85.90,0
159.00,90.97,0
110.00,96.04,0
128.00,100.92,0
66.00,104.86,0
129.00,107.59,0
82.00,109.48,0
99.00,110.53,0
72.00,110.58,0
71.00,109.56,0
44.00,107.30,0
49.00,103.75,0
38.00,99.08,0
48.00,93.69,0
41.00,87.94,0
37.00,82.03,0
43.00,76.13,0
41.00,70.49,0
56.00,65.36,0
43.00,60.93,0
82.00,57.39,0
76.00,55.15,0
86.00,54.27,0
124.00,54.88,0
88.00,57.01,0
93.00,59.99,0
127.00,63.59,0
113.00,68.05,0
127.00,73.15,0
116.00,78.61,0
137.00,84.26,0
100.00,89.81,0
140.00,95.01,0
104.00,99.82,0
112.00,103.98,0
72.00,106.99,0
107.00,108.75,0
71.00,109.44,0
72.00,109.00,0
46.00,107.23,0
69.00,104.26,0
38.00,100.40,0
54.00,95.78,0
37.00,90.61,0
39.00,85.07,0
42.00,79.33,0
46.00,73.75,0
55.00,68.63,0
47.00,64.15,0
85.00,60.56,0
93.00,58.39,0
144.00,58.24,0
114.00,60.27,0
110.00,63.83,0
98.00,67.99,0
117.00,72.40,0
125.00,77.12,0
144.00,82.40,0
101.00,87.94,0
148.00,93.32,0
99.00,98.43,0
141.00,103.09,0
114.00,107.31,0
125.00,111.05,0
77.00,113.87,0
85.00,115.26,0
62.00,115.04,0
95.00,113.57,0
51.00,111.20,0
65.00,107.86,0
50.00,103.68,0
37.00,98.76,0
37.00,93.09,0
39.00,86.92,0
38.00,80.64,0
44.00,74.50,0
55.00,68.87,0
42.00,63.93,0
70.00,59.79,0
81.00,56.84,0
109.00,55.55,0
124.00,56.25,0
102.00,58.70,0
108.00,62.24,0
126.00,66.55,0
115.00,71.55,0
127.00,76.99,0
105.00,82.49,0
151.00,87.98,0
104.00,93.46,0
142.00,98.68,0
98.00,103.40,0
95.00,107.15,0
75.00,109.45,0
82.00,110.28,0
58.00,109.73,0
80.00,107.98,0
50.00,105.29,0
52.00,101.69,0
38.00,97.16,0
43.00,91.90,0
37.00,86.19,0
40.00,80.29,0
57.00,74.59,0
69.00,69.64,0
60.00,65.68,0
57.00,62.53,0
74.00,60.13,0
90.00,58.75,0
98.00,58.66,0
109.00,59.95,0
119.00,62.55,0
128.00,66.38,0
124.00,71.24,0
100.00,76.51,0
141.00,81.83,0
111.00,87.24,0
180.00,92.97,0
108.00,99.04,0
120.00,104.65,0
86.00,109.04,0
98.00,112.00,0
72.00,113.47,0
87.00,113.55,0
62.00,112.40,0
76.00,110.18,0
42.00,106.98,0
47.00,102.72,0
50.00,97.64,0
58.00,92.24,0
37.00,86.75,0
42.00,81.15,0
41.00,75.54,0
64.00,70.34,0
64.00,65.98,0
64.00,62.61,0
66.00,60.11,0
99.00,58.67,0
100.00,58.62,0
95.00,59.90,0
121.00,62.30,0
108.00,65.74,0
127.00,70.01,0
103.00,74.79,0
138.00,79.85,0
109.00,85.10,0
143.00,90.40,0
105.00,95.58,0
131.00,100.36,0
84.00,104.40,0
96.00,107.27,0
93.00,108.96,0
93.00,109.74,0
64.00,109.53,0
54.00,108.02,0
45.00,105.08,0
43.00,100.92,0
36.00,95.80,0
46.00,90.08,0
35.00,84.10,0
40.00,78.05,0
41.00,72.15,0
73.00,66.90,0
95.00,63.03,0
77.00,60.81,0
85.00,59.87,0
118.00,60.18,0
127.00,62.15,0
127.00,65.72,0
132.00,70.49,0
114.00,75.98,0
128.00,81.67,0
81.00,87.03,0
145.00,91.81,0
112.00,96.40,0
169.00,101.15,0
106.00,106.01,0
127.00,110.40,0
63.00,113.58,0
102.00,115.18,0
74.00,115.41,0
81.00,114.50,0
56.00,112.44,0
62.00,109.26,0
43.00,105.06,0
48.00,100.03,0
37.00,94.35,0
40.00,88.27,0
52.00,82.11,0
44.00,76.27,0
61.00,70.98,0
70.00,66.56,0
64.00,63.19,0
56.00,60.64,0
73.00,58.75,0
102.00,57.90,0
111.00,58.54,0
121.00,60.77,0
121.00,64.40,0
105.00,68.90,0
123.00,73.78,0
104.00,78.82,0
127.00,83.83,0
118.00,88.80,0
147.00,93.86,0
108.00,98.90,0
120.00,103.45,0
97.00,107.17,0
111.00,109.97,0
92.00,111.86,0
92.00,112.80,0
44.00,112.43,0
81.00,110.59,0
39.00,107.54,0
66.00,103.54,0
37.00,98.79,0
47.00,93.45,0
46.00,87.77,0
38.00,82.02,0
34.00,76.22,0
61.00,70.66,0
65.00,65.94,0
62.00,62.25,0
92.00,59.72,0
106.00,58.75,0
99.00,59.41,0
122.00,61.50,0
128.00,64.96,0
95.00,69.34,0
133.00,74.11,0
113.00,79.21,0
152.00,84.69,0
115.00,90.46,0
134.00,96.12,0
108.00,101.30,0
111.00,105.70,0
66.00,108.83,0
103.00,110.46,0
65.00,110.80,0
82.00,110.00,0
46.00,108.03,0
59.00,104.86,0
44.00,100.71,0
53.00,95.86,0
47.00,90.63,0
41.00,85.21,0
44.00,79.70,0
44.00,74.31,0
59.00,69.33,0
69.00,65.17,0
80.00,62.14,0
84.00,60.38,0
89.00,59.83,0
108.00,60.50,0
121.00,62.53,0
122.00,65.93,0
160.00,70.66,0
122.00,76.57,0
141.00,83.07,0
97.00,89.40,0
158.00,95.33,0
93.00,100.87,0
128.00,105.65,0
100.00,109.50,0
89.00,112.26,0
76.00,113.57,0
81.00,113.48,0
63.00,112.14,0
68.00,109.69,0
54.00,106.29,0
47.00,102.02,0
41.00,96.96,0
37.00,91.28,0
43.00,85.25,0
39.00,79.18,0
44.00,73.31,0
45.00,67.85,0
55.00,63.02,0
66.00,59.09,0
79.00,56.35,0
81.00,54.93,0
86.00,54.74,0
119.00,55.86,0
118.00,58.51,0
122.00,62.52,0
129.00,67.58,0
121.00,73.34,0
142.00,79.54,0
107.00,85.86,0
136.00,91.89,0
129.00,97.63,0
149.00,103.25,0
100.00,108.47,0
103.00,112.59,0
82.00,115.20,0
93.00,116.34,0
60.00,116.08,0
59.00,114.29,0
54.00,111.05,0
51.00,106.73,0
36.00,101.50,0
44.00,95.54,0
46.00,89.26,0
38.00,82.98,0
53.00,76.91,0
41.00,71.28,0
45.00,66.14,0
66.00,61.67,0
61.00,58.20,0
92.00,55.95,0
86.00,55.13,0
114.00,55.79,0
111.00,57.97,0
123.00,61.54,0
137.00,66.30,0
127.00,72.07,0
140.00,78.47,0
85.00,84.80,0
140.00,90.53,0
113.00,95.85,0
133.00,100.85,0
123.00,105.46,0
111.00,109.53,0
83.00,112.54,0
87.00,114.13,0
67.00,114.24,0
90.00,113.12,0
50.00,110.97,0
54.00,107.69,0
49.00,103.35,0
50.00,98.28,0
37.00,92.73,0
39.00,86.78,0
41.00,80.67,0
42.00,74.70,0
55.00,69.18,0
60.00,64.46,0
100.00,61.01,0
85.00,59.22,0
90.00,58.89,0
100.00,59.70,0
104.00,61.59,0
113.00,64.46,0
118.00,68.21,0
125.00,72.72,0
128.00,77.86,0
86.00,83.05,0
148.00,87.96,0
92.00,92.70,0
151.00,97.23,0
98.00,101.52,0
118.00,105.27,0
75.00,108.02,0
93.00,109.52,0
65.00,109.73,0
126.00,109.14,0
47.00,108.10,0
81.00,106.21,0
45.00,103.38,0
40.00,99.56,0
43.00,94.72,0
44.00,89.32,0
40.00,83.69,0
41.00,78.01,0
75.00,72.74,0
70.00,68.49,0
79.00,65.43,0
90.00,63.58,0
100.00,63.04,0
119.00,63.92,0
111.00,66.19,0
122.00,69.54,0
132.00,73.83,0
109.00,78.73,0
133.00,83.86,0
113.00,89.02,0
132.00,94.05,0
114.00,98.83,0
137.00,103.31,0
108.00,107.39,0
132.00,110.95,0
82.00,113.74,0
90.00,115.29,0
67.00,115.38,0
106.00,114.35,0
52.00,112.53,0
58.00,109.65,0
44.00,105.57,0
41.00,100.53,0
43.00,94.78,0
45.00,88.71,0
44.00,82.62,0
44.00,76.72,0
66.00,71.34,0
81.00,67.01,0
99.00,64.22,0
80.00,62.94,0
86.00,62.73,0
119.00,63.59,0
127.00,65.85,0
89.00,69.23,0
120.00,73.02,0
113.00,77.15,0
145.00,81.79,0
107.00,86.82,0
150.00,91.98,0
127.00,97.28,0
130.00,102.50,0
100.00,107.11,0
105.00,110.66,0
79.00,112.92,0
109.00,113.98,0
70.00,114.04,0
80.00,113.02,0
58.00,110.90,0
50.00,107.62,0
48.00,103.27,0
44.00,98.13,0
43.00,92.47,0
44.00,86.54,0
37.00,80.56,0
39.00,74.64,0
74.00,69.23,0
68.00,64.94,0
63.00,61.79,0
67.00,59.52,0
85.00,58.15,0
123.00,58.16,0
119.00,60.00,0
127.00,63.45,0
141.00,68.21,0
96.00,73.75,0
131.00,79.37,0
113.00,84.90,0
146.00,90.46,0
110.00,95.95,0
128.00,101.04,0
99.00,105.41,0
118.00,108.91,0
83.00,111.42,0
80.00,112.66,0
68.00,112.43,0
88.00,111.06,0
51.00,108.79,0
48.00,105.45,0
44.00,101.01,0
51.00,95.85,0
38.00,90.27,0
37.00,84.40,0
37.00,78.37,0
38.00,72.43,0
51.00,66.87,0
69.00,62.17,0
83.00,58.79,0
72.00,56.82,0
96.00,56.13,0
126.00,56.98,0
118.00,59.58,0
117.00,63.58,0
145.00,68.64,0
72.00,74.17,0
141.00,79.49,0
102.00,84.67,0
154.00,89.94,0
115.00,95.32,0
124.00,100.46,0
98.00,104.86,0
99.00,108.20,0
77.00,110.23,0
74.00,110.82,0
46.00,109.85,0
64.00,107.36,0
52.00,103.77,0
61.00,99.49,0
36.00,94.67,0
44.00,89.33,0
37.00,83.65,0
41.00,77.87,0
91.00,72.64,0
83.00,68.81,0
90.00,66.50,0
110.00,65.63,0
102.00,66.21,0
106.00,67.95,0
124.00,70.66,0
110.00,74.23,0
126.00,78.38,0
107.00,82.82,0
144.00,87.46,0
92.00,92.13,0
132.00,96.44,0
113.00,100.40,0
127.00,104.10,0
89.00,107.24,0
90.00,109.35,0
70.00,110.13,0
82.00,109.65,0
55.00,108.04,0
55.00,105.27,0
39.00,101.37,0
38.00,96.46,0
43.00,90.83,0
48.00,84.98,0
42.00,79.22,0
62.00,73.83,0
85.00,69.36,0
67.00,66.15,0
73.00,63.93,0
94.00,62.68,0
113.00,62.76,0
122.00,64.40,0
125.00,67.53,0
119.00,71.74,0
141.00,76.73,0
101.00,82.15,0
138.00,87.52,0
102.00,92.67,0
153.00,97.61,0
95.00,102.30,0
142.00,106.49,0
85.00,109.99,0
98.00,112.39,0
85.00,113.52,0
75.00,113.46,0
59.00,112.06,0
71.00,109.47,0
51.00,105.95,0
50.00,101.61,0
45.00,96.56,0
42.00,91.03,0
48.00,85.27,0
41.00,79.55,0
71.00,74.24,0
66.00,69.80,0
77.00,66.43,0
91.00,64.25,0
115.00,63.55,0
101.00,64.42,0
115.00,66.50,0
109.00,69.53,0
129.00,73.34,0
107.00,77.75,0
134.00,82.47,0
99.00,87.25,0
142.00,91.93,0
109.00,96.50,0
131.00,100.85,0
115.00,104.83,0
114.00,108.32,0
80.00,110.88,0
82.00,112.11,0
59.00,111.83,0
78.00,110.21,0
55.00,107.58,0
55.00,104.03,0
42.00,99.61,0
52.00,94.54,0
45.00,89.15,0
39.00,83.58,0
40.00,77.93,0
37.00,72.35,0
44.00,67.02,0
67.00,62.34,0
87.00,58.91,0
88.00,57.09,0
134.00,57.10,0
124.00,59.17,0
127.00,63.01,0
111.00,67.90,0
128.00,73.32,0
116.00,79.01,0
148.00,84.93,0
110.00,90.93,0
154.00,96.80,0
102.00,102.35,0
138.00,107.29,0
106.00,111.50,0
116.00,114.86,0
88.00,117.13,0
100.00,118.22,0
61.00,118.04,0
58.00,116.27,0
54.00,113.01,0
46.00,108.56,0
44.00,103.14,0
53.00,97.15,0
36.00,90.93,0
34.00,84.51,0
61.00,78.19,0
41.00,72.43,0
59.00,67.33,0
71.00,63.14,0
82.00,60.19,0
83.00,58.60,0
111.00,58.41,0
129.00,59.93,0
127.00,63.22,0
113.00,67.71,0
136.00,72.95,0
117.00,78.68,0
156.00,84.77,0
118.00,91.11,0
149.00,97.39,0
95.00,103.17,0
144.00,108.14,0
109.00,112.41,0
104.00,115.79,0
72.00,117.74,0
101.00,118.20,0
53.00,117.34,0
82.00,115.21,0
46.00,111.93,0
48.00,107.57,0
36.00,102.17,0
37.00,95.96,0
54.00,89.42,0
37.00,83.00,0
65.00,76.97,0
51.00,71.64,0
71.00,67.19,0
84.00,63.87,0
87.00,61.94,0
127.00,61.60,0
94.00,62.88,0
127.00,65.43,0
129.00,69.16,0
125.00,73.92,0
129.00,79.29,0
119.00,84.92,0
148.00,90.64,0
107.00,96.30,0
153.00,101.67,0
115.00,106.76,0
127.00,111.32,0
78.00,114.79,0
98.00,116.77,0
72.00,117.28,0
91.00,116.55,0
37.00,114.52,0
46.00,110.93,0
40.00,105.93,0
40.00,99.96,0
46.00,93.50,0
43.00,86.93,0
50.00,80.56,0
42.00,74.59,0
74.00,69.30,0
72.00,65.17,0
85.00,62.38,0
104.00,61.05,0
112.00,61.37,0
106.00,63.19,0
142.00,66.35,0
125.00,70.82,0
153.00,76.38,0
127.00,82.68,0
134.00,89.21,0
111.00,95.40,0
146.00,101.09,0
122.00,106.42,0
147.00,111.38,0
113.00,115.84,0
103.00,119.33,0
69.00,121.24,0
77.00,121.30,0
68.00,119.72,0
85.00,117.03,0
46.00,113.47,0
59.00,108.93,0
36.00,103.53,0
39.00,97.40,0
50.00,90.88,0
40.00,84.39,0
40.00,78.08,0
43.00,72.05,0
72.00,66.72,0
77.00,62.65,0
91.00,60.10,0
85.00,59.02,0
104.00,59.28,0
116.00,60.90,0
123.00,63.93,0
124.00,68.13,0
141.00,73.30,0
106.00,79.03,0
146.00,84.90,0
106.00,90.73,0
143.00,96.30,0
80.00,101.25,0
121.00,105.17,0
98.00,108.14,0
119.00,110.42,0
72.00,111.87,0
76.00,112.08,0
46.00,110.74,0
56.00,107.90,0
37.00,103.80,0
39.00,98.66,0
39.00,92.74,0
42.00,86.50,0
41.00,80.26,0
43.00,74.24,0
39.00,68.59,0
50.00,63.44,0
75.00,59.20,0
112.00,56.61,0
107.00,56.12,0
123.00,57.62,0
127.00,60.84,0
118.00,65.37,0
135.00,70.79,0
100.00,76.59,0
138.00,82.38,0
114.00,88.11,0
178.00,94.04,0
106.00,100.20,0
136.00,105.92,0
93.00,110.65,0
131.00,114.33,0
100.00,117.11,0
118.00,119.06,0
80.00,120.05,0
94.00,119.89,0
48.00,118.43,0
57.00,115.46,0
41.00,111.02,0
49.00,105.53,0
41.00,99.37,0
40.00,92.82,0
52.00,86.21,0
42.00,79.88,0
53.00,73.98,0
44.00,68.64,0
73.00,64.08,0
92.00,60.84,0
98.00,59.29,0
139.00,59.70,0
127.00,62.21,0
124.00,66.32,0
134.00,71.48,0
119.00,77.27,0
141.00,83.35,0
110.00,89.44,0
164.00,95.45,0
131.00,101.57,0
126.00,107.43,0
89.00,112.23,0
126.00,115.72,0
100.00,118.19,0
100.00,119.68,0
64.00,119.85,0
64.00,118.42,0
38.00,115.30,0
53.00,110.71,0
37.00,105.05,0
47.00,98.69,0
36.00,91.98,0
41.00,85.16,0
47.00,78.52,0
68.00,72.55,0
84.00,67.83,0
65.00,64.48,0
79.00,62.23,0
82.00,60.98,0
108.00,60.92,0
127.00,62.38,0
138.00,65.55,0
124.00,70.16,0
134.00,75.62,0
104.00,81.37,0
145.00,87.08,0
119.00,92.77,0
149.00,98.42,0
119.00,103.88,0
134.00,108.91,0
100.00,113.15,0
116.00,116.36,0
72.00,118.29,0
96.00,118.78,0
64.00,117.93,0
87.00,115.94,0
58.00,113.04,0
42.00,109.12,0
39.00,104.01,0
45.00,98.05,0
37.00,91.64,0
42.00,85.08,0
55.00,78.74,0
70.00,73.14,0
59.00,68.57,0
64.00,64.92,0
98.00,62.35,0
98.00,61.29,0
112.00,61.80,0
124.00,63.83,0
124.00,67.25,0
119.00,71.67,0
127.00,76.70,0
122.00,82.07,0
152.00,87.77,0
102.00,93.56,0
151.00,99.06,0
121.00,104.31,0
142.00,109.27,0
117.00,113.75,0
119.00,117.47,0
91.00,120.11,0
102.00,121.47,0
61.00,121.44,0
73.00,119.85,0
54.00,116.85,0
66.00,112.76,0
50.00,107.87,0
40.00,102.30,0
42.00,96.10,0
40.00,89.55,0
40.00,82.96,0
49.00,76.61,0
59.00,70.88,0
59.00,66.04,0
82.00,62.33,0
93.00,60.06,0
91.00,59.32,0
123.00,60.09,0
121.00,62.47,0
118.00,66.20,0
127.00,70.85,0
119.00,76.10,0
136.00,81.71,0
103.00,87.35,0
165.00,92.94,0
136.00,98.82,0
147.00,104.84,0
109.00,110.41,0
124.00,115.03,0
86.00,118.41,0
120.00,120.50,0
77.00,121.44,0
80.00,121.06,0
53.00,119.17,0
58.00,115.78,0
36.00,111.06,0
44.00,105.24,0
36.00,98.63,0
49.00,91.72,0
40.00,84.88,0
37.00,78.25,0
53.00,72.00,0
46.00,66.43,0
75.00,61.83,0
92.00,58.67,0
99.00,57.28,0
114.00,57.67,0
125.00,59.78,0
128.00,63.48,0
117.00,68.30,0
109.00,73.61,0
147.00,79.21,0
122.00,85.17,0
161.00,91.46,0
122.00,97.90,0
147.00,104.12,0
96.00,109.64,0
102.00,113.85,0
88.00,116.48,0
106.00,117.81,0
74.00,118.02,0
81.00,117.03,0
45.00,114.75,0
60.00,111.12,0
38.00,106.38,0
45.00,100.73,0
41.00,94.50,0
54.00,88.13,0
51.00,82.03,0
67.00,76.52,0
48.00,71.72,0
79.00,67.72,0
86.00,64.85,0
63.00,63.12,0
113.00,62.42,0
117.00,63.20,0
120.00,65.54,0
111.00,69.05,0
123.00,73.27,0
124.00,78.04,0
146.00,83.38,0
116.00,89.08,0
158.00,94.88,0
115.00,100.69,0
131.00,106.06,0
96.00,110.54,0
99.00,113.78,0
56.00,115.36,0
89.00,115.24,0
55.00,113.72,0
49.00,110.84,0
51.00,106.68,0
48.00,101.62,0
42.00,95.97,0
40.00,89.93,0
55.00,83.82,0
38.00,77.96,0
57.00,72.48,0
65.00,67.71,0
80.00,64.05,0
76.00,61.65,0
99.00,60.51,0
120.00,60.90,0
115.00,62.92,0
128.00,66.34,0
136.00,70.91,0
105.00,76.21,0
141.00,81.75,0
119.00,87.43,0
159.00,93.30,0
118.00,99.27,0
157.00,105.09,0
107.00,110.50,0
121.00,115.02,0
78.00,118.18,0
106.00,119.84,0
76.00,120.17,0
91.00,119.34,0
43.00,117.26,0
62.00,113.76,0
42.00,109.07,0
51.00,103.51,0
38.00,97.36,0
44.00,90.88,0
36.00,84.30,0
39.00,77.80,0
47.00,71.62,0
68.00,66.21,0
63.00,61.95,0
46.00,58.65,0
86.00,56.19,0
103.00,55.13,0
119.00,55.91,0
128.00,58.53,0
121.00,62.70,0
112.00,67.77,0
131.00,73.32,0
117.00,79.19,0
159.00,85.37,0
105.00,91.72,0
156.00,97.86,0
113.00,103.66,0
126.00,108.85,0
76.00,112.83,0
112.00,115.36,0
66.00,116.49,0
91.00,116.26,0
45.00,114.66,0
46.00,111.54,0
58.00,107.07,0
44.00,101.82,0
42.00,96.03,0
40.00,89.85,0
39.00,83.51,0
40.00,77.25,0
72.00,71.51,0
65.00,66.85,0
67.00,63.33,0
74.00,60.81,0
86.00,59.37,0
126.00,59.39,0
124.00,61.27,0
110.00,64.67,0
123.00,68.99,0
117.00,73.91,0
132.00,79.24,0
109.00,84.71,0
164.00,90.32,0
103.00,96.06,0
140.00,101.46,0
90.00,106.11,0
122.00,109.80,0
113.00,112.67,0
109.00,114.90,0
74.00,116.15,0
86.00,116.09,0
46.00,114.62,0
66.00,111.73,0
46.00,107.69,0
54.00,102.81,0
40.00,97.31,0
38.00,91.35,0
39.00,85.07,0
45.00,78.81,0
51.00,72.94,0
66.00,67.82,0
67.00,63.76,0
84.00,60.91,0
86.00,59.38,0
104.00,59.23,0
105.00,60.45,0
117.00,62.95,0
127.00,66.62,0
124.00,71.29,0
157.00,76.88,0
146.00,83.42,0
165.00,90.70,0
122.00,98.16,0
182.00,105.47,0
119.00,112.55,0
135.00,118.80,0
86.00,123.54,0
106.00,126.45,0
72.00,127.54,0
104.00,127.07,0
59.00,125.29,0
66.00,122.19,0
45.00,117.74,0
46.00,112.11,0
38.00,105.57,0
39.00,98.44,0
37.00,91.04,0
48.00,83.73,0
46.00,76.90,0
70.00,70.89,0
85.00,66.22,0
91.00,63.22,0
100.00,61.87,0
110.00,62.12,0
95.00,63.68,0
122.00,66.25,0
126.00,69.86,0
125.00,74.40,0
137.00,79.66,0
103.00,85.16,0
135.00,90.47,0
127.00,95.66,0
157.00,100.94,0
98.00,106.08,0
128.00,110.44,0
97.00,113.84,0
112.00,116.25,0
87.00,117.60,0
98.00,117.93,0
56.00,117.08,0
58.00,114.76,0
46.00,111.01,0
36.00,105.99,0
38.00,99.96,0
42.00,93.34,0
37.00,86.52,0
40.00,79.77,0
49.00,73.37,0
66.00,67.77,0
59.00,63.26,0
80.00,59.92,0
101.00,58.05,0
108.00,57.93,0
117.00,59.50,0
116.00,62.51,0
103.00,66.46,0
112.00,70.85,0
125.00,75.60,0
118.00,80.68,0
149.00,86.09,0
91.00,91.55,0
160.00,96.72,0
115.00,101.82,0
116.00,106.51,0
88.00,110.15,0
88.00,112.40,0
79.00,113.24,0
84.00,112.87,0
66.00,111.44,0
56.00,108.90,0
43.00,105.21,0
37.00,100.39,0
38.00,94.67,0
42.00,88.48,0
44.00,82.21,0
40.00,76.14,0
73.00,70.64,0
60.00,66.16,0
87.00,62.88,0
102.00,61.10,0
102.00,60.99,0
114.00,62.36,0
105.00,64.93,0
127.00,68.48,0
149.00,73.09,0
119.00,78.70,0
141.00,84.74,0
112.00,90.77,0
151.00,96.61,0
115.00,102.23,0
153.00,107.54,0
98.00,112.31,0
110.00,116.00,0
53.00,118.03,0
74.00,118.08,0
54.00,116.33,0
58.00,113.13,0
53.00,108.80,0
63.00,103.78,0
40.00,98.34,0
50.00,92.54,0
44.00,86.60,0
39.00,80.67,0
60.00,75.00,0
46.00,69.92,0
87.00,65.71,0
79.00,62.81,0
110.00,61.46,0
98.00,61.67,0
112.00,63.27,0
97.00,65.84,0
119.00,69.13,0
102.00,72.96,0
142.00,77.30,0
119.00,82.22,0
149.00,87.62,0
104.00,93.14,0
147.00,98.42,0
110.00,103.38,0
127.00,107.82,0
102.00,111.48,0
91.00,114.06,0
64.00,115.14,0
79.00,114.61,0
57.00,112.72,0
86.00,109.86,0
45.00,106.33,0
56.00,102.04,0
48.00,97.10,0
36.00,91.67,0
41.00,85.84,0
41.00,79.89,0
69.00,74.31,0
49.00,69.50,0
71.00,65.51,0
87.00,62.61,0
101.00,61.22,0
109.00,61.42,0
113.00,63.12,0
103.00,65.95,0
137.00,69.71,0
118.00,74.35,0
161.00,79.83,0
120.00,86.00,0
151.00,92.40,0
107.00,98.59,0
132.00,104.14,0
113.00,108.92,0
102.00,112.75,0
81.00,115.22,0
87.00,116.20,0
63.00,115.74,0
70.00,113.90,0
50.00,110.80,0
52.00,106.62,0
46.00,101.56,0
50.00,95.96,0
36.00,90.03,0
39.00,83.88,0
50.00,77.78,0
47.00,72.12,0
63.00,67.14,0
59.00,63.05,0
75.00,59.98,0
104.00,58.25,0
109.00,58.25,0
127.00,60.07,0
126.00,63.52,0
111.00,68.08,0
157.00,73.49,0
108.00,79.56,0
157.00,85.92,0
120.00,92.39,0
155.00,98.82,0
117.00,104.96,0
127.00,110.42,0
81.00,114.64,0
105.00,117.31,0
52.00,118.29,0
85.00,117.53,0
51.00,115.32,0
57.00,111.84,0
43.00,107.23,0
45.00,101.73,0
40.00,95.63,0
46.00,89.24,0
35.00,82.82,0
51.00,76.58,0
64.00,70.98,0
54.00,66.29,0
93.00,62.74,0
68.00,60.51,0
99.00,59.53,0
116.00,59.97,0
128.00,62.11,0
128.00,65.82,0
128.00,70.69,0
113.00,76.18,0
170.00,82.15,0
127.00,88.78,0
163.00,95.74,0
121.00,102.62,0
145.00,109.00,0
105.00,114.51,0
136.00,118.97,0
90.00,122.28,0
90.00,124.11,0
62.00,124.13,0
92.00,122.57,0
44.00,119.74,0
48.00,115.48,0
41.00,109.94,0
41.00,103.51,0
35.00,96.51,0
48.00,89.30,0
45.00,82.33,0
63.00,75.96,0
84.00,70.73,0
60.00,66.81,0
94.00,64.10,0
109.00,62.89,0
120.00,63.48,0
114.00,65.66,0
127.00,69.07,0
120.00,73.42,0
165.00,78.71,0
127.00,84.88,0
191.00,91.80,0
126.00,99.26,0
154.00,106.59,0
122.00,113.23,0
144.00,119.02,0
94.00,123.64,0
99.00,126.63,0
74.00,127.74,0
72.00,126.99,0
57.00,124.47,0
73.00,120.57,0
56.00,115.75,0
53.00,110.22,0
36.00,104.00,0
38.00,97.17,0
38.00,90.00,0
41.00,82.85,0
64.00,76.20,0
74.00,70.63,0
101.00,66.66,0
108.00,64.61,0
112.00,64.47,0
129.00,66.03,0
119.00,69.10,0
122.00,73.19,0
149.00,78.11,0
124.00,83.78,0
158.00,89.90,0
115.00,96.18,0
154.00,102.24,0
118.00,107.95,0
150.00,113.17,0
118.00,117.83,0
135.00,121.79,0
90.00,124.72,0
102.00,126.26,0
48.00,126.10,0
74.00,124.06,0
59.00,120.52,0
72.00,116.02,0
46.00,110.81,0
40.00,104.88,0
65.00,98.49,0
41.00,92.12,0
44.00,85.82,0
44.00,79.62,0
50.00,73.78,0
69.00,68.66,0
92.00,64.82,0
92.00,62.60,0
117.00,62.10,0
124.00,63.40,0
122.00,66.31,0
119.00,70.36,0
134.00,75.20,0
123.00,80.62,0
151.00,86.45,0
117.00,92.51,0
162.00,98.57,0
127.00,104.61,0
164.00,110.52,0
114.00,116.07,0
111.00,120.61,0
76.00,123.47,0
92.00,124.51,0
71.00,123.90,0
84.00,121.95,0
48.00,118.81,0
58.00,114.44,0
37.00,108.99,0
38.00,102.63,0
49.00,95.72,0
42.00,88.77,0
76.00,82.26,0
68.00,76.77,0
77.00,72.44,0
78.00,69.24,0
102.00,67.30,0
127.00,66.99,0
124.00,68.51,0
115.00,71.47,0
137.00,75.42,0
124.00,80.17,0
151.00,85.58,0
104.00,91.24,0
195.00,97.11,0
127.00,103.50,0
159.00,109.95,0
107.00,115.78,0
118.00,120.44,0
71.00,123.42,0
100.00,124.58,0
54.00,124.03,0
84.00,121.91,0
52.00,118.53,0
58.00,114.07,0
40.00,108.61,0
37.00,102.31,0
37.00,95.40,0
38.00,88.23,0
54.00,81.24,0
52.00,74.88,0
72.00,69.47,0
102.00,65.54,0
96.00,63.47,0
127.00,63.27,0
123.00,64.94,0
115.00,68.11,0
128.00,72.22,0
122.00,77.03,0
149.00,82.46,0
113.00,88.27,0
169.00,94.27,0
112.00,100.37,0
138.00,106.09,0
122.00,111.14,0
123.00,115.47,0
103.00,118.85,0
110.00,121.11,0
76.00,122.10,0
84.00,121.68,0
51.00,119.76,0
51.00,116.29,0
43.00,111.41,0
58.00,105.64,0
35.00,99.36,0
38.00,92.67,0
48.00,85.84,0
68.00,79.48,0
78.00,74.18,0
70.00,70.13,0
102.00,67.38,0
107.00,66.21,0
119.00,66.74,0
132.00,68.90,0
127.00,72.48,0
130.00,77.09,0
142.00,82.43,0
109.00,88.08,0
155.00,93.72,0
120.00,99.38,0
160.00,104.97,0
127.00,110.45,0
127.00,115.43,0
90.00,119.29,0
96.00,121.61,0
70.00,122.25,0
82.00,121.34,0
51.00,119.00,0
55.00,115.24,0
46.00,110.29,0
39.00,104.41,0
40.00,97.83,0
36.00,90.87,0
40.00,83.84,0
42.00,77.01,0
65.00,70.84,0
64.00,65.76,0
89.00,62.05,0
107.00,60.06,0
97.00,59.89,0
120.00,61.26,0
127.00,64.12,0
126.00,68.32,0
143.00,73.56,0
130.00,79.60,0
162.00,86.22,0
106.00,93.04,0
152.00,99.49,0
122.00,105.49,0
142.00,111.02,0
118.00,115.88,0
109.00,119.76,0
87.00,122.25,0
101.00,123.27,0
67.00,122.93,0
65.00,121.07,0
55.00,117.72,0
54.00,113.17,0
41.00,107.63,0
41.00,101.33,0
47.00,94.59,0
42.00,87.79,0
67.00,81.35,0
47.00,75.62,0
92.00,70.85,0
91.00,67.55,0
98.00,65.88,0
123.00,65.82,0
124.00,67.49,0
124.00,70.60,0
129.00,74.78,0
117.00,79.63,0
143.00,84.87,0
116.00,90.33,0
153.00,95.85,0
125.00,101.40,0
148.00,106.82,0
114.00,111.82,0
127.00,116.08,0
99.00,119.34,0
120.00,121.55,0
59.00,122.49,0
83.00,121.80,0
45.00,119.47,0
50.00,115.55,0
38.00,110.24,0
38.00,103.91,0
39.00,96.90,0
42.00,89.67,0
52.00,82.65,0
52.00,76.21,0
82.00,70.77,0
91.00,66.83,0
127.00,64.89,0
147.00,65.34,0
135.00,68.15,0
116.00,72.46,0
134.00,77.50,0
122.00,82.95,0
163.00,88.85,0
132.00,95.20,0
180.00,101.91,0
134.00,108.82,0
127.00,115.24,0
94.00,120.28,0
93.00,123.49,0
54.00,124.61,0
67.00,123.52,0
36.00,120.44,0
58.00,115.74,0
46.00,109.98,0
56.00,103.66,0
45.00,97.11,0
39.00,90.46,0
46.00,83.80,0
45.00,77.43,0
59.00,71.65,0
86.00,66.94,0
92.00,63.83,0
110.00,62.51,0
125.00,63.07,0
130.00,65.46,0
140.00,69.46,0
123.00,74.60,0
148.00,80.48,0
117.00,86.71,0
160.00,93.06,0
126.00,99.48,0
167.00,105.85,0
126.00,112.04,0
121.00,117.50,0
69.00,121.38,0
100.00,123.28,0
74.00,123.49,0
103.00,122.46,0
67.00,120.50,0
54.00,117.41,0
39.00,112.94,0
37.00,107.19,0
44.00,100.57,0
41.00,93.59,0
36.00,86.53,0
37.00,79.54,0
85.00,73.21,0
61.00,68.20,0
86.00,64.57,0
107.00,62.49,0
117.00,62.31,0
96.00,63.73,0
132.00,66.35,0
124.00,70.17,0
155.00,75.19,0
126.00,81.16,0
187.00,87.94,0
127.00,95.38,0
154.00,102.80,0
115.00,109.59,0
122.00,115.31,0
88.00,119.54,0
94.00,122.01,0
68.00,122.70,0
80.00,121.71,0
50.00,119.19,0
46.00,115.19,0
40.00,109.83,0
41.00,103.48,0
45.00,96.60,0
36.00,89.56,0
54.00,82.64,0
75.00,76.47,0
79.00,71.59,0
104.00,68.32,0
107.00,66.82,0
130.00,67.18,0
123.00,69.32,0
131.00,72.83,0
140.00,77.43,0
126.00,82.80,0
158.00,88.70,0
126.00,94.95,0
183.00,101.48,0
135.00,108.27,0
140.00,114.76,0
113.00,120.26,0
112.00,124.40,0
89.00,126.96,0
102.00,127.94,0
62.00,127.37,0
65.00,125.13,0
40.00,121.20,0
47.00,115.78,0
45.00,109.31,0
39.00,102.23,0
34.00,94.76,0
44.00,87.18,0
68.00,80.11,0
57.00,74.05,0
86.00,69.21,0
97.00,65.95,0
127.00,64.65,0
139.00,65.61,0
132.00,68.63,0
122.00,73.00,0
146.00,78.24,0
98.00,83.88,0
162.00,89.56,0
120.00,95.40,0
170.00,101.42,0
115.00,107.40,0
127.00,112.75,0
87.00,116.86,0
107.00,119.48,0
71.00,120.60,0
87.00,120.23,0
60.00,118.50,0
76.00,115.61,0
49.00,111.73,0
40.00,106.86,0
36.00,100.98,0
37.00,94.38,0
37.00,87.46,0
54.00,80.67,0
57.00,74.52,0
60.00,69.26,0
105.00,65.31,0
115.00,63.36,0
96.00,63.35,0
132.00,64.89,0
127.00,67.92,0
129.00,72.28,0
149.00,77.63,0
120.00,83.68,0
194.00,90.32,0
133.00,97.68,0
183.00,105.37,0
122.00,112.87,0
147.00,119.58,0
101.00,124.99,0
105.00,128.71,0
73.00,130.46,0
79.00,130.22,0
51.00,128.06,0
48.00,124.04,0
52.00,118.55,0
40.00,112.05,0
39.00,104.79,0
46.00,97.16,0
40.00,89.55,0
36.00,82.15,0
87.00,75.45,0
69.00,70.17,0
83.00,66.41,0
94.00,64.06,0
114.00,63.34,0
127.00,64.42,0
146.00,67.39,0
127.00,71.93,0
138.00,77.44,0
119.00,83.39,0
159.00,89.57,0
126.00,95.95,0
177.00,102.49,0
146.00,109.24,0
148.00,115.86,0
112.00,121.64,0
116.00,126.03,0
86.00,128.75,0
87.00,129.66,0
62.00,128.70,0
82.00,126.13,0
54.00,122.30,0
45.00,117.24,0
42.00,111.06,0
40.00,104.07,0
53.00,96.75,0
36.00,89.48,0
78.00,82.67,0
49.00,76.76,0
88.00,71.91,0
87.00,68.43,0
124.00,66.69,0
135.00,67.10,0
127.00,69.48,0
129.00,73.29,0
142.00,78.14,0
127.00,83.71,0
162.00,89.78,0
122.00,96.15,0
169.00,102.57,0
120.00,108.84,0
148.00,114.61,0
120.00,119.64,0
118.00,123.69,0
86.00,126.33,0
98.00,127.35,0
54.00,126.69,0
72.00,124.29,0
52.00,120.43,0
53.00,115.40,0
40.00,109.39,0
47.00,102.69,0
43.00,95.65,0
37.00,88.55,0
65.00,81.73,0
52.00,75.65,0
72.00,70.52,0
81.00,66.59,0
98.00,64.15,0
127.00,63.53,0
122.00,64.88,0
119.00,67.80,0
144.00,71.97,0
127.00,77.16,0
147.00,83.07,0
105.00,89.17,0
161.00,95.14,0
124.00,101.08,0
172.00,107.06,0
130.00,113.01,0
126.00,118.40,0
88.00,122.47,0
141.00,125.16,0
72.00,126.71,0
84.00,126.76,0
41.00,124.90,0
60.00,121.21,0
44.00,116.11,0
38.00,109.91,0
36.00,102.87,0
39.00,95.36,0
47.00,87.83,0
71.00,80.89,0
56.00,74.96,0
81.00,70.16,0
120.00,67.00,0
115.00,65.98,0
127.00,66.96,0
117.00,69.52,0
134.00,73.27,0
130.00,77.95,0
166.00,83.56,0
127.00,89.93,0
161.00,96.61,0
114.00,103.14,0
164.00,109.26,0
143.00,115.13,0
144.00,120.69,0
126.00,125.53,0
114.00,129.28,0
99.00,131.60,0
94.00,132.36,0
67.00,131.48,0
92.00,129.12,0
63.00,125.65,0
56.00,121.14,0
43.00,115.50,0
45.00,108.95,0
39.00,101.79,0
41.00,94.34,0
47.00,86.94,0
72.00,80.15,0
57.00,74.39,0
66.00,69.63,0
98.00,66.09,0
115.00,64.33,0
118.00,64.54,0
135.00,66.60,0
134.00,70.29,0
130.00,75.17,0
145.00,80.89,0
115.00,86.98,0
163.00,93.19,0
138.00,99.63,0
169.00,106.27,0
132.00,112.83,0
142.00,118.84,0
94.00,123.69,0
83.00,126.69,0
78.00,127.55,0
68.00,126.51,0
44.00,123.65,0
48.00,119.05,0
43.00,113.14,0
56.00,106.48,0
43.00,99.54,0
39.00,92.46,0
61.00,85.53,0
54.00,79.20,0
86.00,73.89,0
74.00,69.88,0
102.00,67.30,0
127.00,66.48,0
126.00,67.64,0
134.00,70.53,0
142.00,74.85,0
127.00,80.15,0
148.00,86.02,0
133.00,92.23,0
160.00,98.66,0
135.00,105.14,0
168.00,111.52,0
130.00,117.65,0
142.00,123.13,0
114.00,127.59,0
120.00,130.81,0
78.00,132.49,0
90.00,132.42,0
71.00,130.71,0
77.00,127.64,0
51.00,123.37,0
66.00,118.09,0
38.00,112.00,0
37.00,105.15,0
53.00,97.84,0
41.00,90.58,0
41.00,83.53,0
42.00,76.77,0
62.00,70.64,0
72.00,65.62,0
97.00,62.14,0
119.00,60.64,0
118.00,61.25,0
137.00,63.74,0
125.00,67.82,0
128.00,72.93,0
172.00,78.97,0
136.00,86.00,0
172.00,93.60,0
116.00,101.21,0
166.00,108.36,0
127.00,114.96,0
146.00,120.86,0
110.00,125.71,0
118.00,129.24,0
87.00,131.23,0
88.00,131.54,0
61.00,130.09,0
60.00,126.90,0
46.00,122.14,0
66.00,116.27,0
39.00,109.73,0
44.00,102.68,0
41.00,95.29,0
41.00,87.91,0
83.00,81.09,0
74.00,75.56,0
88.00,71.50,0
103.00,68.97,0
113.00,68.13,0
138.00,69.11,0
150.00,72.03,0
112.00,76.40,0
157.00,81.58,0
131.00,87.42,0
158.00,93.74,0
127.00,100.20,0
176.00,106.65,0
127.00,113.04,0
137.00,118.85,0
112.00,123.57,0
118.00,127.04,0
97.00,129.14,0
85.00,129.74,0
70.00,128.70,0
68.00,126.06,0
52.00,122.03,0
58.00,116.82,0
43.00,110.73,0
36.00,103.93,0
35.00,96.57,0
44.00,89.02,0
51.00,81.77,0
55.00,75.22,0
90.00,69.83,0
103.00,66.21,0
110.00,64.64,0
124.00,65.02,0
124.00,67.14,0
138.00,70.74,0
149.00,75.69,0
136.00,81.67,0
150.00,88.23,0
119.00,94.90,0
169.00,101.42,0
127.00,107.86,0
168.00,114.06,0
127.00,119.89,0
126.00,124.89,0
97.00,128.50,0
101.00,130.45,0
73.00,130.69,0
83.00,129.26,0
69.00,126.45,0
61.00,122.47,0
36.00,117.27,0
40.00,110.86,0
44.00,103.64,0
37.00,96.09,0
39.00,88.47,0
67.00,81.26,0
68.00,75.08,0
73.00,70.19,0
127.00,66.99,0
125.00,66.09,0
138.00,67.49,0
141.00,70.80,0
138.00,75.60,0
122.00,81.21,0
153.00,87.21,0
131.00,93.52,0
175.00,100.10,0
136.00,106.90,0
156.00,113.53,0
128.00,119.57,0
133.00,124.71,0
106.00,128.63,0
98.00,131.02,0
83.00,131.69,0
100.00,130.82,0
48.00,128.57,0
54.00,124.68,0
44.00,119.25,0
39.00,112.66,0
38.00,105.25,0
42.00,97.45,0
40.00,89.64,0
38.00,82.07,0
81.00,75.22,0
82.00,69.86,0
86.00,66.21,0
97.00,64.16,0
115.00,63.74,0
139.00,65.21,0
149.00,68.65,0
133.00,73.72,0
148.00,79.81,0
127.00,86.39,0
166.00,93.22,0
128.00,100.18,0
176.00,107.09,0
136.00,113.90,0
143.00,120.19,0
127.00,125.53,0
128.00,129.78,0
95.00,132.67,0
119.00,134.10,0
70.00,134.09,0
84.00,132.49,0
53.00,129.31,0
61.00,124.69,0
65.00,119.01,0
67.00,112.90,0
48.00,106.57,0
37.00,99.87,0
55.00,92.95,0
41.00,86.17,0
56.00,79.77,0
50.00,73.95,0
102.00,69.20,0
105.00,66.28,0
137.00,65.60,0
130.00,67.11,0
127.00,70.38,0
128.00,74.76,0
154.00,80.06,0
136.00,86.15,0
159.00,92.77,0
126.00,99.54,0
165.00,106.16,0
116.00,112.40,0
160.00,118.04,0
126.00,123.06,0
151.00,127.47,0
103.00,130.99,0
93.00,133.04,0
62.00,133.10,0
78.00,131.19,0
60.00,127.67,0
57.00,122.88,0
46.00,116.99,0
40.00,110.18,0
42.00,102.74,0
40.00,95.05,0
52.00,87.50,0
41.00,80.39,0
71.00,74.03,0
86.00,68.97,0
107.00,65.76,0
130.00,64.72,0
124.00,65.86,0
131.00,68.78,0
151.00,73.19,0
118.00,78.68,0
163.00,84.82,0
103.00,91.19,0
169.00,97.47,0
130.00,103.74,0
186.00,110.16,0
128.00,116.60,0
126.00,122.34,0
97.00,126.60,0
101.00,129.13,0
66.00,129.79,0
91.00,128.65,0
64.00,126.11,0
53.00,122.26,0
46.00,117.08,0
38.00,110.76,0
45.00,103.67,0
40.00,96.26,0
40.00,88.79,0
42.00,81.52,0
76.00,74.95,0
79.00,69.74,0
116.00,66.36,0
127.00,65.22,0
120.00,66.23,0
134.00,68.95,0
122.00,72.95,0
114.00,77.65,0
179.00,83.04,0
129.00,89.35,0
163.00,96.16,0
127.00,102.97,0
218.00,109.99,0
133.00,117.44,0
160.00,124.53,0
122.00,130.56,0
113.00,135.10,0
84.00,137.66,0
88.00,138.12,0
70.00,136.60,0
82.00,133.50,0
50.00,129.09,0
48.00,123.34,0
46.00,116.47,0
40.00,108.88,0
39.00,100.87,0
44.00,92.79,0
40.00,84.97,0
36.00,77.54,0
97.00,71.05,0
99.00,66.49,0
99.00,64.08,0
102.00,63.43,0
116.00,64.31,0
136.00,66.75,0
131.00,70.68,0
133.00,75.74,0
153.00,81.62,0
119.00,88.01,0
170.00,94.60,0
129.00,101.35,0
166.00,108.03,0
128.00,114.41,0
145.00,120.17,0
88.00,124.75,0
114.00,127.70,0
59.00,128.82,0
90.00,128.07,0
46.00,125.61,0
69.00,121.65,0
36.00,116.43,0
48.00,110.19,0
44.00,103.24,0
39.00,95.99,0
33.00,88.59,0
44.00,81.28,0
91.00,74.78,0
62.00,69.76,0
90.00,66.16,0
112.00,64.17,0
107.00,64.03,0
131.00,65.59,0
132.00,68.75,0
126.00,73.19,0
158.00,78.63,0
139.00,84.96,0
184.00,92.10,0
146.00,99.87,0
173.00,107.85,0
120.00,115.40,0
160.00,122.06,0
125.00,127.75,0
125.00,132.27,0
90.00,135.16,0
94.00,136.18,0
81.00,135.43,0
80.00,133.15,0
59.00,129.50,0
53.00,124.53,0
46.00,118.35,0
39.00,111.27,0
38.00,103.56,0
37.00,95.51,0
63.00,87.69,0
80.00,80.85,0
80.00,75.48,0
78.00,71.53,0
96.00,68.91,0
127.00,67.92,0
141.00,69.01,0
135.00,72.04,0
142.00,76.55,0
128.00,81.96,0
160.00,87.98,0
124.00,94.38,0
187.00,101.04,0
142.00,108.06,0
178.00,115.18,0
105.00,121.77,0
142.00,127.13,0
120.00,131.21,0
113.00,134.07,0
91.00,135.43,0
90.00,135.15,0
50.00,133.12,0
63.00,129.28,0
38.00,123.87,0
63.00,117.32,0
42.00,110.16,0
37.00,102.60,0
44.00,94.79,0
44.00,87.11,0
48.00,79.88,0
79.00,73.56,0
70.00,68.61,0
72.00,64.99,0
101.00,62.69,0
128.00,62.20,0
124.00,63.72,0
148.00,67.10,0
149.00,72.15,0
127.00,78.33,0
150.00,85.02,0
110.00,91.73,0
171.00,98.28,0
117.00,104.71,0
167.00,110.86,0
133.00,116.70,0
168.00,122.24,0
119.00,127.28,0
127.00,131.30,0
75.00,133.72,0
99.00,134.26,0
65.00,133.01,0
87.00,130.28,0
56.00,126.32,0
51.00,121.20,0
46.00,114.99,0
38.00,107.95,0
45.00,100.41,0
46.00,92.80,0
54.00,85.53,0
80.00,79.11,0
80.00,74.04,0
89.00,70.46,0
110.00,68.48,0
127.00,68.30,0
127.00,69.97,0
134.00,73.21,0
145.00,77.70,0
127.00,83.10,0
143.00,88.92,0
129.00,94.88,0
170.00,100.99,0
136.00,107.31,0
169.00,113.61,0
134.00,119.66,0
143.00,125.10,0
110.00,129.48,0
103.00,132.36,0
87.00,133.52,0
79.00,132.92,0
82.00,130.78,0
65.00,127.35,0
58.00,122.79,0
55.00,117.22,0
45.00,110.88,0
52.00,104.03,0
37.00,96.93,0
34.00,89.65,0
66.00,82.57,0
72.00,76.42,0
81.00,71.63,0
62.00,68.07,0
101.00,65.65,0
115.00,64.79,0
127.00,65.79,0
151.00,68.66,0
143.00,73.33,0
125.00,79.10,0
158.00,85.43,0
127.00,92.12,0
189.00,99.12,0
131.00,106.44,0
182.00,113.70,0
125.00,120.59,0
131.00,126.49,0
94.00,130.76,0
87.00,133.04,0
54.00,133.03,0
97.00,131.03,0
65.00,127.76,0
59.00,123.40,0
41.00,117.83,0
40.00,111.19,0
40.00,103.80,0
37.00,96.04,0
46.00,88.27,0
43.00,80.88,0
82.00,74.35,0
83.00,69.33,0
102.00,66.12,0
110.00,64.78,0
130.00,65.37,0
139.00,67.85,0
149.00,72.08,0
128.00,77.60,0
180.00,84.06,0
122.00,91.24,0
166.00,98.58,0
151.00,105.89,0
171.00,113.24,0
109.00,120.06,0
134.00,125.59,0
103.00,129.61,0
135.00,132.31,0
85.00,133.76,0
98.00,133.77,0
50.00,132.11,0
64.00,128.61,0
58.00,123.65,0
77.00,117.92,0
38.00,111.71,0
38.00,104.88,0
38.00,97.48,0
50.00,89.98,0
70.00,83.03,0
54.00,77.03,0
94.00,72.16,0
126.00,69.12,0
116.00,68.34,0
136.00,69.56,0
120.00,72.37,0
132.00,76.35,0
149.00,81.24,0
127.00,86.87,0
152.00,92.87,0
128.00,98.97,0
174.00,105.14,0
129.00,111.35,0
162.00,117.31,0
130.00,122.78,0
124.00,127.39,0
98.00,130.61,0
118.00,132.35,0
89.00,132.81,0
91.00,131.96,0
58.00,129.64,0
78.00,125.95,0
51.00,121.18,0
54.00,115.46,0
36.00,108.92,0
40.00,101.73,0
36.00,94.16,0
45.00,86.59,0
81.00,79.69,0
44.00,73.88,0
84.00,69.11,0
92.00,65.72,0
109.00,64.09,0
127.00,64.37,0
143.00,66.63,0
112.00,70.49,0
154.00,75.40,0
134.00,81.23,0
180.00,87.94,0
128.00,95.26,0
170.00,102.70,0
134.00,109.94,0
177.00,116.88,0
132.00,123.42,0
132.00,129.05,0
105.00,133.20,0
120.00,135.76,0
78.00,136.71,0
96.00,135.97,0
60.00,133.64,0
62.00,129.76,0
39.00,124.36,0
42.00,117.65,0
42.00,110.03,0
37.00,101.94,0
40.00,93.71,0
39.00,85.64,0
72.00,78.26,0
60.00,72.06,0
89.00,67.30,0
124.00,64.44,0
122.00,63.95,0
141.00,65.66,0
140.00,69.28,0
136.00,74.34,0
152.00,80.41,0
130.00,87.07,0
158.00,93.98,0
130.00,100.89,0
175.00,107.72,0
126.00,114.35,0
146.00,120.35,0
118.00,125.36,0
119.00,129.17,0
88.00,131.44,0
89.00,132.00,0
73.00,130.88,0
90.00,128.37,0
55.00,124.77,0
51.00,119.98,0
37.00,113.97,0
40.00,106.98,0
42.00,99.45,0
39.00,91.78,0
64.00,84.44,0
52.00,77.88,0
79.00,72.36,0
85.00,68.22,0
107.00,65.76,0
127.00,65.26,0
119.00,66.68,0
142.00,69.76,0
141.00,74.30,0
107.00,79.68,0
160.00,85.39,0
136.00,91.57,0
187.00,98.35,0
144.00,105.65,0
171.00,113.07,0
114.00,119.92,0
130.00,125.53,0
127.00,129.79,0
114.00,132.85,0
90.00,134.46,0
84.00,134.36,0
63.00,132.50,0
83.00,129.11,0
51.00,124.58,0
50.00,118.96,0
38.00,112.30,0
46.00,104.95,0
39.00,97.28,0
55.00,89.71,0
78.00,82.87,0
45.00,77.05,0
92.00,72.23,0
102.00,68.92,0
125.00,67.60,0
137.00,68.41,0
135.00,71.17,0
135.00,75.41,0
148.00,80.70,0
128.00,86.68,0
160.00,93.03,0
130.00,99.56,0
186.00,106.24,0
135.00,113.07,0
155.00,119.58,0
123.00,125.27,0
116.00,129.73,0
87.00,132.48,0
108.00,133.49,0
76.00,132.96,0
83.00,130.98,0
62.00,127.64,0
54.00,123.05,0
37.00,117.21,0
41.00,110.29,0
40.00,102.67,0
38.00,94.82,0
48.00,87.07,0
68.00,79.98,0
56.00,73.93,0
55.00,68.83,0
94.00,64.82,0
102.00,62.48,0
124.00,62.15,0
134.00,63.84,0
134.00,67.37,0
135.00,72.27,0
149.00,78.19,0
155.00,84.98,0
170.00,92.56,0
125.00,100.38,0
184.00,108.00,0
137.00,115.44,0
146.00,122.26,0
115.00,127.91,0
123.00,132.08,0
100.00,134.70,0
106.00,135.78,0
87.00,135.41,0
68.00,133.49,0
61.00,129.99,0
54.00,125.03,0
41.00,118.88,0
45.00,111.78,0
38.00,104.07,0
35.00,96.07,0
61.00,88.19,0
80.00,81.25,0
91.00,75.87,0
95.00,72.25,0
101.00,70.27,0
139.00,70.05,0
118.00,71.70,0
132.00,74.80,0
146.00,79.04,0
136.00,84.32,0
188.00,90.56,0
137.00,97.67,0
173.00,105.12,0
134.00,112.40,0
138.00,119.01,0
117.00,124.45,0
110.00,128.44,0
90.00,130.76,0
125.00,131.62,0
64.00,131.25,0
82.00,129.41,0
47.00,125.98,0
41.00,120.99,0
42.00,114.62,0
43.00,107.38,0
39.00,99.68,0
51.00,91.96,0
80.00,84.87,0
61.00,78.93,0
100.00,74.31,0
103.00,71.34,0
107.00,70.15,0
132.00,70.63,0
138.00,72.88,0
154.00,76.82,0
176.00,82.42,0
139.00,89.28,0
168.00,96.69,0
128.00,104.11,0
174.00,111.24,0
141.00,118.09,0
173.00,124.60,0
127.00,130.49,0
125.00,135.22,0
97.00,138.25,0
94.00,139.39,0
79.00,138.65,0
78.00,136.20,0
50.00,132.16,0
65.00,126.72,0
38.00,120.16,0
38.00,112.66,0
42.00,104.53,0
43.00,96.23,0
67.00,88.36,0
63.00,81.43,0
94.00,75.86,0
116.00,72.15,0
100.00,70.49,0
117.00,70.49,0
144.00,72.13,0
124.00,75.37,0
168.00,79.99,0
127.00,85.72,0
189.00,92.30,0
143.00,99.64,0
176.00,107.30,0
119.00,114.65,0
133.00,120.97,0
114.00,125.89,0
103.00,129.30,0
51.00,130.66,0
96.00,129.87,0
62.00,127.51,0
66.00,123.86,0
40.00,118.88,0
38.00,112.68,0
45.00,105.58,0
48.00,98.14,0
46.00,90.78,0
46.00,83.73,0
75.00,77.36,0
76.00,72.21,0
88.00,68.50,0
101.00,66.33,0
118.00,65.87,0
143.00,67.30,0
163.00,70.86,0
155.00,76.41,0
144.00,83.18,0
135.00,90.35,0
168.00,97.63,0
129.00,104.89,0
182.00,111.96,0
143.00,118.89,0
160.00,125.43,0
121.00,131.08,0
121.00,135.35,0
78.00,137.78,0
96.00,138.15,0
42.00,136.42,0
79.00,132.76,0
52.00,127.66,0
62.00,121.59,0
46.00,114.79,0
47.00,107.49,0
41.00,99.89,0
41.00,92.22,0
56.00,84.83,0
46.00,78.06,0
57.00,72.02,0
75.00,67.00,0
97.00,63.47,0
90.00,61.66,0
104.00,61.40,0
127.00,62.67,0
131.00,65.62,0
125.00,69.95,0
152.00,75.35,0
133.00,81.59,0
179.00,88.59,0
126.00,96.07,0
183.00,103.67,0
127.00,111.14,0
157.00,118.05,0
146.00,124.25,0
156.00,129.85,0
113.00,134.53,0
117.00,137.76,0
64.00,139.06,0
91.00,138.23,0
39.00,135.39,0
76.00,130.76,0
45.00,124.88,0
40.00,117.96,0
41.00,110.16,0
37.00,101.90,0
38.00,93.52,0
41.00,85.33,0
58.00,77.75,0
64.00,71.25,0
89.00,66.23,0
113.00,63.16,0
118.00,62.31,0
136.00,63.64,0
132.00,66.85,0
131.00,71.45,0
161.00,77.17,0
144.00,83.91,0
171.00,91.37,0
144.00,99.21,0
169.00,107.11,0
133.00,114.65,0
155.00,121.46,0
136.00,127.41,0
146.00,132.46,0
103.00,136.30,0
100.00,138.43,0
51.00,138.41,0
77.00,136.10,0
57.00,132.00,0
66.00,126.65,0
48.00,120.35,0
53.00,113.36,0
37.00,105.86,0
39.00,98.04,0
55.00,90.26,0
46.00,82.98,0
75.00,76.54,0
93.00,71.50,0
95.00,68.24,0
108.00,66.74,0
120.00,66.94,0
127.00,68.79,0
143.00,72.22,0
145.00,77.08,0
170.00,83.21,0
146.00,90.32,0
170.00,97.98,0
125.00,105.61,0
180.00,112.87,0
130.00,119.75,0
153.00,125.91,0
130.00,131.11,0
124.00,135.16,0
98.00,137.71,0
94.00,138.50,0
75.00,137.52,0
105.00,135.10,0
52.00,131.57,0
69.00,126.82,0
46.00,120.98,0
38.00,114.16,0
52.00,106.64,0
40.00,98.93,0
54.00,91.31,0
48.00,84.13,0
73.00,77.73,0
99.00,72.73,0
111.00,69.68,0
127.00,68.75,0
127.00,69.85,0
138.00,72.67,0
154.00,77.02,0
143.00,82.64,0
167.00,89.20,0
145.00,96.37,0
166.00,103.77,0
96.00,110.70,0
178.00,116.73,0
139.00,122.35,0
140.00,127.50,0
127.00,131.70,0
127.00,134.85,0
87.00,136.65,0
100.00,136.81,0
80.00,135.43,0
78.00,132.70,0
58.00,128.65,0
88.00,123.64,0
46.00,118.05,0
46.00,111.76,0
52.00,104.82,0
39.00,97.63,0
75.00,90.63,0
65.00,84.41,0
97.00,79.40,0
86.00,75.81,0
117.00,73.78,0
129.00,73.52,0
156.00,75.27,0
145.00,78.98,0
145.00,84.07,0
139.00,89.88,0
164.00,96.19,0
129.00,102.74,0
183.00,109.31,0
137.00,115.92,0
151.00,122.13,0
121.00,127.45,0
129.00,131.59,0
113.00,134.46,0
107.00,136.00,0
91.00,136.14,0
84.00,134.81,0
56.00,131.93,0
54.00,127.43,0
37.00,121.45,0
40.00,114.29,0
38.00,106.34,0
39.00,98.08,0
46.00,89.89,0
42.00,82.12,0
71.00,75.17,0
72.00,69.51,0
129.00,65.78,0
106.00,64.37,0
122.00,64.99,0
135.00,67.33,0
160.00,71.44,0
139.00,77.12,0
150.00,83.75,0
127.00,90.71,0
173.00,97.76,0
143.00,104.97,0
196.00,112.39,0
129.00,119.82,0
161.00,126.58,0
112.00,132.19,0
115.00,136.21,0
103.00,138.43,0
99.00,139.02,0
75.00,137.97,0
66.00,135.20,0
45.00,130.72,0
55.00,124.74,0
35.00,117.62,0
41.00,109.71,0
48.00,101.42,0
43.00,93.25,0
57.00,85.54,0
52.00,78.58,0
94.00,72.80,0
95.00,68.77,0
116.00,66.75,0
120.00,66.70,0
151.00,68.66,0
164.00,72.70,0
181.00,78.84,0
143.00,86.47,0
166.00,94.65,0
138.00,102.79,0
179.00,110.72,0
146.00,118.38,0
195.00,125.80,0
140.00,132.86,0
150.00,139.00,0
100.00,143.53,0
107.00,145.99,0
83.00,146.29,0
100.00,144.77,0
65.00,141.69,0
73.00,137.19,0
44.00,131.31,0
50.00,124.26,0
38.00,116.31,0
43.00,107.80,0
39.00,99.12,0
41.00,90.58,0
50.00,82.52,0
65.00,75.36,0
82.00,69.59,0
104.00,65.65,0
100.00,63.72,0
137.00,63.80,0
132.00,65.92,0
144.00,69.86,0
137.00,75.13,0
132.00,81.20,0
142.00,87.61,0
132.00,94.12,0
179.00,100.78,0
143.00,107.74,0
178.00,114.78,0
132.00,121.55,0
158.00,127.63,0
116.00,132.69,0
128.00,136.44,0
90.00,138.58,0
94.00,138.95,0
61.00,137.45,0
83.00,134.24,0
50.00,129.66,0
89.00,124.15,0
44.00,118.11,0
45.00,111.46,0
39.00,104.15,0
48.00,96.58,0
39.00,89.07,0
44.00,81.82,0
76.00,75.28,0
81.00,70.11,0
102.00,66.67,0
97.00,65.01,0
116.00,64.99,0
142.00,66.72,0
133.00,70.24,0
139.00,75.10,0
147.00,80.94,0
147.00,87.50,0
175.00,94.70,0
124.00,102.17,0
179.00,109.45,0
127.00,116.40,0
182.00,122.91,0
127.00,128.91,0
126.00,133.84,0
88.00,137.03,0
97.00,138.21,0
82.00,137.54,0
102.00,135.49,0
63.00,132.33,0
56.00,127.90,0
51.00,122.15,0
48.00,115.44,0
37.00,108.03,0
37.00,100.13,0
42.00,92.09,0
52.00,84.37,0
79.00,77.57,0
73.00,72.18,0
88.00,68.28,0
78.00,65.76,0
115.00,64.63,0
152.00,65.44,0
163.00,68.71,0
139.00,74.01,0
140.00,80.43,0
139.00,87.26,0
165.00,94.38,0
134.00,101.66,0
180.00,108.89,0
144.00,116.07,0
155.00,122.83,0
134.00,128.77,0
119.00,133.51,0
104.00,136.63,0
96.00,137.97,0
58.00,137.35,0
90.00,134.85,0
61.00,130.95,0
71.00,125.98,0
42.00,120.06,0
40.00,113.20,0
38.00,105.57,0
43.00,97.59,0
42.00,89.67,0
45.00,82.09,0
79.00,75.36,0
97.00,70.23,0
102.00,67.13,0
135.00,66.15,0
127.00,67.34,0
148.00,70.49,0
150.00,75.29,0
148.00,81.39,0
184.00,88.56,0
142.00,96.51,0
168.00,104.62,0
141.00,112.44,0
184.00,119.91,0
140.00,126.99,0
148.00,133.24,0
114.00,138.11,0
111.00,141.28,0
79.00,142.44,0
100.00,141.64,0
61.00,139.16,0
57.00,134.97,0
41.00,129.12,0
50.00,121.94,0
40.00,113.96,0
38.00,105.52,0
63.00,97.08,0
64.00,89.34,0
56.00,82.55,0
51.00,76.54,0
92.00,71.51,0
110.00,68.17,0
137.00,67.11,0
148.00,68.50,0
145.00,72.07,0
139.00,77.18,0
157.00,83.35,0
124.00,90.06,0
183.00,97.05,0
161.00,104.54,0
185.00,112.48,0
145.00,120.39,0
130.00,127.42,0
107.00,132.79,0
117.00,136.27,0
72.00,137.81,0
108.00,137.47,0
69.00,135.62,0
86.00,132.45,0
53.00,128.08,0
44.00,122.46,0
44.00,115.66,0
40.00,108.08,0
42.00,100.11,0
41.00,92.10,0
70.00,84.57,0
79.00,78.21,0
93.00,73.45,0
137.00,70.73,0
145.00,70.55,0
129.00,72.66,0
152.00,76.49,0
138.00,81.59,0
151.00,87.55,0
132.00,93.94,0
192.00,100.71,0
129.00,107.86,0
172.00,114.88,0
139.00,121.48,0
145.00,127.39,0
127.00,132.26,0
121.00,135.89,0
84.00,137.91,0
90.00,138.00,0
51.00,136.10,0
83.00,132.43,0
49.00,127.46,0
43.00,121.32,0
40.00,114.10,0
47.00,106.23,0
37.00,98.16,0
47.00,90.15,0
81.00,82.85,0
64.00,76.81,0
89.00,72.15,0
79.00,68.87,0
111.00,67.06,0
143.00,67.14,0
143.00,69.45,0
144.00,73.66,0
150.00,79.21,0
114.00,85.43,0
171.00,91.87,0
111.00,98.42,0
170.00,104.79,0
147.00,111.12,0
171.00,117.51,0
141.00,123.69,0
137.00,129.17,0
99.00,133.32,0
106.00,135.70,0
88.00,136.34,0
86.00,135.34,0
64.00,132.79,0
66.00,128.75,0
43.00,123.41,0
52.00,116.95,0
38.00,109.69,0
45.00,101.96,0
43.00,94.13,0
36.00,86.44,0
78.00,79.34,0
67.00,73.46,0
105.00,69.18,0
89.00,66.66,0
111.00,65.80,0
133.00,66.66,0
154.00,69.49,0
141.00,74.20,0
158.00,80.22,0
136.00,87.06,0
170.00,94.35,0
133.00,101.81,0
193.00,109.32,0
140.00,116.88,0
174.00,124.10,0
129.00,130.58,0
123.00,135.77,0
92.00,139.09,0
96.00,140.34,0
60.00,139.49,0
76.00,136.63,0
41.00,132.05,0
47.00,125.88,0
51.00,118.54,0
38.00,110.58,0
38.00,102.24,0
38.00,93.78,0
49.00,85.60,0
47.00,78.06,0
90.00,71.69,0
91.00,67.09,0
116.00,64.59,0
139.00,64.38,0
135.00,66.48,0
151.00,70.50,0
171.00,76.24,0
149.00,83.39,0
158.00,91.28,0
137.00,99.23,0
184.00,107.08,0
136.00,114.82,0
176.00,122.13,0
146.00,128.88,0
163.00,134.97,0
119.00,140.02,0
126.00,143.59,0
82.00,145.29,0
96.00,144.97,0
87.00,142.93,0
69.00,139.45,0
51.00,134.48,0
78.00,128.32,0
45.00,121.47,0
43.00,114.02,0
38.00,105.97,0
40.00,97.65,0
74.00,89.69,0
55.00,82.68,0
99.00,76.96,0
95.00,72.95,0
119.00,70.87,0
142.00,70.89,0
132.00,72.97,0
160.00,76.81,0
152.00,82.17,0
124.00,88.37,0
166.00,94.85,0
119.00,101.39,0
177.00,107.82,0
143.00,114.24,0
201.00,120.82,0
148.00,127.56,0
153.00,133.84,0
126.00,138.98,0
131.00,142.72,0
93.00,144.82,0
95.00,145.05,0
77.00,143.41,0
93.00,140.27,0
44.00,135.76,0
46.00,129.70,0
39.00,122.23,0
40.00,113.85,0
41.00,105.03,0
43.00,96.20,0
65.00,87.88,0
63.00,80.61,0
111.00,74.92,0
128.00,71.56,0
112.00,70.60,0
153.00,71.76,0
142.00,74.93,0
136.00,79.59,0
168.00,85.36,0
127.00,91.88,0
185.00,98.83,0
137.00,106.11,0
192.00,113.51,0
143.00,120.88,0
122.00,127.44,0
110.00,132.32,0
112.00,135.40,0
88.00,136.77,0
103.00,136.52,0
67.00,134.78,0
59.00,131.42,0
47.00,126.40,0
40.00,119.98,0
42.00,112.53,0
41.00,104.49,0
64.00,96.46,0
51.00,88.99,0
76.00,82.36,0
82.00,76.96,0
125.00,73.36,0
142.00,72.13,0
143.00,73.40,0
148.00,76.75,0
158.00,81.70,0
132.00,87.71,0
183.00,94.40,0
144.00,101.67,0
193.00,109.31,0
128.00,116.96,0
149.00,123.85,0
128.00,129.57,0
141.00,134.14,0
104.00,137.44,0
96.00,139.07,0
54.00,138.62,0
76.00,136.01,0
51.00,131.65,0
99.00,126.27,0
41.00,120.41,0
48.00,113.84,0
46.00,106.59,0
42.00,99.05,0
49.00,91.51,0
56.00,84.38,0
78.00,78.14,0
84.00,73.28,0
114.00,70.14,0
138.00,69.17,0
150.00,70.62,0
144.00,74.22,0
154.00,79.40,0
124.00,85.51,0
174.00,92.09,0
138.00,99.10,0
184.00,106.42,0
151.00,113.92,0
165.00,121.24,0
117.00,127.74,0
133.00,132.85,0
99.00,136.31,0
95.00,137.93,0
60.00,137.48,0
73.00,134.93,0
43.00,130.58,0
52.00,124.68,0
36.00,117.59,0
43.00,109.69,0
41.00,101.40,0
41.00,93.12,0
78.00,85.40,0
80.00,79.01,0
108.00,74.40,0
131.00,71.97,0
134.00,71.94,0
142.00,74.02,0
160.00,77.98,0
142.00,83.41,0
170.00,89.87,0
124.00,96.84,0
191.00,103.97,0
149.00,111.38,0
169.00,118.78,0
130.00,125.59,0
121.00,131.15,0
101.00,134.92,0
114.00,136.93,0
74.00,137.25,0
88.00,135.83,0
58.00,132.80,0
52.00,128.22,0
42.00,122.16,0
38.00,114.97,0
36.00,106.98,0
46.00,98.66,0
52.00,90.55,0
53.00,83.08,0
84.00,76.66,0
111.00,72.00,0
134.00,69.75,0
128.00,69.97,0
145.00,72.27,0
138.00,76.24,0
159.00,81.57,0
134.00,87.81,0
175.00,94.65,0
140.00,101.89,0
173.00,109.23,0
150.00,116.47,0
151.00,123.28,0
120.00,129.11,0
106.00,133.37,0
80.00,135.58,0
78.00,135.61,0
51.00,133.52,0
60.00,129.49,0
34.00,123.81,0
48.00,116.87,0
36.00,109.07,0
38.00,100.85,0
58.00,92.68,0
45.00,85.03,0
80.00,78.30,0
83.00,72.98,0
115.00,69.52,0
118.00,68.14,0
143.00,68.94,0
150.00,71.83,0
170.00,76.73,0
156.00,83.24,0
174.00,90.86,0
127.00,98.86,0
181.00,106.71,0
152.00,114.45,0
208.00,122.28,0
149.00,130.12,0
148.00,137.18,0
106.00,142.57,0
112.00,145.82,0
87.00,146.90,0
101.00,146.08,0
58.00,143.48,0
83.00,139.23,0
52.00,133.68,0
50.00,126.99,0
41.00,119.29,0
40.00,110.90,0
47.00,102.20,0
47.00,93.71,0
77.00,85.95,0
73.00,79.49,0
102.00,74.64,0
143.00,71.98,0
146.00,72.04,0
156.00,74.61,0
186.00,79.45,0
158.00,86.20,0
171.00,94.07,0
147.00,102.30,0
181.00,110.52,0
121.00,118.33,0
152.00,125.10,0
123.00,130.63,0
110.00,134.72,0
92.00,136.95,0
118.00,137.51,0
62.00,136.60,0
60.00,133.88,0
42.00,129.22,0
47.00,123.00,0
37.00,115.64,0
44.00,107.56,0
46.00,99.26,0
40.00,91.11,0
77.00,83.58,0
82.00,77.38,0
108.00,73.01,0
127.00,70.81,0
154.00,71.08,0
158.00,73.90,0
153.00,78.77,0
150.00,84.97,0
174.00,92.09,0
132.00,99.68,0
182.00,107.28,0
146.00,114.84,0
153.00,121.97,0
127.00,128.15,0
134.00,133.08,0
99.00,136.50,0
92.00,138.07,0
43.00,137.38,0
73.00,134.38,0
52.00,129.66,0
51.00,123.67,0
46.00,116.70,0
46.00,109.10,0
46.00,101.25,0
43.00,93.41,0
52.00,85.89,0
51.00,78.97,0
88.00,73.10,0
98.00,68.91,0
126.00,66.85,0
126.00,67.01,0
168.00,69.42,0
158.00,74.09,0
152.00,80.48,0
135.00,87.61,0
163.00,94.96,0
136.00,102.34,0
199.00,109.80,0
150.00,117.49,0
183.00,125.08,0
133.00,132.07,0
146.00,137.94,0
124.00,142.37,0
112.00,145.23,0
90.00,146.18,0
93.00,145.23,0
72.00,142.57,0
68.00,138.31,0
48.00,132.60,0
42.00,125.55,0
41.00,117.44,0
51.00,108.83,0
50.00,100.26,0
66.00,92.22,0
85.00,85.27,0
112.00,80.07,0
125.00,77.07,0
154.00,76.53,0
147.00,78.44,0
148.00,82.26,0
167.00,87.50,0
143.00,93.77,0
192.00,100.76,0
123.00,108.12,0
169.00,115.17,0
138.00,121.67,0
150.00,127.50,0
120.00,132.33,0
112.00,135.77,0
84.00,137.42,0
102.00,137.26,0
61.00,135.48,0
58.00,131.95,0
43.00,126.67,0
47.00,120.02,0
40.00,112.42,0
40.00,104.30,0
53.00,96.09,0
47.00,88.26,0
91.00,81.36,0
114.00,76.27,0
124.00,73.57,0
157.00,73.40,0
146.00,75.69,0
144.00,79.89,0
152.00,85.30,0
148.00,91.53,0
185.00,98.49,0
129.00,105.89,0
174.00,113.11,0
148.00,120.04,0
141.00,126.38,0
108.00,131.47,0
113.00,134.86,0
84.00,136.43,0
91.00,136.19,0
58.00,134.16,0
70.00,130.49,0
39.00,125.34,0
46.00,118.89,0
39.00,111.44,0
37.00,103.43,0
39.00,95.19,0
43.00,87.07,0
86.00,79.77,0
66.00,73.90,0
101.00,69.64,0
127.00,67.38,0
143.00,67.54,0
155.00,70.16,0
162.00,74.95,0
148.00,81.31,0
172.00,88.71,0
129.00,96.53,0
187.00,104.40,0
145.00,112.31,0
170.00,119.96,0
150.00,127.06,0
157.00,133.45,0
111.00,138.63,0
110.00,142.02,0
77.00,143.24,0
72.00,142.19,0
69.00,139.08,0
48.00,134.23,0
49.00,127.88,0
46.00,120.41,0
38.00,112.20,0
38.00,103.57,0
63.00,95.04,0
65.00,87.31,0
105.00,81.00,0
110.00,76.72,0
129.00,74.71,0
143.00,74.93,0
154.00,77.31,0
148.00,81.50,0
166.00,87.07,0
135.00,93.50,0
183.00,100.41,0
111.00,107.41,0
178.00,113.99,0
153.00,120.36,0
190.00,126.80,0
130.00,132.98,0
140.00,138.16,0
107.00,141.81,0
108.00,143.71,0
83.00,143.75,0
98.00,142.09,0
64.00,138.94,0
74.00,134.42,0
43.00,128.65,0
39.00,121.63,0
43.00,113.63,0
36.00,105.13,0
56.00,96.58,0
69.00,88.68,0
81.00,82.02,0
84.00,76.86,0
120.00,73.46,0
140.00,72.30,0
149.00,73.60,0
149.00,77.03,0
196.00,82.43,0
156.00,89.61,0
182.00,97.83,0
145.00,106.36,0
194.00,114.85,0
137.00,123.04,0
153.00,130.34,0
99.00,136.04,0
117.00,139.74,0
94.00,141.46,0
101.00,141.41,0
63.00,139.67,0
69.00,136.17,0
43.00,131.00,0
47.00,124.41,0
38.00,116.75,0
38.00,108.35,0
45.00,99.69,0
38.00,91.17,0
85.00,83.37,0
104.00,77.28,0
113.00,73.45,0
155.00,72.14,0
174.00,73.73,0
154.00,77.99,0
184.00,84.18,0
152.00,91.69,0
181.00,99.93,0
113.00,108.08,0
178.00,115.54,0
142.00,122.45,0
140.00,128.62,0
121.00,133.55,0
127.00,137.08,0
87.00,139.04,0
96.00,139.21,0
57.00,137.49,0
62.00,133.86,0
40.00,128.52,0
45.00,121.75,0
37.00,113.95,0
35.00,105.52,0
38.00,96.81,0
43.00,88.25,0
88.00,80.58,0
72.00,74.49,0
110.00,70.25,0
111.00,68.03,0
117.00,67.81,0
154.00,69.57,0
157.00,73.42,0
150.00,79.03,0
177.00,85.95,0
151.00,93.77,0
194.00,102.19,0
134.00,110.79,0
189.00,119.04,0
154.00,126.88,0
155.00,134.04,0
126.00,139.92,0
123.00,144.14,0
95.00,146.44,0
91.00,146.67,0
75.00,144.90,0
75.00,141.37,0
50.00,136.25,0
56.00,129.75,0
44.00,122.20,0
53.00,114.02,0
51.00,105.68,0
38.00,97.45,0
97.00,89.81,0
89.00,83.70,0
113.00,79.51,0
145.00,77.50,0
146.00,77.97,0
162.00,80.73,0
155.00,85.36,0
146.00,91.17,0
197.00,97.91,0
157.00,105.58,0
175.00,113.61,0
158.00,121.47,0
157.00,128.79,0
122.00,135.00,0
118.00,139.53,0
74.00,141.91,0
96.00,142.01,0
67.00,140.09,0
84.00,136.59,0
39.00,131.67,0
44.00,125.23,0
36.00,117.54,0
40.00,109.08,0
60.00,100.49,0
46.00,92.33,0
73.00,84.93,0
88.00,78.82,0
110.00,74.55,0
127.00,72.44,0
134.00,72.60,0
150.00,74.85,0
160.00,78.98,0
134.00,84.54,0
197.00,91.14,0
160.00,98.89,0
188.00,107.34,0
146.00,115.86,0
162.00,123.81,0
133.00,130.74,0
136.00,136.35,0
107.00,140.32,0
105.00,142.45,0
72.00,142.55,0
77.00,140.58,0
52.00,136.71,0
41.00,131.06,0
36.00,123.81,0
36.00,115.41,0
45.00,106.47,0
61.00,97.67,0
81.00,89.81,0
92.00,83.47,0
115.00,79.06,0
143.00,76.95,0
145.00,77.32,0
150.00,79.91,0
163.00,84.28,0
143.00,89.96,0
185.00,96.57,0
143.00,103.84,0
185.00,111.36,0
129.00,118.71,0
158.00,125.35,0
144.00,131.11,0
120.00,135.83,0
109.00,139.00,0
99.00,140.41,0
66.00,139.91,0
60.00,137.29,0
46.00,132.68,0
46.00,126.39,0
35.00,118.84,0
48.00,110.55,0
36.00,101.95,0
47.00,93.43,0
66.00,85.49,0
75.00,78.73,0
96.00,73.57,0
118.00,70.40,0
130.00,69.50,0
146.00,70.84,0
148.00,74.25,0
160.00,79.38,0
198.00,86.15,0
157.00,94.32,0
199.00,103.28,0
132.00,112.37,0
183.00,120.91,0
149.00,128.75,0
195.00,136.03,0
140.00,142.69,0
132.00,148.05,0
80.00,151.24,0
106.00,151.93,0
69.00,150.40,0
83.00,146.98,0
58.00,141.90,0
58.00,135.46,0
37.00,127.85,0
37.00,119.24,0
44.00,110.02,0
40.00,100.74,0
45.00,91.75,0
41.00,83.29,0
80.00,75.82,0
87.00,70.01,0
117.00,66.34,0
138.00,65.18,0
135.00,66.51,0
146.00,69.90,0
149.00,74.95,0
147.00,81.20,0
177.00,88.38,0
157.00,96.34,0
185.00,104.79,0
148.00,113.32,0
203.00,121.71,0
160.00,129.97,0
169.00,137.68,0
134.00,144.20,0
130.00,149.06,0
94.00,151.86,0
120.00,152.58,0
71.00,151.42,0
89.00,148.42,0
45.00,143.68,0
52.00,137.22,0
38.00,129.31,0
43.00,120.43,0
40.00,111.07,0
49.00,101.68,0
53.00,92.76,0
45.00,84.58,0
82.00,77.42,0
88.00,71.88,0
111.00,68.36,0
131.00,67.05,0
135.00,68.06,0
157.00,71.19,0
175.00,76.36,0
154.00,83.22,0
170.00,91.10,0
140.00,99.32,0
187.00,107.55,0
114.00,115.44,0
180.00,122.55,0
130.00,128.88,0
165.00,134.44,0
120.00,139.01,0
123.00,142.26,0
97.00,143.85,0
91.00,143.67,0
80.00,141.76,0
99.00,138.51,0
51.00,134.19,0
52.00,128.58,0
39.00,121.64,0
47.00,113.80,0
38.00,105.47,0
43.00,97.02,0
74.00,89.03,0
57.00,82.07,0
102.00,76.46,0
96.00,72.62,0
112.00,70.66,0
129.00,70.56,0
146.00,72.44,0
156.00,76.24,0
165.00,81.78,0
138.00,88.44,0
186.00,95.75,0
153.00,103.64,0
190.00,111.85,0
151.00,120.04,0
179.00,127.84,0
130.00,134.83,0
147.00,140.52,0
123.00,144.72,0
100.00,147.19,0
72.00,147.47,0
94.00,145.58,0
44.00,141.81,0
64.00,136.29,0
36.00,129.30,0
42.00,121.17,0
46.00,112.37,0
43.00,103.42,0
68.00,94.84,0
59.00,87.15,0
78.00,80.61,0
65.00,75.29,0
114.00,71.41,0
127.00,69.60,0
146.00,70.15,0
141.00,72.91,0
146.00,77.34,0
148.00,82.94,0
175.00,89.55,0
149.00,96.98,0
188.00,104.88,0
146.00,112.96,0
185.00,120.86,0
142.00,128.30,0
165.00,134.95,0
146.00,140.65,0
153.00,145.38,0
120.00,148.90,0
100.00,150.71,0
62.00,150.26,0
90.00,147.56,0
65.00,143.18,0
61.00,137.45,0
45.00,130.47,0
57.00,122.55,0
51.00,114.22,0
36.00,105.72,0
40.00,97.11,0
57.00,88.80,0
58.00,81.30,0
76.00,74.98,0
113.00,70.36,0
124.00,68.05,0
129.00,68.14,0
156.00,70.40,0
158.00,74.74,0
157.00,80.76,0
166.00,87.94,0
151.00,95.78,0
188.00,104.00,0
144.00,112.35,0
188.00,120.46,0
158.00,128.25,0
174.00,135.53,0
153.00,142.03,0
143.00,147.42,0
114.00,151.22,0
100.00,152.98,0
91.00,152.59,0
110.00,150.50,0
66.00,147.04,0
82.00,142.22,0
50.00,136.17,0
41.00,128.93,0
41.00,120.58,0
38.00,111.59,0
38.00,102.35,0
66.00,93.42,0
56.00,85.41,0
77.00,78.60,0
138.00,73.72,0
136.00,71.62,0
139.00,72.21,0
156.00,74.98,0
145.00,79.55,0
154.00,85.34,0
192.00,92.23,0
141.00,100.04,0
182.00,108.09,0
121.00,115.80,0
187.00,122.88,0
158.00,129.60,0
185.00,136.11,0
142.00,142.09,0
121.00,146.81,0
101.00,149.56,0
111.00,150.30,0
77.00,149.16,0
115.00,146.52,0
61.00,142.70,0
54.00,137.49,0
42.00,130.71,0
58.00,122.86,0
38.00,114.44,0
41.00,105.69,0
60.00,97.02,0
74.00,89.17,0
92.00,82.74,0
104.00,78.12,0
122.00,75.51,0
159.00,75.24,0
145.00,77.39,0
147.00,81.38,0
167.00,86.77,0
144.00,93.16,0
181.00,100.19,0
156.00,107.69,0
207.00,115.63,0
154.00,123.82,0
180.00,131.69,0
124.00,138.59,0
128.00,143.85,0
115.00,147.19,0
118.00,148.81,0
98.00,148.83,0
94.00,147.31,0
59.00,144.13,0
76.00,139.32,0
54.00,133.25,0
53.00,126.18,0
50.00,118.39,0
40.00,110.15,0
40.00,101.64,0
44.00,93.17,0
58.00,85.17,0
73.00,78.21,0
105.00,72.88,0
118.00,69.73,0
151.00,69.12,0
150.00,71.11,0
147.00,75.22,0
146.00,80.75,0
167.00,87.29,0
145.00,94.54,0
188.00,102.26,0
162.00,110.37,0
201.00,118.80,0
148.00,127.16,0
180.00,134.91,0
148.00,141.76,0
139.00,147.36,0
126.00,151.31,0
112.00,153.46,0
86.00,153.62,0
98.00,151.79,0
55.00,148.17,0
81.00,142.92,0
44.00,136.35,0
44.00,128.63,0
38.00,119.92,0
38.00,110.65,0
46.00,101.27,0
54.00,92.32,0
61.00,84.25,0
64.00,77.31,0
102.00,71.89,0
118.00,68.58,0
133.00,67.70,0
176.00,69.47,0
162.00,73.88,0
139.00,80.05,0
158.00,87.07,0
160.00,94.60,0
194.00,102.76,0
151.00,111.36,0
187.00,119.85,0
158.00,127.98,0
167.00,135.47,0
134.00,141.85,0
134.00,146.71,0
108.00,149.76,0
121.00,151.01,0
52.00,150.29,0
85.00,147.33,0
54.00,142.48,0
48.00,136.09,0
48.00,128.37,0
46.00,119.83,0
40.00,110.84,0
39.00,101.71,0
72.00,92.98,0
50.00,85.20,0
104.00,78.75,0
96.00,74.17,0
118.00,71.66,0
139.00,71.27,0
155.00,73.15,0
163.00,77.20,0
161.00,83.09,0
151.00,90.05,0
170.00,97.62,0
145.00,105.41,0
197.00,113.28,0
143.00,121.15,0
199.00,128.77,0
133.00,135.87,0
141.00,141.79,0
118.00,146.00,0
109.00,148.38,0
73.00,148.68,0
114.00,147.03,0
82.00,144.06,0
62.00,139.87,0
47.00,134.16,0
56.00,127.16,0
43.00,119.28,0
56.00,110.98,0
36.00,102.59,0
46.00,94.27,0
62.00,86.41,0
54.00,79.42,0
80.00,73.55,0
84.00,69.12,0
124.00,66.54,0
131.00,66.19,0
142.00,68.12,0
129.00,71.82,0
155.00,76.85,0
152.00,83.02,0
179.00,90.23,0
176.00,98.42,0
175.00,107.23,0
153.00,115.97,0
187.00,124.31,0
164.00,132.25,0
182.00,139.66,0
156.00,146.33,0
127.00,151.69,0
103.00,154.99,0
112.00,156.06,0
87.00,155.11,0
88.00,152.35,0
60.00,147.88,0
57.00,141.77,0
40.00,134.22,0
43.00,125.52,0
34.00,116.09,0
39.00,106.31,0
43.00,96.65,0
37.00,87.46,0
73.00,79.15,0
82.00,72.41,0
123.00,67.88,0
117.00,65.86,0
140.00,66.30,0
146.00,68.94,0
156.00,73.52,0
121.00,79.36,0
160.00,85.78,0
155.00,92.75,0
199.00,100.51,0
128.00,108.74,0
198.00,116.79,0
160.00,124.72,0
156.00,132.20,0
139.00,138.57,0
117.00,143.38,0
94.00,146.13,0
88.00,146.65,0
62.00,144.95,0
76.00,141.21,0
46.00,135.87,0
55.00,129.16,0
39.00,121.37,0
43.00,112.89,0
44.00,104.10,0
49.00,95.47,0
68.00,87.49,0
57.00,80.53,0
98.00,74.89,0
129.00,71.30,0
127.00,70.19,0
144.00,71.37,0
135.00,74.46,0
158.00,79.08,0
170.00,85.14,0
150.00,92.27,0
190.00,100.10,0
147.00,108.34,0
190.00,116.59,0
144.00,124.56,0
168.00,131.84,0
134.00,138.09,0
139.00,143.02,0
106.00,146.31,0
121.00,147.86,0
66.00,147.58,0
91.00,145.30,0
61.00,141.32,0
45.00,135.77,0
46.00,128.67,0
49.00,120.55,0
42.00,111.92,0
45.00,103.12,0
53.00,94.54,0
61.00,86.65,0
85.00,79.93,0
79.00,74.75,0
105.00,71.21,0
129.00,69.64,0
145.00,70.37,0
154.00,73.35,0
172.00,78.36,0
164.00,85.08,0
194.00,93.12,0
147.00,101.93,0
169.00,110.71,0
154.00,119.00,0
173.00,126.74,0
139.00,133.71,0
145.00,139.52,0
113.00,143.80,0
106.00,146.22,0
75.00,146.52,0
97.00,144.81,0
48.00,141.32,0
53.00,136.02,0
37.00,129.06,0
45.00,120.91,0
41.00,112.12,0
44.00,103.15,0
74.00,94.60,0
72.00,87.15,0
93.00,81.18,0
104.00,76.95,0
107.00,74.56,0
142.00,74.08,0
158.00,75.78,0
162.00,79.68,0
153.00,85.29,0
136.00,91.72,0
158.00,98.39,0
142.00,105.14,0
179.00,111.92,0
157.00,118.79,0
184.00,125.70,0
128.00,132.18,0
146.00,137.59,0
126.00,141.65,0
118.00,144.32,0
97.00,145.37,0
102.00,144.79,0
59.00,142.56,0
74.00,138.58,0
58.00,133.17,0
78.00,126.89,0
39.00,120.00,0
53.00,112.51,0
48.00,104.69,0
57.00,97.00,0
44.00,89.65,0
72.00,82.90,0
75.00,77.20,0
80.00,72.82,0
126.00,70.07,0
134.00,69.52,0
146.00,71.28,0
159.00,75.11,0
156.00,80.67,0
158.00,87.42,0
198.00,95.19,0
159.00,103.87,0
190.00,112.88,0
141.00,121.61,0
191.00,129.71,0
139.00,137.05,0
160.00,143.30,0
128.00,148.16,0
122.00,151.40,0
86.00,152.64,0
95.00,151.73,0
41.00,148.63,0
69.00,143.39,0
47.00,136.55,0
58.00,128.64,0
44.00,120.08,0
41.00,111.13,0
51.00,102.10,0
53.00,93.49,0
62.00,85.66,0
92.00,79.10,0
93.00,74.31,0
119.00,71.50,0
127.00,70.79,0
170.00,72.40,0
146.00,76.30,0
167.00,81.93,0
156.00,88.77,0
155.00,96.26,0
178.00,104.09,0
127.00,111.87,0
180.00,119.14,0
147.00,125.97,0
179.00,132.40,0
134.00,138.18,0
139.00,142.86,0
120.00,146.09,0
114.00,147.78,0
80.00,147.71,0
83.00,145.73,0
45.00,141.79,0
63.00,136.03,0
38.00,128.89,0
57.00,120.81,0
37.00,112.22,0
37.00,103.38,0
78.00,94.81,0
47.00,87.14,0
54.00,80.31,0
73.00,74.34,0
101.00,69.84,0
118.00,67.36,0
136.00,67.16,0
166.00,69.38,0
144.00,73.82,0
139.00,79.65,0
146.00,86.13,0
151.00,93.02,0
196.00,100.52,0
146.00,108.57,0
168.00,116.53,0
135.00,123.82,0
179.00,130.37,0
136.00,136.23,0
141.00,141.08,0
127.00,144.60,0
104.00,146.63,0
56.00,146.55,0
98.00,144.24,0
56.00,140.23,0
70.00,134.87,0
40.00,128.30,0
40.00,120.62,0
50.00,112.22,0
39.00,103.60,0
43.00,95.04,0
46.00,86.80,0
66.00,79.33,0
80.00,73.16,0
102.00,68.77,0
111.00,66.43,0
117.00,66.08,0
128.00,67.53,0
136.00,70.61,0
162.00,75.25,0
165.00,81.47,0
154.00,88.82,0
184.00,96.93,0
132.00,105.29,0
195.00,113.48,0
148.00,121.48,0
180.00,129.09,0
135.00,135.92,0
147.00,141.55,0
113.00,145.62,0
107.00,147.86,0
90.00,148.11,0
93.00,146.52,0
68.00,143.30,0
53.00,138.45,0
39.00,131.91,0
38.00,123.98,0
42.00,115.16,0
43.00,106.00,0
45.00,96.97,0
57.00,88.46,0
68.00,80.96,0
90.00,74.92,0
114.00,70.85,0
105.00,68.91,0
134.00,68.97,0
148.00,71.05,0
160.00,75.16,0
150.00,80.92,0
177.00,87.90,0
141.00,95.62,0
177.00,103.57,0
127.00,111.33,0
178.00,118.59,0
142.00,125.35,0
160.00,131.48,0
136.00,136.74,0
119.00,140.76,0
100.00,143.07,0
88.00,143.47,0
76.00,141.93,0
86.00,138.75,0
56.00,134.25,0
68.00,128.61,0
42.00,122.00,0
43.00,114.52,0
43.00,106.44,0
53.00,98.29,0
64.00,90.59,0
66.00,83.79,0
93.00,78.24,0
104.00,74.38,0
135.00,72.58,0
140.00,73.05,0
150.00,75.69,0
153.00,80.09,0
183.00,86.08,0
154.00,93.33,0
170.00,101.22,0
141.00,109.12,0
194.00,116.86,0
143.00,124.45,0
175.00,131.52,0
133.00,137.71,0
127.00,142.55,0
113.00,145.65,0
116.00,147.08,0
83.00,146.85,0
86.00,144.86,0
48.00,141.08,0
63.00,135.54,0
47.00,128.70,0
62.00,121.04,0
39.00,112.97,0
47.00,104.64,0
48.00,96.33,0
51.00,88.43,0
76.00,81.36,0
72.00,75.58,0
110.00,71.43,0
110.00,69.22,0
128.00,69.06,0
167.00,71.06,0
166.00,75.39,0
139.00,81.49,0
165.00,88.46,0
132.00,95.81,0
181.00,103.26,0
134.00,110.72,0
187.00,117.98,0
144.00,125.00,0
164.00,131.48,0
131.00,137.04,0
114.00,141.20,0
76.00,143.29,0
95.00,143.14,0
70.00,141.07,0
66.00,137.34,0
46.00,132.02,0
62.00,125.44,0
39.00,118.03,0
43.00,110.01,0
40.00,101.64,0
51.00,93.35,0
58.00,85.62,0
55.00,78.75,0
78.00,72.96,0
76.00,68.51,0
104.00,65.62,0
119.00,64.61,0
130.00,65.60,0
165.00,68.72,0
191.00,74.23,0
143.00,81.67,0
171.00,89.98,0
140.00,98.50,0
174.00,106.88,0
142.00,114.93,0
202.00,122.69,0
140.00,130.21,0
149.00,136.84,0
108.00,141.87,0
116.00,144.95,0
102.00,146.16,0
90.00,145.63,0
64.00,143.23,0
82.00,139.14,0
48.00,133.72,0
46.00,126.99,0
42.00,119.18,0
46.00,110.76,0
44.00,102.19,0
42.00,93.75,0
64.00,85.82,0
68.00,78.92,0
111.00,73.65,0
122.00,70.64,0
142.00,70.15,0
130.00,71.94,0
146.00,75.48,0
144.00,80.39,0
175.00,86.51,0
130.00,93.48,0
187.00,100.85,0
147.00,108.50,0
198.00,116.33,0
143.00,124.10,0
150.00,131.15,0
116.00,136.78,0
119.00,140.69,0
101.00,142.74,0
94.00,143.00,0
61.00,141.36,0
58.00,137.67,0
38.00,132.11,0
40.00,124.98,0
42.00,116.72,0
48.00,108.00,0
40.00,99.27,0
45.00,90.78,0
68.00,82.96,0
99.00,76.59,0
122.00,72.41,0
113.00,70.59,0
131.00,70.84,0
153.00,73.04,0
152.00,77.15,0
164.00,82.88,0
157.00,89.75,0
166.00,97.33,0
171.00,105.33,0
134.00,113.24,0
191.00,120.71,0
146.00,127.88,0
199.00,134.73,0
147.00,141.19,0
163.00,146.86,0
94.00,150.99,0
114.00,152.98,0
71.00,152.67,0
114.00,150.46,0
54.00,146.72,0
66.00,141.42,0
36.00,134.57,0
61.00,126.57,0
55.00,118.08,0
67.00,109.68,0
69.00,101.81,0
94.00,94.93,0
50.00,89.10,0
86.00,84.04,0
114.00,80.21,0
116.00,78.20,0
151.00,78.18,0
191.00,80.63,0
201.00,85.91,0
190.00,93.57,0
192.00,102.70,0
187.00,112.56,0
212.00,122.76,0
174.00,132.94,0
164.00,142.26,0
142.00,149.97,0
188.00,156.13,0
190.00,161.49,0
185.00,166.46,0
137.00,170.48,0
127.00,172.74,0
100.00,172.81,0
125.00,170.86,0
83.00,167.33,0
82.00,162.21,0
53.00,155.44,0
62.00,147.24,0
40.00,137.93,0
51.00,127.85,0
37.00,117.46,0
42.00,107.05,0
75.00,97.22,0
90.00,88.87,0
91.00,82.44,0
102.00,77.92,0