50.00,159.00,1
196.00,150.35,1
50.00,142.87,1
48.00,135.30,1
885.00,133.63,1
63.00,143.64,1
569.00,159.63,1
154.00,177.76,1
59.00,193.39,1
86.00,201.81,1
122.00,204.39,1
349.00,205.20,1
102.00,206.65,1
496.00,209.62,1
82.00,214.69,1
550.00,221.46,1
151.00,230.34,1
204.00,238.20,1
256.00,243.02,1
154.00,245.82,1
584.00,249.30,1
86.00,255.34,1
138.00,258.85,1
382.00,259.08,1
62.00,258.67,1
343.00,256.79,1
135.00,254.18,1
44.00,249.19,1
251.00,241.03,1
37.00,231.68,1
383.00,222.76,1
76.00,215.89,1
100.00,208.79,1
142.00,199.95,1
101.00,190.64,1
446.00,183.79,1
91.00,181.50,1
112.00,179.87,1
710.00,181.21,1
61.00,189.35,1
403.00,199.52,1
78.00,208.46,1
189.00,214.53,1
107.00,216.70,1
41.00,214.83,1
118.00,208.77,1
1023.00,208.05,1
40.00,218.94,1
386.00,232.34,1
45.00,241.92,1
51.00,245.57,1
252.00,243.44,1
131.00,239.44,1
862.00,239.86,1
206.00,249.36,1
215.00,260.64,1
743.00,271.99,1
57.00,286.17,1
301.00,297.03,1
102.00,301.76,1
87.00,300.28,1
338.00,294.26,1
119.00,287.25,1
260.00,279.34,1
295.00,271.80,1
62.00,264.62,1
47.00,254.25,1
341.00,242.07,1
87.00,231.56,1
460.00,223.96,1
38.00,219.42,1
304.00,215.66,1
216.00,212.80,1
38.00,209.99,1
385.00,206.51,1
49.00,204.14,1
110.00,200.48,1
368.00,196.34,1
38.00,194.02,1
97.00,190.31,1
514.00,187.36,1
51.00,188.68,1
136.00,189.66,1
376.00,189.92,1
82.00,191.85,1
132.00,192.53,1
247.00,191.57,1
45.00,190.07,1
462.00,189.24,1
45.00,190.74,1
96.00,190.93,1
375.00,189.79,1
56.00,190.10,1
288.00,190.46,1
120.00,190.65,1
101.00,189.69,1
348.00,188.23,1
74.00,188.11,1
154.00,187.17,1
54.00,183.89,1
159.00,178.79,1
39.00,172.37,1
37.00,164.08,1
115.00,154.22,1
49.00,144.22,1
639.00,138.92,1
72.00,141.93,1
360.00,149.08,1
227.00,158.03,1
149.00,167.57,1
77.00,174.24,1
70.00,176.63,1
86.00,175.08,1
73.00,170.71,1
186.00,165.18,1
319.00,161.83,1
316.00,163.44,1
81.00,167.80,1
139.00,170.65,1
43.00,170.45,1
96.00,167.29,1
335.00,164.07,1
62.00,163.08,1
423.00,164.20,1
58.00,167.64,1
108.00,170.04,1
182.00,170.04,1
65.00,168.84,1
225.00,166.79,1
292.00,166.41,1
113.00,168.25,1
305.00,170.89,1
116.00,174.19,1
44.00,175.74,1
96.00,173.59,1
106.00,169.00,1
170.00,163.87,1
131.00,159.32,1
94.00,154.93,1
102.00,149.97,1
60.00,144.19,1
72.00,137.44,1
204.00,131.15,1
98.00,126.79,1
152.00,123.86,1
97.00,121.65,1
62.00,119.33,1
166.00,116.82,1
132.00,115.40,1
104.00,114.93,1
59.00,114.06,1
113.00,112.40,1
206.00,111.48,1
340.00,114.26,1
101.00,120.76,1
169.00,127.60,1
132.00,133.30,1
101.00,137.63,1
151.00,140.37,1
493.00,145.21,1
102.00,154.32,1
115.00,162.84,1
54.00,167.10,1
177.00,168.12,1
58.00,167.19,1
74.00,163.96,1
187.00,159.32,1
91.00,154.98,1
92.00,150.36,1
210.00,145.89,1
259.00,144.03,1
202.00,145.54,1
324.00,150.08,1
220.00,157.39,1
68.00,164.61,1
88.00,168.29,1
164.00,168.88,1
68.00,167.76,1
91.00,164.58,1
67.00,159.31,1
343.00,154.72,1
174.00,153.77,1
85.00,154.36,1
81.00,153.22,1
103.00,150.17,1
165.00,146.63,1
62.00,143.18,1
127.00,139.26,1
74.00,134.90,1
49.00,129.78,1
270.00,125.25,1
127.00,123.59,1
130.00,123.67,1
56.00,123.30,1
244.00,122.97,1
127.00,124.19,1
220.00,126.96,1
127.00,130.59,1
154.00,134.21,1
199.00,137.78,1
110.00,141.41,1
218.00,144.75,1
129.00,148.10,1
69.00,150.24,1
124.00,150.15,1
121.00,148.73,1
95.00,146.55,1
322.00,145.27,1
136.00,146.73,1
194.00,149.51,1
262.00,153.19,1
91.00,157.60,1
254.00,161.52,1
364.00,167.12,1
77.00,174.64,1
180.00,180.35,1
133.00,183.40,1
222.00,185.17,1
146.00,186.38,1
97.00,186.16,1
60.00,183.17,1
206.00,178.33,1
62.00,173.16,1
266.00,168.43,1
70.00,164.75,1
133.00,160.96,1
259.00,157.68,1
170.00,156.77,1
93.00,156.62,1
129.00,155.32,1
109.00,152.99,1
117.00,150.01,1
129.00,146.69,1
65.00,142.95,1
204.00,139.20,1
261.00,137.82,1
264.00,140.48,1
84.00,145.07,1
74.00,147.93,1
97.00,147.91,1
165.00,146.58,1
76.00,144.89,1
291.00,143.85,1
80.00,144.39,1
72.00,144.35,1
161.00,142.70,1
102.00,140.83,1
68.00,138.32,1
140.00,134.97,1
104.00,131.69,1
64.00,128.25,1
237.00,125.27,1
62.00,123.85,1
105.00,122.52,1
88.00,120.44,1
132.00,118.28,1
275.00,117.93,1
86.00,120.11,1
115.00,122.45,1
80.00,123.45,1
180.00,123.90,1
288.00,126.15,1
96.00,130.77,1
100.00,134.76,1
102.00,136.62,1
100.00,136.84,1
103.00,135.83,1
186.00,134.64,1
80.00,133.87,1
105.00,132.60,1
257.00,131.76,1
146.00,133.09,1
63.00,134.76,1
109.00,134.72,1
67.00,133.11,1
216.00,131.28,1
118.00,130.65,1
234.00,131.51,1
261.00,134.84,1
124.00,140.19,1
117.00,144.80,1
186.00,148.01,1
100.00,150.43,1
132.00,151.56,1
110.00,151.34,1
160.00,150.39,1
124.00,149.28,1
126.00,147.91,1
125.00,146.11,1
82.00,143.70,1
225.00,141.36,1
232.00,141.22,1
286.00,144.50,1
269.00,151.11,1
263.00,160.10,1
231.00,170.13,1
155.00,179.40,1
141.00,186.15,1
157.00,190.04,1
85.00,191.18,1
333.00,191.18,1
132.00,192.18,1
194.00,193.12,1
170.00,193.15,1
238.00,193.18,1
126.00,193.19,1
170.00,192.27,1
164.00,190.42,1
222.00,188.67,1
308.00,188.67,1
104.00,190.23,1
196.00,191.01,1
251.00,191.46,1
233.00,193.18,1
267.00,196.23,1
200.00,200.08,1
217.00,203.70,1
94.00,205.74,1
171.00,205.23,1
143.00,202.84,1
195.00,199.70,1
302.00,197.62,1
114.00,197.04,1
338.00,197.26,1
286.00,199.78,1
465.00,206.49,1
93.00,215.58,1
236.00,222.69,1
127.00,226.45,1
138.00,226.99,1
88.00,223.95,1
287.00,219.18,1
107.00,214.66,1
246.00,210.30,1
109.00,205.88,1
245.00,201.58,1
279.00,198.91,1
138.00,198.10,1
106.00,196.38,1
245.00,193.51,1
158.00,191.15,1
285.00,190.04,1
294.00,191.40,1
128.00,194.38,1
362.00,197.75,1
534.00,205.32,1
278.00,218.39,1
413.00,233.55,1
316.00,249.11,1
166.00,262.71,1
389.00,272.93,1
280.00,281.80,1
142.00,288.23,1
167.00,289.62,1
119.00,286.00,1
121.00,278.06,1
313.00,268.40,1
76.00,258.98,1
189.00,248.65,1
119.00,237.32,1
177.00,225.86,1
244.00,215.61,1
198.00,207.84,1
160.00,201.67,1
414.00,198.04,1
244.00,198.92,1
270.00,202.68,1
126.00,206.36,1
372.00,209.73,1
98.00,213.35,1
328.00,216.45,1
215.00,219.66,1
318.00,223.76,1
128.00,227.57,1
248.00,229.74,1
250.00,231.00,1
429.00,234.06,1
312.00,240.39,1
328.00,248.71,1
249.00,256.88,1
213.00,263.19,1
195.00,266.46,1
171.00,266.54,1
205.00,263.94,1
142.00,259.20,1
190.00,252.61,1
190.00,245.12,1
86.00,236.74,1
87.00,226.21,1
122.00,213.90,1
132.00,201.28,1
244.00,190.25,1
165.00,182.07,1
135.00,175.70,1
271.00,170.88,1
276.00,169.46,1
182.00,171.11,1
154.00,173.27,1
311.00,175.80,1
330.00,181.09,1
288.00,189.53,1
165.00,198.56,1
379.00,207.09,1
196.00,215.98,1
279.00,224.28,1
127.00,230.45,1
403.00,235.26,1
325.00,241.53,1
209.00,248.76,1
243.00,254.17,1
226.00,257.49,1
219.00,259.05,1
197.00,258.78,1
282.00,257.42,1
143.00,255.35,1
152.00,251.28,1
292.00,245.98,1
130.00,240.97,1
213.00,235.50,1
266.00,230.34,1
186.00,226.51,1
421.00,224.90,1
244.00,226.72,1
290.00,230.55,1
360.00,235.65,1
284.00,242.44,1
398.00,250.57,1
216.00,259.20,1
132.00,265.15,1
354.00,267.81,1
411.00,271.33,1
346.00,277.64,1
142.00,283.55,1
214.00,285.59,1
240.00,284.38,1
260.00,281.94,1
148.00,278.26,1
145.00,272.08,1
157.00,263.27,1
160.00,252.99,1
233.00,242.65,1
119.00,232.94,1
231.00,223.65,1
143.00,215.17,1
103.00,206.74,1
227.00,198.26,1
115.00,190.82,1
312.00,185.20,1
172.00,182.33,1
192.00,181.13,1
120.00,179.81,1
131.00,177.51,1
232.00,174.97,1
147.00,173.40,1
233.00,172.75,1
456.00,175.38,1
178.00,182.56,1
442.00,192.36,1
249.00,204.28,1
160.00,215.68,1
222.00,223.74,1
180.00,228.97,1
358.00,233.13,1
224.00,237.86,1
183.00,241.76,1
134.00,242.72,1
95.00,239.96,1
77.00,233.26,1
360.00,225.49,1
140.00,219.89,1
106.00,214.53,1
127.00,207.31,1
140.00,199.12,1
94.00,190.45,1
254.00,182.37,1
179.00,176.65,1
204.00,173.23,1
176.00,171.22,1
377.00,171.74,1
158.00,175.43,1
175.00,179.63,1
169.00,182.48,1
258.00,184.99,1
207.00,188.16,1
157.00,191.21,1
309.00,194.06,1
176.00,197.69,1
190.00,200.94,1
128.00,202.41,1
407.00,203.89,1
162.00,207.42,1
246.00,211.32,1
177.00,214.17,1
122.00,215.22,1
216.00,214.17,1
276.00,213.16,1
225.00,213.56,1
154.00,214.07,1
206.00,213.50,1
127.00,211.74,1
142.00,208.37,1
502.00,206.46,1
225.00,209.51,1
212.00,214.55,1
244.00,218.66,1
252.00,222.43,1
226.00,225.99,1
304.00,229.56,1
310.00,234.15,1
170.00,238.95,1
298.00,242.53,1
214.00,245.34,1
130.00,246.42,1
125.00,244.02,1
252.00,239.36,1
143.00,234.29,1
437.00,230.77,1
342.00,231.69,1
207.00,235.70,1
143.00,238.38,1
120.00,237.63,1
101.00,233.16,1
222.00,226.57,1
66.00,219.12,1
144.00,210.34,1
256.00,201.75,1
279.00,196.29,1
144.00,193.59,1
140.00,190.97,1
211.00,187.91,1
164.00,185.37,1
226.00,183.64,1
263.00,183.52,1
197.00,185.22,1
270.00,188.04,1
204.00,191.74,1
163.00,195.17,1
104.00,196.58,1
167.00,195.58,1
348.00,194.86,1
188.00,196.56,1
387.00,200.54,1
361.00,207.96,1
337.00,218.70,1
125.00,229.22,1
271.00,236.70,1
293.00,242.48,1
180.00,247.43,1
251.00,250.46,1
146.00,251.32,1
196.00,249.75,1
84.00,245.40,1
128.00,238.03,1
134.00,228.46,1
306.00,219.43,1
152.00,212.74,1
187.00,207.21,1
256.00,202.63,1
213.00,199.99,1
198.00,198.64,1
190.00,197.66,1
178.00,196.63,1
168.00,195.25,1
418.00,195.45,1
208.00,199.22,1
122.00,203.39,1
160.00,204.88,1
155.00,204.18,1
488.00,204.81,1
513.00,212.12,1
163.00,224.67,1
530.00,238.09,1
190.00,252.12,1
128.00,263.00,1
221.00,268.12,1
158.00,269.13,1
250.00,267.52,1
80.00,263.51,1
62.00,255.66,1
67.00,243.49,1
186.00,229.31,1
128.00,215.64,1
138.00,202.91,1
100.00,190.68,1
114.00,178.81,1
215.00,168.37,1
138.00,160.53,1
171.00,154.73,1
423.00,152.69,1
359.00,157.43,1
211.00,167.05,1
148.00,176.52,1
106.00,182.94,1
118.00,185.67,1
386.00,187.63,1
144.00,191.47,1
98.00,194.42,1
103.00,193.89,1
335.00,192.36,1
187.00,192.76,1
321.00,195.20,1
122.00,198.46,1
95.00,199.82,1
478.00,200.77,1
113.00,204.46,1
182.00,207.83,1
227.00,209.33,1
129.00,209.86,1
122.00,208.34,1
92.00,204.10,1
114.00,197.61,1
110.00,189.69,1
159.00,181.47,1
116.00,173.73,1
181.00,166.83,1
361.00,162.99,1
128.00,163.25,1
136.00,164.28,1
303.00,165.44,1
190.00,168.55,1
298.00,173.46,1
481.00,181.95,1
274.00,195.06,1
155.00,208.39,1
296.00,218.90,1
150.00,227.07,1
230.00,232.58,1
342.00,236.94,1
210.00,241.70,1
208.00,245.34,1
120.00,246.16,1
127.00,243.41,1
145.00,237.59,1
172.00,230.17,1
141.00,222.12,1
156.00,213.71,1
170.00,205.39,1
122.00,197.38,1
109.00,189.08,1
95.00,180.10,1
256.00,171.92,1
142.00,166.20,1
127.00,161.87,1
167.00,157.89,1
206.00,155.16,1
164.00,154.11,1
94.00,153.40,1
233.00,152.63,1
181.00,153.11,1
88.00,154.08,1
276.00,154.94,1
241.00,157.77,1
135.00,162.11,1
121.00,165.27,1
166.00,166.71,1
248.00,168.08,1
101.00,169.88,1
160.00,170.67,1
208.00,170.83,1
135.00,171.17,1
173.00,171.16,1
127.00,170.52,1
650.00,173.35,1
159.00,182.87,1
64.00,192.59,1
52.00,196.40,1
50.00,194.56,1
153.00,189.25,1
196.00,183.51,1
145.00,178.78,1
78.00,173.94,1
209.00,168.72,1
210.00,165.02,1
103.00,162.81,1
179.00,160.67,1
76.00,158.16,1
106.00,154.63,1
144.00,150.39,1
112.00,146.38,1
242.00,143.54,1
166.00,142.92,1
274.00,144.74,1
53.00,147.67,1
42.00,148.52,1
295.00,147.83,1
337.00,150.40,1
142.00,156.58,1
101.00,162.07,1
68.00,164.30,1
58.00,162.93,1
163.00,159.34,1
278.00,156.82,1
226.00,157.59,1
124.00,160.01,1
61.00,160.99,1
44.00,158.75,1
277.00,155.32,1
112.00,153.44,1
127.00,152.14,1
110.00,150.05,1
69.00,146.94,1
137.00,142.90,1
115.00,138.89,1
119.00,135.26,1
118.00,131.93,1
109.00,128.87,1
79.00,125.71,1
172.00,122.79,1
135.00,121.13,1
233.00,121.45,1
76.00,123.27,1
75.00,124.37,1
70.00,123.55,1
52.00,121.03,1
182.00,118.05,1
220.00,117.14,1
126.00,118.78,1
128.00,121.06,1
96.00,122.74,1
39.00,122.91,1
85.00,121.11,1
97.00,118.24,1
50.00,114.86,1
114.00,111.06,1
61.00,107.29,1
156.00,104.13,1
169.00,102.78,1
316.00,105.11,1
145.00,111.26,1
121.00,118.30,1
269.00,125.17,1
164.00,133.05,1
132.00,140.68,1
79.00,146.00,1
132.00,148.68,1
102.00,149.46,1
142.00,149.04,1
277.00,149.28,1
123.00,151.34,1
40.00,152.55,1
183.00,151.61,1
70.00,149.79,1
194.00,147.73,1
99.00,145.88,1
161.00,144.22,1
216.00,143.46,1
46.00,143.42,1
159.00,142.49,1
180.00,141.56,1
39.00,140.79,1
81.00,138.32,1
127.00,134.58,1
154.00,131.33,1
113.00,129.05,1
131.00,127.29,1
121.00,125.84,1
131.00,124.74,1
82.00,123.62,1
55.00,121.58,1
101.00,118.42,1
59.00,114.70,1
89.00,110.63,1
100.00,106.66,1
270.00,104.73,1
127.00,106.15,1
253.00,110.17,1
291.00,117.26,1
179.00,127.14,1
85.00,136.52,1
274.00,144.27,1
59.00,151.11,1
192.00,156.14,1
147.00,159.68,1
181.00,162.60,1
90.00,164.40,1
57.00,163.74,1
130.00,160.61,1
107.00,156.41,1
127.00,151.94,1
80.00,147.16,1
74.00,141.63,1
283.00,136.98,1
94.00,134.99,1
84.00,133.61,1
131.00,131.38,1
228.00,130.10,1
235.00,131.62,1
124.00,135.21,1
126.00,138.49,1
66.00,140.05,1
48.00,139.14,1
152.00,136.44,1
220.00,134.62,1
105.00,134.54,1
86.00,134.29,1
72.00,132.53,1
155.00,129.99,1
52.00,127.34,1
69.00,123.82,1
57.00,119.09,1
80.00,113.73,1
155.00,108.97,1
37.00,105.29,1
119.00,101.89,1
105.00,99.07,1
72.00,96.97,1
59.00,94.72,1
96.00,92.24,1
80.00,90.04,1
210.00,89.25,1
87.00,90.54,1
260.00,93.88,1
90.00,99.06,1
90.00,104.11,1
80.00,107.41,1
295.00,110.86,1
46.00,115.75,1
46.00,119.22,1
93.00,119.80,1
68.00,118.75,1
62.00,116.42,1
194.00,113.99,1
342.00,114.93,1
191.00,120.71,1
314.00,129.67,1
178.00,140.45,1
64.00,150.06,1
164.00,156.30,1
83.00,159.82,1
38.00,160.25,1
65.00,157.13,1
144.00,152.14,1
163.00,147.57,1
125.00,144.14,1
124.00,141.21,1
186.00,138.93,1
134.00,137.81,1
71.00,136.74,1
86.00,134.39,1
184.00,131.69,1
294.00,131.48,1
187.00,134.93,1
154.00,139.91,1
88.00,143.89,1
61.00,145.39,1
109.00,144.33,1
64.00,141.60,1
107.00,137.68,1
116.00,133.39,1
188.00,130.08,1
295.00,129.76,1
105.00,132.56,1
159.00,135.78,1
135.00,138.36,1
58.00,139.76,1
96.00,139.05,1
38.00,136.28,1
74.00,131.69,1
228.00,127.26,1
69.00,124.65,1
67.00,122.13,1
62.00,118.34,1
80.00,113.79,1
170.00,109.80,1
114.00,107.55,1
251.00,107.65,1
104.00,110.14,1
243.00,114.18,1
240.00,120.42,1
174.00,128.56,1
49.00,135.77,1
67.00,139.54,1
45.00,139.68,1
213.00,138.23,1
363.00,139.52,1
145.00,144.83,1
136.00,150.60,1
63.00,153.98,1
138.00,154.76,1
186.00,154.57,1
40.00,153.86,1
98.00,151.22,1
119.00,147.16,1
46.00,142.35,1
112.00,136.63,1
88.00,130.71,1
111.00,125.18,1
331.00,122.17,1
108.00,123.13,1
136.00,125.43,1
222.00,128.02,1
102.00,131.38,1
368.00,136.18,1
405.00,145.60,1
119.00,158.67,1
55.00,169.12,1
108.00,174.23,1
75.00,175.22,1
99.00,173.14,1
131.00,169.20,1
169.00,164.99,1
72.00,160.81,1
129.00,155.97,1
63.00,150.38,1
194.00,144.87,1
43.00,139.97,1
202.00,135.60,1
54.00,131.94,1
184.00,128.89,1
89.00,126.52,1
164.00,124.90,1
55.00,123.44,1
56.00,120.98,1
58.00,116.95,1
313.00,114.03,1
123.00,114.68,1
119.00,116.98,1
136.00,118.97,1
131.00,120.86,1
105.00,122.46,1
64.00,122.97,1
222.00,123.05,1
171.00,124.66,1
88.00,127.15,1
165.00,129.07,1
96.00,130.52,1
69.00,130.82,1
347.00,131.53,1
271.00,136.25,1
136.00,143.79,1
318.00,151.88,1
51.00,159.83,1
68.00,164.62,1
296.00,166.81,1
59.00,168.90,1
128.00,169.38,1
134.00,167.84,1
224.00,166.25,1
79.00,165.01,1
283.00,164.11,1
70.00,163.91,1
139.00,162.99,1
310.00,162.34,1
107.00,163.64,1
119.00,164.53,1
85.00,163.29,1
219.00,161.15,1
400.00,161.81,1
218.00,167.26,1
94.00,173.56,1
195.00,177.59,1
219.00,180.58,1
150.00,183.36,1
122.00,184.71,1
94.00,183.68,1
72.00,179.93,1
160.00,174.43,1
68.00,168.27,1
275.00,162.75,1
165.00,159.64,1
248.00,159.05,1
327.00,161.51,1
156.00,166.80,1
399.00,173.87,1
163.00,182.72,1
75.00,190.01,1
239.00,193.84,1
206.00,196.61,1
134.00,198.70,1
138.00,198.75,1
162.00,196.95,1
53.00,193.31,1
43.00,186.69,1
120.00,177.64,1
256.00,169.35,1
163.00,164.04,1
102.00,160.23,1
164.00,156.43,1
170.00,153.33,1
296.00,152.53,1
200.00,154.83,1
274.00,159.50,1
270.00,166.18,1
236.00,174.44,1
129.00,182.15,1
236.00,188.01,1
137.00,192.34,1
74.00,194.09,1
76.00,191.92,1
258.00,187.93,1
44.00,183.95,1
67.00,178.26,1
78.00,170.16,1
208.00,161.93,1
164.00,155.77,1
223.00,152.22,1
94.00,150.30,1
144.00,148.46,1
109.00,146.21,1
67.00,143.20,1
66.00,138.75,1
238.00,134.40,1
47.00,131.51,1
167.00,129.09,1
142.00,127.31,1
60.00,125.98,1
174.00,124.40,1
79.00,123.11,1
350.00,123.69,1
83.00,127.17,1
134.00,130.98,1
40.00,132.78,1
261.00,133.67,1
276.00,136.86,1
76.00,142.12,1
147.00,146.17,1
87.00,148.19,1
100.00,148.31,1
124.00,146.87,1
66.00,144.34,1
364.00,142.78,1
130.00,144.52,1
104.00,147.09,1
307.00,149.50,1
132.00,153.40,1
156.00,157.31,1
207.00,160.46,1
58.00,162.74,1
130.00,162.83,1
50.00,160.52,1
245.00,157.38,1
47.00,154.64,1
79.00,150.88,1
100.00,145.55,1
146.00,140.20,1
111.00,135.66,1
66.00,131.31,1
178.00,127.14,1
80.00,123.92,1
120.00,121.16,1
194.00,119.30,1
167.00,119.51,1
128.00,121.16,1
144.00,123.09,1
234.00,125.86,1
139.00,130.01,1
374.00,136.20,1
110.00,144.66,1
123.00,152.24,1
273.00,158.15,1
190.00,164.50,1
183.00,170.80,1
166.00,175.90,1
39.00,178.53,1
62.00,177.19,1
310.00,174.22,1
61.00,172.33,1
70.00,169.35,1
49.00,163.58,1
42.00,155.47,1
82.00,145.95,1
227.00,137.47,1
83.00,131.58,1
114.00,126.96,1
177.00,123.27,1
126.00,121.30,1
72.00,119.94,1
201.00,118.83,1
213.00,119.73,1
76.00,122.27,1
120.00,124.17,1
202.00,125.79,1
254.00,129.27,1
93.00,134.32,1
187.00,138.89,1
193.00,143.23,1
289.00,148.92,1
50.00,155.11,1
117.00,158.87,1
40.00,159.16,1
306.00,158.28,1
54.00,158.21,1
96.00,157.14,1
322.00,155.83,1
175.00,157.25,1
201.00,160.34,1
86.00,162.87,1
148.00,163.71,1
141.00,163.25,1
82.00,161.74,1
298.00,160.23,1
144.00,160.57,1
194.00,161.97,1
120.00,163.06,1
99.00,162.90,1
225.00,161.89,1
114.00,161.25,1
188.00,160.73,1
53.00,159.50,1
514.00,159.99,1
83.00,164.71,1
75.00,169.10,1
43.00,169.14,1
293.00,167.32,1
43.00,165.97,1
222.00,164.42,1
74.00,162.44,1
106.00,159.50,1
82.00,155.03,1
53.00,149.18,1
294.00,143.79,1
139.00,141.40,1
78.00,140.29,1
66.00,137.76,1
228.00,134.90,1
79.00,133.23,1
135.00,131.86,1
85.00,130.04,1
68.00,127.45,1
42.00,123.43,1
244.00,119.57,1
238.00,119.01,1
91.00,121.36,1
108.00,123.51,1
177.00,125.05,1
580.00,130.74,1
297.00,144.22,1
45.00,159.77,1
288.00,171.88,1
100.00,181.36,1
104.00,187.46,1
108.00,189.33,1
78.00,187.81,1
53.00,183.08,1
127.00,175.96,1
55.00,167.73,1
75.00,158.49,1
150.00,149.16,1
184.00,141.76,1
110.00,136.65,1
42.00,131.93,1
207.00,127.31,1
115.00,124.30,1
59.00,122.00,1
106.00,119.02,1
60.00,115.56,1
68.00,111.53,1
74.00,107.02,1
139.00,102.98,1
141.00,100.57,1
42.00,99.24,1
76.00,97.43,1
42.00,94.80,1
138.00,92.12,1
210.00,91.42,1
361.00,95.47,1
67.00,103.64,1
230.00,112.42,1
210.00,121.47,1
163.00,131.06,1
104.00,139.30,1
279.00,146.33,1
41.00,152.65,1
47.00,155.79,1
147.00,155.33,1
96.00,153.43,1
57.00,150.19,1
62.00,144.98,1
89.00,138.47,1
110.00,131.83,1
40.00,125.31,1
115.00,118.73,1
192.00,113.63,1
205.00,111.80,1
91.00,112.47,1
199.00,114.10,1
127.00,116.66,1
145.00,119.68,1
80.00,122.12,1
206.00,124.17,1
99.00,126.51,1
197.00,129.08,1
297.00,133.30,1
349.00,141.57,1
227.00,153.36,1
148.00,165.12,1
69.00,173.47,1
206.00,178.12,1
139.00,180.89,1
69.00,181.59,1
91.00,179.12,1
39.00,173.74,1
220.00,167.13,1
152.00,161.79,1
89.00,157.45,1
130.00,152.74,1
132.00,148.09,1
102.00,143.76,1
76.00,139.12,1
53.00,133.52,1
286.00,128.72,1
461.00,129.80,1
170.00,137.69,1
161.00,147.08,1
272.00,155.66,1
84.00,163.56,1
69.00,168.37,1
78.00,168.90,1
76.00,166.19,1
174.00,161.97,1
59.00,157.40,1
80.00,151.80,1
46.00,144.73,1
92.00,136.76,1
198.00,129.71,1
69.00,124.68,1
79.00,120.17,1
48.00,115.03,1
78.00,109.42,1
106.00,104.10,1
70.00,99.59,1
66.00,95.45,1
124.00,91.84,1
71.00,89.24,1
105.00,87.39,1
133.00,86.52,1
94.00,86.84,1
110.00,87.78,1
116.00,89.15,1
242.00,92.08,1
49.00,96.66,1
43.00,100.10,1
141.00,101.69,1
44.00,102.59,1
146.00,102.97,1
85.00,103.34,1
97.00,103.62,1
37.00,103.00,1
268.00,102.76,1
94.00,104.69,1
193.00,108.07,1
170.00,112.44,1
196.00,118.05,1
201.00,124.70,1
230.00,132.49,1
196.00,141.13,1
223.00,150.01,1
89.00,157.84,1
101.00,162.74,1
69.00,164.03,1
69.00,162.16,1
76.00,157.67,1
131.00,151.97,1
45.00,145.79,1
64.00,138.59,1
42.00,130.33,1
58.00,121.45,1
60.00,112.49,1
83.00,104.11,1
43.00,96.53,1
48.00,89.36,1
152.00,83.37,1
225.00,80.85,1
119.00,82.20,1
195.00,85.97,1
305.00,92.73,1
101.00,102.29,1
118.00,111.35,1
128.00,118.40,1
165.00,124.30,1
60.00,128.95,1
161.00,131.90,1
231.00,134.84,1
80.00,138.44,1
192.00,141.41,1
196.00,144.45,1
57.00,147.28,1
139.00,148.26,1
40.00,147.19,1
212.00,145.07,1
46.00,142.88,1
65.00,139.55,1
77.00,134.47,1
156.00,129.26,1
135.00,125.37,1
183.00,123.30,1
335.00,124.57,1
113.00,129.43,1
140.00,134.64,1
110.00,138.30,1
98.00,140.28,1
78.00,140.32,1
225.00,139.66,1
66.00,139.46,1
297.00,140.10,1
53.00,141.86,1
127.00,142.87,1
192.00,143.04,1
100.00,143.49,1
98.00,143.13,1
256.00,142.68,1
99.00,143.48,1
356.00,146.04,1
189.00,151.47,1
46.00,157.04,1
108.00,159.31,1
214.00,159.69,1
68.00,159.70,1
189.00,158.86,1
58.00,157.14,1
148.00,154.36,1
259.00,152.20,1
53.00,151.48,1
49.00,149.32,1
110.00,144.88,1
77.00,139.58,1
123.00,134.13,1
90.00,128.97,1
156.00,124.57,1
78.00,121.08,1
45.00,117.38,1
190.00,113.64,1
170.00,111.98,1
404.00,114.70,1
40.00,121.41,1
78.00,127.14,1
58.00,129.37,1
188.00,129.94,1
163.00,131.01,1
135.00,132.87,1
57.00,133.93,1
72.00,132.97,1
69.00,130.08,1
110.00,126.22,1
106.00,122.37,1
253.00,120.15,1
54.00,120.01,1
267.00,121.13,1
43.00,123.19,1
87.00,124.30,1
155.00,124.11,1
49.00,123.55,1
98.00,121.95,1
128.00,119.78,1
181.00,118.59,1
107.00,118.71,1
48.00,118.54,1
137.00,117.29,1
163.00,116.47,1
74.00,116.44,1
163.00,116.48,1
113.00,116.91,1
162.00,117.92,1
224.00,120.25,1
164.00,124.47,1
130.00,129.19,1
105.00,132.87,1
168.00,135.47,1
127.00,137.67,1
124.00,139.29,1
59.00,139.50,1
95.00,137.85,1
115.00,135.04,1
155.00,132.41,1
331.00,132.28,1
260.00,136.71,1
190.00,144.19,1
52.00,150.83,1
266.00,155.52,1
48.00,159.16,1
52.00,160.07,1
158.00,158.01,1
47.00,154.65,1
176.00,150.53,1
80.00,146.38,1
223.00,143.01,1
88.00,140.81,1
120.00,138.76,1
264.00,137.52,1
64.00,137.90,1
174.00,138.31,1
148.00,138.68,1
135.00,139.38,1
165.00,140.12,1
141.00,141.05,1
158.00,142.10,1
57.00,142.45,1
82.00,140.93,1
163.00,138.30,1
168.00,136.49,1
114.00,135.68,1
71.00,134.43,1
52.00,131.58,1
141.00,127.64,1
49.00,123.60,1
152.00,119.66,1
160.00,116.97,1
292.00,117.38,1
168.00,121.37,1
117.00,126.57,1
89.00,130.40,1
262.00,133.59,1
80.00,137.35,1
124.00,140.18,1
130.00,141.47,1
44.00,141.31,1
225.00,140.17,1
46.00,139.14,1
278.00,138.68,1
53.00,139.15,1
102.00,138.92,1
261.00,138.44,1
106.00,139.53,1
72.00,140.25,1
174.00,139.67,1
118.00,139.06,1
46.00,137.77,1
98.00,134.76,1
132.00,131.11,1
63.00,127.50,1
83.00,123.38,1
50.00,118.44,1
166.00,113.66,1
76.00,110.05,1
130.00,107.38,1
85.00,105.28,1
339.00,105.49,1
141.00,109.65,1
47.00,114.71,1
36.00,116.98,1
159.00,117.13,1
62.00,116.81,1
127.00,116.08,1
40.00,114.64,1
54.00,111.88,1
214.00,109.07,1
205.00,109.02,1
203.00,112.21,1
145.00,117.17,1
160.00,122.46,1
205.00,127.96,1
203.00,134.33,1
81.00,140.45,1
140.00,144.63,1
173.00,147.45,1
250.00,150.80,1
127.00,154.96,1
142.00,158.34,1
48.00,159.46,1
73.00,157.60,1
144.00,153.75,1
36.00,149.03,1
81.00,142.97,1
381.00,138.41,1
233.00,139.30,1
43.00,142.76,1
116.00,144.27,1
65.00,143.45,1
138.00,141.24,1
62.00,138.22,1
169.00,134.91,1
173.00,132.68,1
376.00,133.99,1
127.00,139.25,1
141.00,145.05,1
90.00,148.78,1
76.00,149.98,1
38.00,148.23,1
93.00,144.02,1
240.00,139.89,1
184.00,138.39,1
253.00,139.82,1
107.00,142.86,1
218.00,146.12,1
56.00,148.72,1
41.00,148.84,1
163.00,146.52,1
102.00,143.79,1
219.00,141.81,1
101.00,140.91,1
154.00,140.32,1
80.00,139.27,1
237.00,138.42,1
59.00,138.26,1
93.00,137.28,1
44.00,134.34,1
143.00,130.33,1
241.00,127.70,1
62.00,127.18,1
69.00,126.17,1
42.00,123.23,1
221.00,120.01,1
171.00,118.99,1
203.00,120.63,1
92.00,123.41,1
176.00,126.11,1
91.00,128.40,1
126.00,129.91,1
86.00,130.28,1
122.00,129.73,1
76.00,128.39,1
142.00,126.56,1
76.00,124.59,1
72.00,122.01,1
89.00,118.55,1
100.00,114.90,1
262.00,112.87,1
85.00,113.47,1
63.00,114.27,1
94.00,113.62,1
53.00,111.88,1
52.00,108.92,1
138.00,105.52,1
142.00,103.32,1
138.00,102.86,1
48.00,102.96,1
142.00,102.74,1
60.00,102.41,1
122.00,101.95,1
139.00,101.89,1
217.00,103.58,1
625.00,111.43,1
370.00,128.96,1
75.00,149.95,1
83.00,165.94,1
196.00,176.19,1
164.00,183.43,1
180.00,188.70,1
143.00,191.94,1
54.00,192.37,1
297.00,190.85,1
226.00,190.61,1
103.00,191.16,1
128.00,189.90,1
193.00,187.23,1
46.00,183.64,1
127.00,178.23,1
276.00,172.98,1
79.00,169.56,1
134.00,166.04,1
86.00,161.47,1
38.00,155.51,1
262.00,149.34,1
127.00,145.42,1
48.00,142.30,1
230.00,138.96,1
152.00,137.28,1
184.00,137.40,1
85.00,137.96,1
77.00,137.38,1
142.00,135.55,1
236.00,134.61,1
351.00,137.48,1
268.00,145.12,1
131.00,154.55,1
87.00,161.68,1
109.00,165.16,1
177.00,166.34,1
219.00,167.38,1
69.00,168.28,1
85.00,167.07,1
54.00,162.98,1
88.00,156.79,1
135.00,149.93,1
270.00,144.97,1
74.00,142.61,1
50.00,139.97,1
59.00,135.23,1
102.00,129.38,1
120.00,123.83,1
192.00,119.93,1
104.00,118.04,1
108.00,116.89,1
328.00,117.52,1
231.00,122.37,1
105.00,129.42,1
226.00,136.00,1
47.00,141.50,1
166.00,145.02,1
76.00,146.68,1
337.00,148.50,1
100.00,152.00,1
127.00,155.12,1
147.00,156.52,1
249.00,157.94,1
486.00,163.23,1
138.00,173.11,1
74.00,181.80,1
194.00,186.30,1
129.00,188.47,1
157.00,188.91,1
64.00,187.16,1
138.00,183.12,1
215.00,178.59,1
72.00,174.53,1
120.00,169.62,1
58.00,163.36,1
46.00,155.53,1
256.00,147.79,1
100.00,142.46,1
43.00,137.83,1
422.00,134.78,1
216.00,137.14,1
55.00,141.92,1
112.00,144.46,1
447.00,147.61,1
78.00,154.12,1
170.00,160.36,1
145.00,164.46,1
86.00,166.64,1
96.00,166.22,1
109.00,163.57,1
71.00,159.33,1
255.00,155.01,1
54.00,151.87,1
134.00,148.56,1
83.00,144.48,1
200.00,140.72,1
65.00,137.75,1
160.00,134.99,1
250.00,133.68,1
322.00,136.40,1
189.00,142.92,1
37.00,149.24,1
60.00,151.78,1
446.00,153.68,1
239.00,159.88,1
115.00,167.90,1
72.00,172.91,1
37.00,173.42,1
123.00,170.23,1
86.00,165.24,1
93.00,159.19,1
48.00,151.97,1
81.00,143.70,1
133.00,135.49,1
122.00,128.65,1
247.00,124.35,1
182.00,123.58,1
49.00,124.37,1
121.00,124.16,1
72.00,122.90,1
179.00,121.54,1
66.00,120.60,1
220.00,120.28,1
84.00,120.94,1
53.00,121.09,1
39.00,119.07,1
180.00,116.16,1
80.00,114.07,1
140.00,112.68,1
76.00,111.50,1
123.00,110.35,1
78.00,109.14,1
81.00,107.58,1
66.00,105.37,1
198.00,103.61,1
152.00,103.94,1
153.00,106.17,1
49.00,108.54,1
375.00,111.95,1
111.00,118.39,1
85.00,125.01,1
106.00,129.09,1
167.00,131.77,1
121.00,134.08,1
45.00,135.15,1
58.00,133.68,1
85.00,130.16,1
149.00,126.27,1
251.00,124.38,1
239.00,126.21,1
67.00,130.02,1
229.00,133.58,1
129.00,137.28,1
160.00,140.90,1
71.00,143.28,1
74.00,143.46,1
171.00,142.06,1
119.00,140.72,1
99.00,139.24,1
72.00,136.74,1
128.00,133.38,1
39.00,129.44,1
364.00,126.88,1
75.00,127.72,1
236.00,130.36,1
59.00,133.07,1
240.00,135.64,1
89.00,138.30,1
110.00,140.11,1
55.00,139.84,1
191.00,138.40,1
242.00,138.36,1
314.00,142.01,1
226.00,149.19,1
74.00,156.67,1
190.00,161.81,1
71.00,164.69,1
90.00,164.90,1
259.00,163.80,1
166.00,163.95,1
82.00,164.21,1
52.00,162.08,1
49.00,157.03,1
49.00,149.61,1
94.00,140.96,1
117.00,132.65,1
48.00,125.05,1
172.00,118.31,1
117.00,113.50,1
144.00,110.64,1
100.00,108.98,1
130.00,108.03,1
174.00,108.15,1
138.00,109.77,1
63.00,111.61,1
240.00,113.48,1
72.00,116.24,1
99.00,118.48,1
157.00,119.79,1
153.00,121.51,1
111.00,123.55,1
78.00,124.76,1
155.00,125.04,1
64.00,124.85,1
87.00,123.64,1
55.00,121.05,1
43.00,117.07,1
101.00,112.17,1
80.00,107.43,1
51.00,102.86,1
87.00,98.21,1
54.00,93.73,1
47.00,89.22,1
51.00,84.50,1
43.00,79.69,1
194.00,76.14,1
40.00,74.81,1
150.00,74.84,1
238.00,77.18,1
191.00,83.14,1
197.00,91.71,1
77.00,100.68,1
156.00,108.35,1
148.00,115.04,1
350.00,122.96,1
282.00,134.22,1
127.00,146.92,1
78.00,156.78,1
198.00,163.07,1
64.00,166.92,1
199.00,168.64,1
108.00,169.09,1
43.00,167.64,1
257.00,164.73,1
200.00,163.33,1
124.00,163.34,1
95.00,162.42,1
63.00,159.45,1
123.00,154.75,1
70.00,149.20,1
291.00,144.62,1
103.00,142.60,1
44.00,140.82,1
116.00,137.34,1
74.00,133.04,1
86.00,128.28,1
41.00,122.80,1
99.00,116.79,1
143.00,111.52,1
43.00,107.37,1
45.00,102.93,1
75.00,97.86,1
43.00,92.74,1
327.00,89.83,1
123.00,91.43,1
184.00,95.89,1
158.00,101.48,1
229.00,108.40,1
239.00,117.18,1
98.00,126.62,1
126.00,134.25,1
434.00,142.08,1
274.00,153.86,1
86.00,166.56,1
96.00,175.19,1
82.00,178.88,1
67.00,178.50,1
203.00,175.75,1
116.00,172.71,1
67.00,168.84,1
212.00,164.14,1
292.00,161.65,1
157.00,162.26,1
190.00,163.94,1
37.00,164.54,1
146.00,162.91,1
256.00,161.12,1
276.00,162.18,1
50.00,164.73,1
134.00,165.44,1
57.00,163.61,1
61.00,159.39,1
210.00,154.13,1
179.00,150.48,1
246.00,149.45,1
254.00,151.37,1
322.00,156.75,1
210.00,164.81,1
57.00,172.09,1
158.00,175.87,1
147.00,177.23,1
152.00,177.40,1
141.00,176.55,1
81.00,174.32,1
286.00,171.73,1
241.00,171.51,1
56.00,172.49,1
69.00,170.99,1
49.00,166.14,1
146.00,159.54,1
88.00,152.78,1
58.00,145.71,1
62.00,137.71,1
142.00,129.74,1
150.00,123.50,1
105.00,119.20,1
56.00,115.43,1
63.00,111.05,1
78.00,106.19,1
115.00,101.75,1
67.00,98.12,1
120.00,95.16,1
83.00,92.99,1
212.00,92.39,1
182.00,94.56,1
92.00,98.59,1
132.00,102.51,1
155.00,106.33,1
349.00,112.25,1
107.00,120.95,1
67.00,128.76,1
150.00,133.64,1
46.00,136.36,1
202.00,137.58,1
169.00,139.07,1
70.00,140.66,1
222.00,141.60,1
294.00,144.33,1
129.00,149.39,1
73.00,153.46,1
128.00,154.83,1
276.00,155.76,1
45.00,157.30,1
56.00,156.77,1
66.00,153.05,1
43.00,147.05,1
211.00,140.64,1
191.00,136.53,1
151.00,135.03,1
347.00,136.36,1
197.00,141.45,1
303.00,149.29,1
212.00,158.71,1
449.00,170.37,1
315.00,185.35,1
80.00,200.20,1
56.00,209.26,1
90.00,211.53,1
306.00,210.75,1
56.00,209.45,1
77.00,205.65,1
70.00,198.28,1
134.00,189.02,1
233.00,180.46,1
92.00,173.70,1
257.00,168.40,1
80.00,164.48,1
45.00,159.90,1
57.00,152.98,1
53.00,144.39,1
55.00,134.91,1
85.00,125.27,1
136.00,116.79,1
144.00,110.63,1
498.00,109.90,1
256.00,117.23,1
93.00,128.10,1
256.00,137.89,1
145.00,146.97,1
76.00,154.15,1
61.00,157.45,1
86.00,157.09,1
76.00,154.17,1
268.00,151.04,1
179.00,150.20,1
144.00,150.96,1
81.00,151.07,1
234.00,150.63,1
42.00,150.20,1
168.00,148.93,1
90.00,146.89,1
131.00,144.44,1
115.00,141.67,1
97.00,138.65,1
40.00,134.65,1
198.00,130.27,1
56.00,126.71,1
114.00,123.32,1
363.00,122.02,1
83.00,124.70,1
128.00,128.04,1
67.00,129.69,1
89.00,129.55,1
127.00,128.22,1
209.00,127.53,1
171.00,128.74,1
62.00,130.47,1
136.00,131.03,1
147.00,131.10,1
259.00,132.53,1
193.00,136.34,1
44.00,140.42,1
249.00,143.26,1
66.00,145.71,1
66.00,146.44,1
80.00,144.42,1
59.00,140.46,1
97.00,135.25,1
46.00,129.29,1
124.00,123.06,1
201.00,118.36,1
84.00,115.92,1
148.00,114.52,1
126.00,113.86,1
51.00,113.31,1
41.00,111.36,1
57.00,107.77,1
96.00,103.57,1
190.00,100.57,1
116.00,99.89,1
40.00,99.88,1
45.00,98.56,1
74.00,95.98,1
59.00,92.92,1
133.00,90.22,1
159.00,89.18,1
63.00,89.69,1
119.00,90.45,1
243.00,92.54,1
272.00,98.34,1
66.00,106.54,1
178.00,114.05,1
106.00,120.36,1
218.00,126.20,1
91.00,131.70,1
64.00,135.36,1
122.00,136.47,1
183.00,136.86,1
66.00,137.21,1
235.00,137.49,1
38.00,137.89,1
116.00,137.17,1
283.00,136.65,1
80.00,138.07,1
158.00,139.56,1
85.00,140.05,1
139.00,139.65,1
54.00,138.19,1
156.00,135.85,1
72.00,133.20,1
168.00,130.64,1
43.00,128.12,1
182.00,125.56,1
121.00,123.84,1
194.00,123.55,1
115.00,124.40,1
109.00,125.34,1
142.00,125.84,1
176.00,126.75,1
124.00,128.37,1
158.00,130.17,1
165.00,132.23,1
226.00,135.33,1
116.00,139.27,1
181.00,142.94,1
50.00,145.37,1
193.00,146.31,1
85.00,146.50,1
148.00,146.03,1
168.00,145.38,1
178.00,145.55,1
240.00,147.18,1
54.00,149.44,1
106.00,149.98,1
110.00,148.52,1
212.00,146.96,1
73.00,145.93,1
240.00,145.26,1
152.00,145.79,1
146.00,147.08,1
106.00,147.74,1
106.00,147.18,1
120.00,145.49,1
122.00,143.27,1
64.00,140.38,1
105.00,136.47,1
70.00,131.83,1
168.00,127.36,1
374.00,126.19,1
178.00,130.19,1
137.00,136.14,1
282.00,142.22,1
71.00,148.54,1
212.00,153.68,1
219.00,158.40,1
58.00,162.61,1
52.00,163.60,1
44.00,160.65,1
186.00,155.79,1
75.00,151.00,1
143.00,146.33,1
85.00,141.63,1
224.00,137.82,1
78.00,135.42,1
135.00,133.38,1
130.00,131.37,1
64.00,129.29,1
68.00,126.13,1
235.00,123.15,1
98.00,122.11,1
124.00,121.86,1
68.00,121.06,1
226.00,120.47,1
146.00,121.56,1
185.00,124.18,1
171.00,127.76,1
215.00,132.39,1
188.00,138.06,1
226.00,144.57,1
128.00,151.10,1
200.00,156.70,1
74.00,160.75,1
235.00,163.34,1
45.00,164.77,1
145.00,164.31,1
132.00,162.40,1
155.00,160.23,1
77.00,157.57,1
70.00,153.48,1
74.00,147.66,1
52.00,140.59,1
195.00,133.64,1
184.00,129.13,1
122.00,127.09,1
93.00,125.65,1
184.00,124.47,1
114.00,124.20,1
298.00,125.77,1
186.00,130.19,1
174.00,136.24,1
210.00,142.48,1
246.00,149.47,1
171.00,157.07,1
112.00,163.43,1
184.00,167.66,1
185.00,170.82,1
148.00,173.38,1
94.00,174.34,1
241.00,174.09,1
162.00,174.25,1
59.00,173.76,1
144.00,171.16,1
94.00,167.14,1
249.00,163.35,1
42.00,160.32,1
235.00,157.41,1
463.00,158.06,1
207.00,164.63,1
278.00,173.72,1
116.00,182.16,1
160.00,188.08,1
292.00,192.39,1
155.00,196.74,1
238.00,200.48,1
100.00,202.73,1
452.00,205.10,1
163.00,209.79,1
334.00,215.63,1
149.00,221.03,1
147.00,224.24,1
227.00,224.80,1
145.00,223.95,1
276.00,222.45,1
184.00,221.24,1
313.00,220.92,1
219.00,221.87,1
243.00,223.47,1
285.00,225.48,1
230.00,228.18,1
126.00,229.89,1
73.00,228.15,1
75.00,222.16,1
142.00,213.24,1
52.00,202.82,1
71.00,190.83,1
81.00,177.70,1
78.00,164.42,1
102.00,151.69,1
166.00,140.71,1
198.00,132.96,1
160.00,128.65,1
127.00,126.46,1
342.00,126.89,1
105.00,130.58,1
154.00,134.91,1
314.00,139.75,1
425.00,148.80,1
230.00,162.28,1
262.00,176.63,1
168.00,189.32,1
351.00,200.54,1
242.00,211.64,1
98.00,220.78,1
263.00,226.22,1
381.00,231.18,1
212.00,237.54,1
338.00,243.97,1
225.00,250.00,1
206.00,254.53,1
262.00,256.98,1
248.00,258.43,1
317.00,259.87,1
92.00,260.43,1
127.00,257.43,1
122.00,250.51,1
133.00,241.12,1
159.00,230.52,1
157.00,219.87,1
129.00,209.49,1
155.00,199.38,1
200.00,190.38,1
137.00,182.96,1
151.00,176.45,1
297.00,171.75,1
173.00,170.07,1
158.00,169.79,1
304.00,170.54,1
296.00,174.24,1
460.00,182.48,1
263.00,195.01,1
258.00,208.35,1
303.00,220.55,1
310.00,232.23,1
569.00,245.78,1
252.00,261.98,1
218.00,276.31,1
175.00,285.17,1
181.00,288.65,1
178.00,287.62,1
132.00,282.83,1
111.00,274.38,1
99.00,262.62,1
259.00,249.68,1
224.00,238.54,1
165.00,229.39,1
214.00,221.21,1
126.00,213.62,1
175.00,206.08,1
321.00,200.12,1
155.00,197.06,1
226.00,195.29,1
170.00,193.91,1
151.00,192.37,1
167.00,190.12,1
284.00,188.48,1
210.00,188.82,1
374.00,191.79,1
217.00,197.40,1
291.00,204.22,1
139.00,210.40,1
344.00,215.70,1
303.00,221.94,1
438.00,230.82,1
245.00,241.74,1
436.00,253.31,1
226.00,264.83,1
252.00,274.24,1
440.00,282.00,1
126.00,288.97,1
211.00,292.14,1
126.00,290.46,1
153.00,284.68,1
231.00,276.38,1
178.00,267.47,1
253.00,258.81,1
165.00,250.68,1
231.00,242.94,1
331.00,236.94,1
183.00,233.42,1
110.00,229.71,1
100.00,223.40,1
222.00,215.59,1
314.00,209.62,1
325.00,207.92,1
94.00,208.51,1
183.00,207.81,1
264.00,206.39,1
295.00,206.80,1
190.00,208.91,1
293.00,211.63,1
283.00,215.44,1
352.00,221.21,1
270.00,228.66,1
175.00,235.59,1
209.00,239.92,1
129.00,241.27,1
131.00,239.21,1
224.00,234.84,1
123.00,229.54,1
55.00,222.27,1
100.00,212.11,1
120.00,200.47,1
234.00,189.74,1
122.00,181.19,1
125.00,173.68,1
178.00,166.78,1
287.00,162.40,1
130.00,160.98,1
125.00,160.13,1
211.00,159.07,1
366.00,160.54,1
261.00,166.30,1
286.00,174.88,1
290.00,184.94,1
176.00,195.08,1
261.00,203.80,1
209.00,211.19,1
164.00,216.78,1
363.00,221.30,1
271.00,227.04,1
483.00,235.41,1
229.00,246.11,1
264.00,256.07,1
141.00,262.60,1
171.00,264.80,1
145.00,262.85,1
68.00,257.06,1
146.00,247.66,1
319.00,237.92,1
202.00,230.81,1
141.00,224.92,1
77.00,217.63,1
78.00,207.96,1
186.00,197.19,1
358.00,189.17,1
191.00,185.91,1
124.00,184.43,1
164.00,182.19,1
116.00,179.14,1
204.00,175.85,1
242.00,173.88,1
236.00,174.30,1
164.00,176.12,1
316.00,178.94,1
132.00,182.85,1
184.00,186.08,1
397.00,189.80,1
186.00,195.96,1
143.00,201.71,1
247.00,205.35,1
114.00,207.54,1
171.00,207.66,1
238.00,206.62,1
59.00,204.83,1
95.00,200.36,1
97.00,193.22,1
153.00,185.06,1
176.00,177.53,1
151.00,171.36,1
148.00,166.18,1
140.00,161.60,1
308.00,158.88,1
137.00,158.92,1
220.00,160.34,1
305.00,163.41,1
223.00,169.04,1
294.00,176.36,1
332.00,185.53,1
287.00,196.67,1
164.00,207.47,1
164.00,215.27,1
213.00,219.92,1
281.00,223.37,1
140.00,226.17,1
101.00,226.27,1
206.00,223.35,1
230.00,219.89,1
160.00,216.81,1
140.00,213.00,1
246.00,208.74,1
200.00,205.47,1
287.00,203.91,1
207.00,204.09,1
342.00,206.12,1
70.00,208.79,1
152.00,209.12,1
87.00,206.23,1
110.00,200.82,1
168.00,193.98,1
237.00,188.00,1
196.00,184.17,1
193.00,181.97,1
198.00,180.73,1
120.00,179.68,1
170.00,177.96,1
169.00,175.96,1
167.00,174.21,1
227.00,173.15,1
151.00,173.01,1
237.00,173.51,1
230.00,175.23,1
185.00,178.05,1
219.00,181.08,1
90.00,183.28,1
270.00,184.43,1
304.00,186.92,1
119.00,190.89,1
154.00,193.34,1
186.00,193.87,1
43.00,192.56,1
122.00,188.44,1
104.00,182.27,1
142.00,175.47,1
210.00,169.43,1
98.00,164.70,1
52.00,159.46,1
112.00,152.77,1
41.00,145.27,1
63.00,136.86,1
122.00,128.33,1
170.00,121.56,1
245.00,118.26,1
103.00,118.17,1
250.00,119.98,1
69.00,122.94,1
156.00,125.63,1
95.00,127.44,1
115.00,128.43,1
108.00,128.49,1
265.00,129.21,1
172.00,132.18,1
253.00,137.23,1
85.00,142.82,1
40.00,146.18,1
279.00,147.54,1
226.00,150.52,1
221.00,155.67,1
193.00,161.57,1
113.00,166.67,1
78.00,169.14,1
127.00,168.68,1
82.00,166.17,1
188.00,162.73,1
44.00,158.88,1
76.00,153.61,1
40.00,146.48,1
102.00,138.33,1
64.00,130.12,1
38.00,121.77,1
120.00,113.55,1
100.00,106.67,1
64.00,101.11,1
125.00,96.45,1
89.00,93.05,1
69.00,90.47,1
114.00,88.34,1
220.00,88.07,1
359.00,92.49,1
164.00,101.87,1
141.00,112.49,1
117.00,121.49,1
119.00,128.38,1
270.00,134.55,1
38.00,140.54,1
91.00,144.06,1
126.00,144.83,1
266.00,145.66,1
146.00,148.10,1
154.00,150.96,1
49.00,152.30,1
49.00,150.78,1
62.00,146.34,1
186.00,141.09,1
133.00,137.13,1
36.00,133.62,1
54.00,128.67,1
291.00,124.25,1
86.00,122.73,1
72.00,121.94,1
66.00,119.78,1
59.00,116.35,1
74.00,112.01,1
78.00,107.37,1
224.00,104.05,1
92.00,103.17,1
130.00,103.55,1
304.00,105.85,1
110.00,111.14,1
38.00,116.13,1
128.00,118.68,1
612.00,124.19,1
202.00,137.23,1
62.00,151.53,1
89.00,160.80,1
47.00,164.85,1
175.00,165.46,1
39.00,164.04,1
151.00,160.86,1
162.00,157.28,1
118.00,154.26,1
243.00,152.16,1
90.00,151.28,1
84.00,149.80,1
47.00,146.23,1
57.00,140.60,1
106.00,133.87,1
136.00,127.67,1
60.00,122.36,1
40.00,116.72,1
265.00,111.93,1
121.00,110.33,1
78.00,110.31,1
221.00,110.76,1
240.00,113.77,1
104.00,118.97,1
298.00,125.17,1
85.00,132.25,1
66.00,137.68,1
316.00,141.66,1
328.00,148.47,1
169.00,158.17,1
57.00,166.29,1
216.00,171.07,1
157.00,174.38,1
139.00,176.65,1
56.00,176.58,1
93.00,173.50,1
74.00,168.01,1
215.00,162.03,1
127.00,157.36,1
127.00,153.53,1
72.00,149.29,1
82.00,144.03,1
125.00,138.24,1
259.00,134.15,1
150.00,133.21,1
82.00,133.39,1
67.00,132.26,1
77.00,129.42,1
295.00,127.25,1
124.00,127.93,1
202.00,130.40,1
212.00,134.07,1
203.00,139.29,1
78.00,144.41,1
265.00,148.68,1
116.00,153.00,1
127.00,156.38,1
482.00,160.84,1
170.00,169.34,1
97.00,177.81,1
166.00,182.75,1
224.00,185.86,1
142.00,188.34,1
138.00,189.33,1
163.00,188.59,1
74.00,186.25,1
47.00,181.24,1
41.00,173.12,1
153.00,163.54,1
137.00,154.86,1
147.00,147.89,1
155.00,142.55,1
391.00,140.80,1
110.00,143.53,1
43.00,146.26,1
161.00,146.46,1
62.00,145.30,1
176.00,143.42,1
91.00,141.42,1
95.00,138.97,1
175.00,136.27,1
39.00,133.72,1
379.00,132.57,1
137.00,135.11,1
92.00,138.73,1
98.00,140.37,1
48.00,139.75,1
128.00,137.30,1
167.00,134.79,1
256.00,134.36,1
134.00,136.32,1
96.00,138.42,1
51.00,138.55,1
90.00,136.45,1
70.00,132.81,1
197.00,129.19,1
66.00,126.54,1
41.00,123.40,1
118.00,119.12,1
268.00,116.44,1
145.00,117.19,1
150.00,119.77,1
107.00,122.33,1
115.00,124.19,1
67.00,124.83,1
168.00,124.63,1
69.00,124.27,1
81.00,123.07,1
113.00,120.94,1
48.00,118.25,1
126.00,115.05,1
210.00,113.05,1
90.00,113.03,1
179.00,113.99,1
95.00,115.44,1
82.00,116.46,1
91.00,116.26,1
82.00,115.12,1
73.00,113.16,1
108.00,110.70,1
259.00,109.70,1
137.00,111.62,1
177.00,115.29,1
127.00,119.38,1
58.00,122.58,1
178.00,124.44,1
230.00,127.07,1
157.00,131.42,1
96.00,135.68,1
190.00,138.87,1
331.00,143.37,1
45.00,149.45,1
112.00,153.55,1
139.00,154.93,1
42.00,154.44,1
128.00,151.82,1
156.00,148.56,1
179.00,146.29,1
186.00,145.51,1
247.00,146.73,1
184.00,149.95,1
123.00,153.54,1
125.00,155.77,1
100.00,156.20,1
244.00,156.07,1
92.00,156.43,1
41.00,155.40,1
61.00,151.42,1
34.00,144.98,1
188.00,137.90,1
217.00,133.16,1
298.00,132.72,1
90.00,135.52,1
49.00,137.53,1
274.00,138.32,1
415.00,142.77,1
213.00,152.32,1
76.00,162.13,1
54.00,167.64,1
216.00,169.58,1
237.00,171.42,1
124.00,173.90,1
377.00,177.16,1
110.00,181.96,1
127.00,185.57,1
122.00,186.18,1
180.00,185.05,1
81.00,182.71,1
128.00,178.78,1
112.00,173.58,1
42.00,167.10,1
322.00,160.94,1
133.00,157.72,1
255.00,157.02,1
181.00,158.12,1
152.00,160.08,1
93.00,161.04,1
97.00,160.03,1
52.00,156.75,1
85.00,151.46,1
96.00,145.04,1
296.00,140.10,1
66.00,137.96,1
88.00,136.03,1
62.00,132.60,1
135.00,128.48,1
103.00,124.69,1
152.00,121.77,1
67.00,119.44,1
379.00,119.22,1
141.00,123.15,1
420.00,131.01,1
108.00,141.67,1
145.00,151.55,1
37.00,157.63,1
198.00,160.49,1
108.00,161.83,1
92.00,161.68,1
132.00,159.70,1
196.00,157.49,1
125.00,155.98,1
160.00,154.68,1
348.00,155.12,1
166.00,158.81,1
40.00,162.32,1
91.00,162.43,1
76.00,159.58,1
224.00,155.97,1
136.00,153.53,1
278.00,153.01,1
46.00,153.66,1
62.00,152.65,1
41.00,148.55,1
68.00,142.26,1
135.00,135.36,1
108.00,129.32,1
197.00,124.99,1
327.00,124.44,1
40.00,127.25,1
148.00,129.77,1
121.00,131.17,1
93.00,131.89,1
657.00,136.07,1
51.00,146.81,1
222.00,158.28,1
317.00,168.48,1
48.00,178.13,1
333.00,185.74,1
45.00,191.65,1
88.00,194.04,1
50.00,191.67,1
184.00,186.61,1
265.00,182.24,1
118.00,179.78,1
151.00,177.36,1
50.00,173.52,1
266.00,169.15,1
128.00,166.11,1
572.00,167.39,1
133.00,174.49,1
48.00,181.44,1
147.00,183.78,1
41.00,182.62,1
206.00,179.27,1
670.00,180.12,1
109.00,188.47,1
242.00,197.98,1
179.00,205.02,1
132.00,209.63,1
99.00,210.61,1
118.00,208.07,1
161.00,203.35,1
68.00,197.19,1
644.00,193.79,1
119.00,197.06,1
235.00,202.31,1
105.00,205.33,1
209.00,206.22,1
184.00,205.91,1
128.00,204.68,1
38.00,200.94,1
165.00,194.45,1
243.00,188.13,1
84.00,183.19,1
126.00,177.81,1
38.00,170.92,1
89.00,162.39,1
64.00,152.84,1
131.00,143.41,1
117.00,135.17,1
228.00,129.33,1
613.00,130.44,1
195.00,140.62,1
157.00,153.29,1
108.00,162.94,1
210.00,169.68,1
264.00,175.75,1
100.00,181.47,1
196.00,185.26,1
296.00,188.53,1
127.00,192.34,1
99.00,194.25,1
368.00,194.99,1
48.00,196.41,1
238.00,196.81,1
269.00,197.15,1
122.00,198.32,1
39.00,197.20,1
89.00,192.23,1
124.00,184.88,1
206.00,177.66,1
303.00,173.26,1
80.00,171.56,1
241.00,170.42,1
383.00,171.75,1
61.00,175.89,1
172.00,178.82,1
293.00,180.90,1
152.00,184.03,1
499.00,189.42,1
69.00,197.33,1
363.00,205.09,1
37.00,211.07,1
172.00,213.69,1
160.00,213.11,1
244.00,211.70,1
248.00,211.03,1
322.00,212.34,1
524.00,218.05,1
193.00,228.08,1
47.00,236.08,1
136.00,237.81,1
170.00,235.30,1
64.00,230.07,1
442.00,224.61,1
227.00,222.77,1
64.00,221.94,1
358.00,219.87,1
36.00,217.76,1
81.00,213.14,1
248.00,206.27,1
273.00,201.27,1
127.00,198.45,1
116.00,195.06,1
53.00,189.43,1
273.00,182.95,1
45.00,177.31,1
154.00,171.42,1
41.00,164.52,1
177.00,157.25,1
160.00,151.11,1
442.00,149.22,1
298.00,154.01,1
440.00,164.72,1
275.00,179.45,1
45.00,193.28,1
100.00,201.27,1
85.00,203.40,1
141.00,201.65,1
218.00,198.47,1
237.00,196.23,1
184.00,195.29,1
208.00,194.84,1
200.00,194.67,1
65.00,193.67,1
42.00,189.55,1
118.00,182.35,1
109.00,174.06,1
70.00,165.32,1
216.00,157.06,1
93.00,150.52,1
58.00,144.36,1
68.00,137.20,1
113.00,129.76,1
183.00,123.77,1
204.00,120.76,1
89.00,120.11,1
159.00,120.12,1
121.00,120.53,1
296.00,122.61,1
336.00,128.79,1
235.00,139.19,1
318.00,151.81,1
291.00,166.02,1
855.00,185.81,1
285.00,213.83,1
232.00,241.79,1
67.00,261.80,1
39.00,271.66,1
182.00,272.85,1
39.00,268.39,1
322.00,260.90,1
379.00,255.36,1
39.00,251.95,1
125.00,245.80,1
707.00,241.23,1
97.00,243.36,1
110.00,245.28,1
96.00,241.98,1
109.00,234.85,1
97.00,225.07,1
240.00,214.69,1
64.00,205.00,1
43.00,194.26,1
364.00,183.92,1
104.00,177.25,1
228.00,172.94,1
167.00,169.95,1
52.00,167.14,1
350.00,164.60,1
236.00,165.41,1
41.00,167.71,1
337.00,169.33,1
196.00,172.50,1
400.00,178.57,1
370.00,188.56,1
280.00,201.66,1
216.00,214.43,1
393.00,226.17,1
523.00,240.25,1
305.00,257.48,1
92.00,272.18,1
128.00,279.44,1
321.00,281.29,1
225.00,281.60,1
297.00,281.35,1
194.00,280.23,1
125.00,276.84,1
283.00,271.09,1
139.00,264.61,1
252.00,257.67,1
138.00,250.31,1
280.00,243.13,1
119.00,236.38,1
492.00,231.80,1
62.00,230.30,1
576.00,231.41,1
228.00,236.59,1
96.00,242.02,1
139.00,242.76,1
213.00,240.18,1
274.00,237.21,1
150.00,234.64,1
176.00,231.14,1
37.00,225.24,1
202.00,217.03,1
113.00,208.21,1
107.00,199.02,1
279.00,190.48,1
551.00,187.71,1
291.00,193.15,1
396.00,203.59,1
342.00,216.55,1
176.00,229.63,1
122.00,238.72,1
108.00,242.08,1
416.00,242.86,1
307.00,245.74,1
238.00,250.30,1
246.00,253.99,1
240.00,256.43,1
306.00,258.33,1
37.00,258.59,1
164.00,254.75,1
69.00,246.98,1
36.00,235.71,1
274.00,222.77,1
276.00,212.67,1
476.00,208.82,1
154.00,210.37,1
226.00,212.95,1
92.00,213.63,1
400.00,213.78,1
514.00,218.41,1
406.00,229.80,1
945.00,249.65,1
572.00,280.08,1
71.00,311.83,1
323.00,334.27,1
350.00,349.03,1
283.00,359.47,1
241.00,365.07,1
406.00,366.92,1
42.00,365.21,1
108.00,356.80,1
191.00,342.21,1
278.00,326.13,1
147.00,310.54,1
209.00,294.83,1
287.00,280.19,1
240.00,268.26,1
410.00,260.04,1
288.00,256.41,1
167.00,254.73,1
155.00,251.44,1
342.00,247.38,1
255.00,245.17,1
158.00,243.73,1
211.00,241.02,1
368.00,238.83,1
385.00,240.31,1
311.00,245.51,1
406.00,253.01,1
280.00,261.97,1
242.00,270.10,1
80.00,274.30,1
373.00,274.81,1
160.00,274.23,1
75.00,271.10,1
97.00,263.15,1
311.00,253.19,1
302.00,245.69,1
677.00,245.05,1
323.00,252.81,1
424.00,264.79,1
1023.00,283.27,1
239.00,310.39,1
244.00,335.18,1
348.00,351.80,1
161.00,361.92,1
258.00,365.35,1
529.00,365.82,1
404.00,368.30,1
250.00,371.13,1
250.00,370.51,1
128.00,365.03,1
255.00,355.09,1
196.00,342.69,1
405.00,330.64,1
476.00,322.81,1
149.00,318.64,1
108.00,312.16,1
175.00,301.39,1
115.00,287.94,1
76.00,272.15,1
71.00,253.93,1
248.00,235.55,1
91.00,219.24,1
209.00,204.88,1
133.00,192.49,1
197.00,182.28,1
222.00,174.68,1
494.00,172.54,1
259.00,177.34,1
412.00,186.90,1
314.00,199.50,1
218.00,212.88,1
198.00,223.85,1
439.00,233.49,1
374.00,245.08,1
218.00,257.38,1
287.00,267.27,1
130.00,273.58,1
200.00,275.54,1
187.00,273.86,1
169.00,269.63,1
309.00,264.39,1
244.00,260.19,1
167.00,256.36,1
295.00,252.20,1
228.00,248.83,1
256.00,246.38,1
161.00,243.81,1
332.00,241.32,1
95.00,239.06,1
114.00,234.70,1
333.00,229.04,1
116.00,224.56,1
78.00,219.04,1
374.00,212.94,1
92.00,208.85,1
139.00,204.61,1
240.00,199.64,1
303.00,196.89,1
338.00,198.08,1
392.00,203.82,1
388.00,213.92,1
177.00,225.64,1
417.00,236.68,1
378.00,248.71,1
315.00,261.91,1
198.00,273.25,1
168.00,280.09,1
148.00,281.64,1
170.00,278.73,1
248.00,273.36,1
334.00,268.51,1
142.00,264.70,1
1023.00,266.65,1
233.00,279.33,1
230.00,293.92,1
127.00,302.05,1
137.00,303.27,1
121.00,298.50,1
134.00,289.21,1
79.00,276.38,1
137.00,261.03,1
165.00,245.05,1
178.00,230.12,1
224.00,217.33,1
282.00,207.93,1
307.00,203.00,1
192.00,201.52,1
282.00,201.78,1
106.00,202.43,1
406.00,203.68,1
412.00,208.93,1
224.00,218.01,1
168.00,226.20,1
194.00,231.18,1
311.00,234.50,1
420.00,239.52,1
144.00,246.12,1
295.00,251.30,1
380.00,256.14,1
597.00,264.96,1
167.00,277.37,1
268.00,287.54,1
138.00,292.73,1
175.00,292.97,1
407.00,290.86,1
76.00,288.44,1
81.00,282.35,1
118.00,271.37,1
96.00,257.49,1
79.00,241.63,1
182.00,225.20,1
158.00,210.23,1
130.00,197.10,1
210.00,185.79,1
317.00,178.22,1
332.00,176.38,1
136.00,178.37,1
507.00,183.15,1
308.00,192.85,1
140.00,204.27,1
380.00,214.20,1
163.00,223.44,1
308.00,231.46,1
338.00,239.14,1
138.00,246.33,1
128.00,249.75,1
236.00,249.29,1
165.00,247.02,1
197.00,243.40,1
137.00,238.36,1
236.00,232.49,1
201.00,227.03,1
102.00,221.48,1
135.00,214.42,1
255.00,207.16,1
187.00,201.68,1
59.00,196.53,1
97.00,189.42,1
290.00,182.24,1
122.00,177.37,1
318.00,174.83,1
130.00,174.45,1
1023.00,181.63,1
282.00,201.46,1
125.00,224.01,1
268.00,240.32,1
512.00,254.47,1
242.00,269.48,1
285.00,282.57,1
300.00,292.34,1
183.00,298.92,1
275.00,301.84,1
342.00,302.94,1
170.00,303.09,1
256.00,300.96,1
313.00,297.59,1
265.00,294.67,1
348.00,292.56,1
103.00,290.07,1
267.00,285.35,1
182.00,279.12,1
222.00,272.20,1
148.00,264.34,1
61.00,254.41,1
157.00,241.96,1
64.00,228.12,1
230.00,214.32,1
301.00,203.57,1
113.00,196.49,1
126.00,190.02,1
194.00,183.43,1
291.00,179.02,1
347.00,179.11,1
83.00,182.09,1
115.00,183.53,1
616.00,186.26,1
306.00,195.87,1
177.00,208.29,1
464.00,220.15,1
209.00,232.75,1
269.00,244.14,1
204.00,252.59,1
146.00,257.45,1
167.00,258.15,1
175.00,255.53,1
264.00,251.53,1
298.00,248.46,1
408.00,248.41,1
266.00,251.61,1
131.00,254.57,1
120.00,253.74,1
201.00,249.43,1
79.00,242.87,1
187.00,234.35,1
82.00,224.50,1
315.00,215.10,1
302.00,209.22,1
144.00,206.63,1
134.00,203.81,1
252.00,200.43,1
282.00,198.84,1
457.00,201.63,1
154.00,208.26,1
490.00,216.76,1
202.00,227.08,1
255.00,236.91,1
287.00,244.82,1
224.00,251.43,1
218.00,256.01,1
266.00,258.67,1
489.00,262.37,1
271.00,269.07,1
328.00,276.48,1
224.00,282.49,1
94.00,284.91,1
288.00,283.09,1
253.00,279.97,1
181.00,276.41,1
143.00,270.78,1
282.00,263.75,1
157.00,256.83,1
266.00,250.20,1
194.00,244.18,1
90.00,237.68,1
115.00,228.85,1
137.00,218.37,1
686.00,212.09,1
216.00,214.70,1
121.00,219.81,1
288.00,222.60,1
127.00,224.16,1
220.00,224.22,1
552.00,226.11,1
220.00,232.84,1
127.00,239.51,1
128.00,241.62,1
350.00,241.28,1
50.00,240.29,1
271.00,237.56,1
104.00,233.38,1
167.00,227.79,1
186.00,221.19,1
207.00,215.03,1
322.00,210.85,1
294.00,210.20,1
49.00,210.68,1
82.00,207.98,1
253.00,202.89,1
120.00,198.16,1
113.00,193.03,1
134.00,186.73,1
56.00,179.39,1
85.00,170.61,1
148.00,161.40,1
65.00,152.75,1
78.00,144.06,1
50.00,134.93,1
236.00,126.95,1
63.00,121.53,1
109.00,117.28,1
154.00,113.78,1
180.00,112.31,1
108.00,112.63,1
42.00,112.77,1
238.00,112.70,1
58.00,113.68,1
113.00,114.53,1
121.00,114.72,1
50.00,114.42,1
190.00,113.81,1
120.00,114.13,1
315.00,116.77,1
123.00,122.15,1
93.00,127.60,1
245.00,132.10,1
140.00,137.13,1
529.00,145.15,1
297.00,158.80,1
198.00,174.86,1
148.00,188.24,1
272.00,198.49,1
70.00,206.01,1
84.00,209.03,1
67.00,206.92,1
483.00,204.27,1
251.00,206.15,1
140.00,210.07,1
64.00,211.00,1
169.00,208.32,1
311.00,205.29,1
295.00,205.17,1
53.00,206.16,1
205.00,205.10,1
218.00,203.14,1
216.00,202.03,1
111.00,200.79,1
158.00,198.13,1
401.00,196.39,1
162.00,197.86,1
81.00,199.09,1
198.00,197.74,1
86.00,194.81,1
244.00,191.21,1
316.00,189.52,1
170.00,190.63,1
70.00,191.17,1
41.00,188.17,1
138.00,182.02,1
57.00,174.44,1
58.00,165.46,1
71.00,155.17,1
198.00,145.50,1
122.00,138.20,1
163.00,133.09,1
152.00,129.76,1
174.00,128.25,1
228.00,128.88,1
62.00,130.86,1
45.00,131.30,1
80.00,129.18,1
214.00,126.75,1
304.00,127.42,1
265.00,132.67,1
186.00,140.75,1
127.00,148.55,1
170.00,154.61,1
77.00,158.57,1
241.00,161.01,1
214.00,163.94,1
200.00,167.92,1
138.00,171.62,1
268.00,174.90,1
72.00,177.77,1
186.00,179.03,1
114.00,178.66,1
134.00,176.99,1
187.00,174.57,1
71.00,171.73,1
275.00,168.90,1
149.00,167.54,1
144.00,166.89,1
65.00,165.04,1
285.00,162.80,1
135.00,162.09,1
196.00,162.40,1
46.00,162.00,1
283.00,161.06,1
421.00,163.54,1
150.00,170.58,1
50.00,176.66,1
242.00,179.49,1
501.00,184.24,1
243.00,194.10,1
99.00,204.15,1
374.00,211.77,1
100.00,218.39,1
167.00,222.30,1
101.00,222.35,1
118.00,219.07,1
110.00,213.00,1
242.00,206.14,1
215.00,200.80,1
122.00,196.68,1
132.00,191.92,1
105.00,186.02,1
72.00,178.79,1
83.00,170.14,1
187.00,161.44,1
45.00,153.64,1
91.00,145.67,1
102.00,137.52,1
214.00,130.98,1
100.00,126.89,1
177.00,124.47,1
182.00,123.78,1
160.00,124.96,1
127.00,126.93,1
282.00,129.98,1
295.00,136.15,1
176.00,145.06,1
201.00,154.05,1
293.00,162.98,1
410.00,174.33,1
274.00,188.69,1
158.00,202.58,1
242.00,213.29,1
189.00,221.26,1
157.00,226.41,1
116.00,227.96,1
120.00,225.81,1
88.00,220.40,1
214.00,213.23,1
178.00,206.47,1
83.00,199.90,1
45.00,191.49,1
168.00,181.61,1
60.00,171.72,1
108.00,161.79,1
191.00,152.76,1
180.00,146.41,1
206.00,143.03,1
182.00,142.15,1
83.00,142.19,1
117.00,141.37,1
226.00,140.56,1
504.00,144.23,1
251.00,154.54,1
113.00,166.52,1
144.00,175.23,1
310.00,181.94,1
168.00,188.73,1
794.00,199.58,1
170.00,217.18,1
398.00,236.06,1
340.00,253.39,1
389.00,270.32,1
131.00,284.58,1
228.00,293.24,1
59.00,295.40,1
262.00,292.28,1
264.00,287.26,1
50.00,280.91,1
125.00,270.75,1
101.00,257.39,1
121.00,242.39,1
74.00,226.39,1
150.00,210.21,1
170.00,195.46,1
209.00,183.59,1
93.00,174.12,1
175.00,165.89,1
127.00,158.86,1
218.00,153.62,1
136.00,150.33,1
158.00,148.22,1
305.00,147.99,1
109.00,150.16,1
269.00,153.39,1
232.00,158.07,1
148.00,163.69,1
182.00,168.41,1
199.00,172.31,1
182.00,175.88,1
468.00,181.29,1
246.00,190.75,1
144.00,200.74,1
290.00,208.52,1
136.00,214.64,1
61.00,217.32,1
155.00,215.60,1
150.00,211.48,1
79.00,205.76,1
89.00,197.88,1
156.00,188.75,1
73.00,179.50,1
110.00,169.91,1
173.00,160.86,1
181.00,153.91,1
118.00,148.95,1
174.00,145.14,1
119.00,142.28,1
133.00,139.90,1
207.00,138.37,1
115.00,138.11,1
195.00,138.56,1
238.00,140.50,1
244.00,144.87,1
228.00,151.28,1
284.00,159.31,1
127.00,167.76,1
260.00,175.24,1
155.00,181.75,1
228.00,187.29,1
258.00,192.48,1
735.00,202.35,1
149.00,218.67,1
245.00,234.41,1
178.00,245.37,1
154.00,251.79,1
284.00,254.72,1
51.00,254.91,1
158.00,251.09,1
288.00,245.29,1
172.00,240.27,1
183.00,235.23,1
327.00,230.78,1
94.00,227.47,1
200.00,223.35,1
266.00,219.10,1
174.00,216.13,1
357.00,214.75,1
171.00,215.37,1
709.00,220.40,1
368.00,233.11,1
214.00,248.75,1
257.00,261.10,1
152.00,269.10,1
278.00,273.24,1
246.00,275.21,1
282.00,276.30,1
428.00,278.23,1
240.00,281.92,1
529.00,287.26,1
203.00,294.22,1
92.00,298.24,1
80.00,295.26,1
124.00,286.37,1
53.00,273.30,1
176.00,257.66,1
106.00,241.48,1
178.00,225.87,1
98.00,211.16,1
74.00,196.72,1
522.00,185.59,1
176.00,181.68,1
222.00,181.79,1
106.00,181.87,1
75.00,180.14,1
101.00,175.77,1
277.00,171.22,1
227.00,169.38,1
443.00,172.15,1
249.00,179.87,1
137.00,188.68,1
213.00,195.20,1
106.00,199.21,1
260.00,201.33,1
207.00,203.17,1
206.00,205.13,1
127.00,206.00,1
172.00,205.05,1
57.00,201.91,1
101.00,196.07,1
146.00,188.49,1
70.00,180.33,1
171.00,171.96,1
226.00,165.18,1
77.00,160.35,1
66.00,155.07,1
59.00,148.14,1
123.00,140.53,1
78.00,133.25,1
278.00,127.91,1
88.00,125.58,1
81.00,124.09,1
216.00,122.70,1
72.00,122.43,1
204.00,122.83,1
306.00,125.62,1
286.00,132.72,1
91.00,141.75,1
282.00,150.13,1
318.00,159.60,1
279.00,171.42,1
129.00,183.04,1
200.00,191.89,1
147.00,197.85,1
180.00,201.39,1
311.00,204.18,1
78.00,206.82,1
176.00,207.32,1
139.00,205.50,1
102.00,201.93,1
131.00,196.45,1
121.00,189.77,1
156.00,182.79,1
174.00,176.46,1
71.00,170.57,1
89.00,163.81,1
172.00,156.73,1
114.00,150.69,1
131.00,145.51,1
104.00,140.73,1
152.00,136.50,1
97.00,132.95,1
356.00,131.66,1
250.00,135.04,1
106.00,141.08,1
175.00,146.27,1
141.00,150.31,1
160.00,153.51,1
237.00,156.63,1
191.00,160.66,1
147.00,164.75,1
257.00,168.54,1
279.00,173.64,1
280.00,180.82,1
265.00,189.42,1
187.00,197.94,1
80.00,203.82,1
61.00,204.90,1
142.00,201.73,1
46.00,195.88,1
88.00,187.65,1
72.00,177.64,1
163.00,167.42,1
81.00,158.08,1
52.00,148.86,1
140.00,139.61,1
131.00,131.78,1
180.00,126.29,1
278.00,124.30,1
200.00,126.42,1
72.00,130.05,1
163.00,132.71,1
171.00,135.04,1
249.00,138.57,1
198.00,143.84,1
186.00,149.98,1
154.00,155.67,1
175.00,160.37,1
79.00,163.44,1
131.00,164.20,1
221.00,163.98,1
140.00,164.30,1
115.00,164.19,1
114.00,162.69,1
252.00,161.08,1
77.00,160.27,1
328.00,160.42,1
127.00,162.34,1
70.00,163.82,1
140.00,162.87,1
97.00,160.47,1
88.00,156.80,1
66.00,151.63,1
73.00,145.11,1
276.00,139.40,1
81.00,136.30,1
126.00,134.09,1
98.00,131.55,1
63.00,128.44,1
127.00,124.72,1
169.00,121.80,1
320.00,122.05,1
243.00,126.92,1
257.00,135.22,1
100.00,144.14,1
179.00,151.40,1
59.00,156.18,1
199.00,158.76,1
182.00,160.74,1
240.00,163.56,1
197.00,167.39,1
115.00,170.96,1
97.00,172.34,1
54.00,170.70,1
68.00,166.04,1
143.00,159.72,1
110.00,153.48,1
62.00,147.17,1
218.00,141.24,1
238.00,138.14,1
101.00,137.78,1
140.00,137.76,1
120.00,137.33,1
216.00,137.39,1
159.00,138.78,1
64.00,140.18,1
257.00,141.11,1
107.00,142.80,1
199.00,144.92,1
269.00,148.14,1
212.00,153.53,1
262.00,160.45,1
134.00,167.61,1
113.00,172.82,1
277.00,176.33,1
280.00,181.01,1
272.00,187.74,1
132.00,194.55,1
166.00,199.07,1
165.00,201.12,1
243.00,202.14,1
158.00,202.91,1
142.00,202.59,1
315.00,201.91,1
49.00,201.50,1
125.00,198.98,1
64.00,193.48,1
236.00,186.93,1
135.00,181.32,1
132.00,176.33,1
54.00,170.44,1
53.00,162.75,1
138.00,153.99,1
54.00,145.40,1
65.00,136.63,1
96.00,127.77,1
117.00,119.90,1
262.00,114.86,1
263.00,114.71,1
226.00,119.22,1
94.00,125.38,1
286.00,131.72,1
82.00,138.37,1
288.00,144.95,1
210.00,152.35,1
167.00,160.16,1
68.00,165.85,1
163.00,168.53,1
180.00,169.73,1
325.00,172.04,1
154.00,176.25,1
408.00,182.24,1
287.00,191.19,1
96.00,200.57,1
90.00,205.71,1
60.00,205.60,1
55.00,200.87,1
85.00,192.67,1
221.00,183.74,1
162.00,176.57,1
163.00,171.15,1
68.00,165.97,1
164.00,160.36,1
127.00,155.11,1
60.00,149.94,1
80.00,143.73,1
127.00,137.13,1
60.00,130.83,1
226.00,125.62,1
144.00,122.98,1
80.00,121.82,1
46.00,119.81,1
247.00,117.78,1
168.00,118.20,1
131.00,120.53,1
77.00,122.50,1
206.00,124.00,1
258.00,127.24,1
97.00,132.29,1
89.00,136.22,1
116.00,137.92,1
99.00,138.12,1
234.00,138.24,1
96.00,139.24,1
60.00,139.41,1
70.00,137.32,1
83.00,133.50,1
53.00,128.57,1
112.00,123.05,1
118.00,118.06,1
107.00,114.12,1
150.00,111.34,1
150.00,110.15,1
134.00,110.44,1
89.00,111.20,1
41.00,111.03,1
139.00,109.79,1
212.00,109.62,1
108.00,111.43,1
258.00,114.80,1
163.00,120.06,1
82.00,125.61,1
90.00,129.11,1
80.00,130.32,1
68.00,129.54,1
72.00,127.06,1
167.00,124.11,1
217.00,122.91,1
64.00,123.46,1
152.00,123.90,1
179.00,124.67,1
46.00,125.73,1
53.00,125.04,1
65.00,122.20,1
253.00,119.60,1
104.00,119.26,1
143.00,120.05,1
91.00,120.66,1
149.00,121.05,1
114.00,121.50,1
195.00,122.55,1
168.00,124.87,1
96.00,127.68,1
186.00,130.11,1
226.00,133.39,1
118.00,137.72,1
332.00,143.01,1
262.00,150.92,1
82.00,159.73,1
80.00,165.34,1
243.00,168.13,1
295.00,171.81,1
118.00,176.77,1
69.00,179.66,1
299.00,180.49,1
285.00,183.04,1
166.00,187.49,1
256.00,191.89,1
78.00,195.13,1
209.00,196.27,1
69.00,195.32,1
174.00,192.40,1
74.00,187.89,1
85.00,181.62,1
148.00,174.10,1
94.00,166.56,1
68.00,158.67,1
130.00,150.40,1
79.00,142.51,1
156.00,135.47,1
140.00,130.03,1
144.00,126.39,1
81.00,123.66,1
88.00,120.76,1
58.00,117.17,1
84.00,112.94,1
100.00,108.67,1
121.00,105.18,1
277.00,104.21,1
58.00,106.06,1
61.00,107.72,1
186.00,108.43,1
139.00,110.12,1
54.00,112.04,1
354.00,114.75,1
176.00,120.82,1
78.00,127.91,1
133.00,132.91,1
254.00,137.26,1
205.00,143.06,1
152.00,149.48,1
127.00,154.67,1
135.00,157.95,1
75.00,159.11,1
92.00,157.85,1
76.00,154.40,1
54.00,149.14,1
153.00,142.98,1
256.00,138.67,1
167.00,137.69,1
129.00,138.35,1
145.00,138.98,1
291.00,140.75,1
440.00,147.07,1
154.00,158.04,1
102.00,168.17,1
97.00,174.09,1
241.00,177.27,1
280.00,180.95,1
118.00,185.35,1
127.00,187.87,1
234.00,188.56,1
70.00,188.35,1
86.00,185.76,1
76.00,180.22,1
98.00,172.81,1
101.00,164.57,1
245.00,157.36,1
153.00,152.83,1
79.00,149.54,1
169.00,146.06,1
87.00,142.74,1
112.00,139.27,1
229.00,136.49,1
188.00,136.11,1
117.00,137.29,1
153.00,138.40,1
239.00,140.14,1
212.00,143.83,1
204.00,149.04,1
217.00,154.99,1
258.00,161.79,1
193.00,169.28,1
98.00,175.51,1
232.00,179.57,1
257.00,183.49,1
354.00,189.50,1
174.00,197.20,1
270.00,204.58,1
316.00,211.94,1
177.00,219.44,1
121.00,224.40,1
230.00,226.11,1
166.00,226.11,1
166.00,224.64,1
169.00,221.61,1
136.00,217.27,1
233.00,212.35,1
120.00,207.56,1
151.00,202.22,1
84.00,195.64,1
206.00,188.50,1
134.00,182.04,1
211.00,176.79,1
104.00,172.40,1
173.00,168.27,1
95.00,164.06,1
146.00,159.64,1
242.00,156.20,1
114.00,154.58,1
175.00,153.57,1
143.00,152.74,1
190.00,152.45,1
410.00,154.92,1
190.00,161.61,1
134.00,169.00,1
344.00,175.65,1
322.00,184.41,1
226.00,194.97,1
85.00,203.65,1
256.00,208.91,1
84.00,211.63,1
70.00,210.75,1
129.00,206.06,1
282.00,200.69,1
175.00,197.15,1
207.00,194.88,1
138.00,192.72,1
93.00,189.47,1
191.00,185.00,1
153.00,180.68,1
142.00,176.70,1
534.00,175.88,1
281.00,181.75,1
274.00,191.57,1
307.00,202.08,1
200.00,212.38,1
282.00,221.35,1
150.00,228.41,1
310.00,233.59,1
256.00,238.28,1
204.00,242.45,1
99.00,243.92,1
203.00,241.98,1
202.00,238.36,1
212.00,234.49,1
306.00,231.50,1
167.00,229.76,1
252.00,228.22,1
182.00,226.56,1
174.00,224.32,1
118.00,220.56,1
154.00,215.08,1
152.00,208.57,1
201.00,202.18,1
175.00,196.66,1
309.00,193.07,1
218.00,192.36,1
255.00,193.74,1
220.00,196.21,1
251.00,199.43,1
244.00,203.28,1
259.00,207.72,1
289.00,212.94,1
294.00,219.21,1
192.00,225.56,1
150.00,229.76,1
295.00,231.85,1
274.00,234.15,1
383.00,238.31,1
154.00,243.48,1
352.00,247.98,1
417.00,253.76,1
302.00,262.08,1
288.00,270.57,1
398.00,278.63,1
196.00,286.12,1
252.00,290.97,1
164.00,292.15,1
236.00,290.10,1
277.00,286.50,1
129.00,281.88,1
201.00,275.12,1
208.00,266.99,1
236.00,259.04,1
173.00,251.48,1
257.00,244.35,1
286.00,238.91,1
346.00,236.57,1
319.00,237.76,1
334.00,241.72,1
281.00,247.24,1
218.00,252.46,1
326.00,256.71,1
298.00,261.10,1
266.00,265.63,1
374.00,270.24,1
179.00,274.67,1
208.00,276.72,1
203.00,275.73,1
344.00,273.78,1
219.00,272.42,1
220.00,270.66,1
183.00,267.34,1
184.00,262.34,1
133.00,255.53,1
138.00,246.73,1
153.00,236.52,1
136.00,225.74,1
90.00,214.32,1
116.00,202.13,1
127.00,189.88,1
268.00,179.56,1
248.00,173.34,1
497.00,173.25,1
137.00,178.89,1
350.00,186.52,1
218.00,194.90,1
135.00,202.43,1
106.00,206.32,1
322.00,207.97,1
304.00,211.05,1
211.00,215.86,1
247.00,220.42,1
176.00,223.89,1
299.00,226.54,1
273.00,229.73,1
214.00,233.32,1
214.00,235.89,1
213.00,237.10,1
315.00,238.08,1
168.00,239.30,1
221.00,239.52,1
192.00,238.40,1
143.00,235.85,1
188.00,231.58,1
156.00,226.27,1
402.00,222.20,1
228.00,221.60,1
203.00,222.58,1
121.00,222.21,1
248.00,220.31,1
107.00,217.57,1
113.00,213.03,1
217.00,207.08,1
131.00,201.32,1
162.00,195.58,1
282.00,190.83,1
180.00,188.43,1
283.00,188.04,1
278.00,190.00,1
202.00,193.83,1
270.00,198.22,1
349.00,204.03,1
237.00,211.68,1
223.00,219.15,1
420.00,226.71,1
238.00,235.72,1
401.00,245.52,1
371.00,256.52,1
229.00,267.75,1
156.00,275.53,1
165.00,278.20,1
227.00,276.92,1
87.00,272.62,1
290.00,266.03,1
84.00,258.41,1
124.00,248.89,1
188.00,237.71,1
267.00,227.69,1
185.00,220.04,1
319.00,214.88,1
276.00,212.91,1
292.00,213.99,1
200.00,216.50,1
331.00,219.71,1
402.00,225.35,1
272.00,233.81,1
307.00,242.91,1
192.00,250.69,1
119.00,255.01,1
230.00,255.27,1
142.00,252.97,1
239.00,249.09,1
234.00,244.96,1
177.00,241.03,1
235.00,236.88,1
343.00,234.08,1
207.00,233.55,1
124.00,232.71,1
208.00,229.86,1
121.00,225.53,1
91.00,219.24,1
89.00,210.41,1
175.00,200.39,1
65.00,190.32,1
263.00,181.07,1
296.00,175.42,1
112.00,173.34,1
188.00,171.89,1
293.00,171.57,1
390.00,175.29,1
177.00,182.70,1
211.00,190.18,1
344.00,197.38,1
203.00,205.44,1
248.00,213.02,1
282.00,219.85,1
194.00,226.09,1
253.00,230.98,1
316.00,235.46,1
171.00,239.81,1
100.00,241.42,1
413.00,241.11,1
137.00,241.69,1
312.00,242.39,1
197.00,242.83,1
185.00,242.50,1
265.00,241.11,1
239.00,239.96,1
173.00,238.72,1
115.00,235.68,1
137.00,230.05,1
144.00,222.55,1
270.00,215.23,1
127.00,209.25,1
186.00,203.65,1
379.00,199.93,1
218.00,200.10,1
154.00,201.64,1
152.00,201.74,1
212.00,200.67,1
147.00,199.19,1
280.00,197.97,1
246.00,198.38,1
295.00,200.94,1
421.00,206.61,1
186.00,215.01,1
218.00,222.63,1
265.00,228.39,1
133.00,232.51,1
186.00,233.89,1
394.00,234.64,1
285.00,237.88,1
166.00,241.83,1
300.00,244.40,1
190.00,246.17,1
102.00,245.86,1
121.00,241.75,1
136.00,234.60,1
122.00,225.62,1
372.00,217.55,1
182.00,212.91,1
197.00,210.07,1
173.00,207.15,1
96.00,203.38,1
269.00,199.00,1
223.00,196.18,1
244.00,195.48,1
156.00,195.66,1
211.00,195.66,1
301.00,196.47,1
197.00,198.92,1
161.00,201.29,1
323.00,203.39,1
306.00,207.48,1
369.00,214.52,1
127.00,222.47,1
214.00,228.06,1
422.00,232.85,1
324.00,240.19,1
434.00,250.24,1
349.00,262.39,1
294.00,274.73,1
225.00,284.63,1
233.00,290.82,1
157.00,292.87,1
50.00,289.66,1
108.00,280.63,1
260.00,268.81,1
109.00,257.03,1
48.00,243.94,1
57.00,228.13,1
127.00,210.98,1
105.00,194.39,1
185.00,179.68,1
162.00,167.84,1
164.00,158.86,1
173.00,152.27,1
201.00,148.13,1
143.00,146.03,1
245.00,145.66,1
166.00,147.21,1
190.00,149.86,1
254.00,153.53,1
484.00,161.05,1
61.00,172.05,1
119.00,180.72,1
139.00,184.94,1
141.00,186.47,1
160.00,186.26,1
260.00,185.90,1
107.00,185.99,1
134.00,184.94,1
119.00,182.12,1
42.00,177.39,1
138.00,170.76,1
50.00,163.11,1
57.00,154.35,1
162.00,145.26,1
97.00,137.51,1
279.00,132.31,1
77.00,130.05,1
228.00,129.51,1
104.00,130.08,1
201.00,131.47,1
129.00,133.45,1
142.00,135.50,1
218.00,137.79,1
118.00,140.74,1
120.00,143.08,1
224.00,144.93,1
157.00,147.56,1
131.00,150.21,1
206.00,152.42,1
190.00,155.11,1
140.00,158.04,1
102.00,159.78,1
178.00,160.13,1
195.00,160.50,1
253.00,162.25,1
144.00,165.21,1
74.00,167.08,1
165.00,166.73,1
323.00,166.97,1
198.00,169.98,1
90.00,173.34,1
47.00,173.66,1
80.00,170.35,1
90.00,164.63,1
265.00,159.19,1
112.00,155.83,1
143.00,153.35,1
188.00,151.24,1
184.00,150.44,1
136.00,150.59,1
174.00,150.92,1
125.00,151.23,1
321.00,152.60,1
194.00,156.61,1
226.00,162.21,1
183.00,167.95,1
245.00,173.69,1
103.00,178.72,1
206.00,182.06,1
164.00,184.19,1
198.00,185.77,1
364.00,188.47,1
137.00,193.08,1
300.00,197.94,1
134.00,202.30,1
178.00,205.08,1
180.00,205.94,1
204.00,205.91,1
55.00,204.38,1
168.00,200.44,1
70.00,194.58,1
93.00,186.98,1
122.00,178.15,1
127.00,169.36,1
236.00,162.14,1
203.00,157.94,1
83.00,155.53,1
170.00,153.00,1
119.00,150.51,1
91.00,147.75,1
173.00,144.69,1
287.00,143.56,1
197.00,145.83,1
185.00,149.88,1
153.00,153.96,1
165.00,157.40,1
116.00,159.75,1
124.00,160.56,1
390.00,162.10,1
186.00,166.96,1
281.00,173.74,1
104.00,180.20,1
51.00,183.59,1
86.00,182.48,1
67.00,177.99,1
161.00,171.81,1
232.00,166.58,1
112.00,163.18,1
105.00,159.84,1
94.00,155.45,1
152.00,150.66,1
135.00,146.45,1
154.00,143.16,1
154.00,140.86,1
156.00,139.56,1
112.00,138.74,1
78.00,137.29,1
113.00,134.82,1
126.00,132.03,1
148.00,129.79,1
184.00,128.81,1
147.00,129.29,1
100.00,130.16,1
110.00,130.30,1
357.00,131.69,1
296.00,137.72,1
193.00,147.17,1
319.00,157.76,1
250.00,169.53,1
186.00,181.20,1
270.00,191.45,1
162.00,200.25,1
64.00,205.73,1
79.00,206.17,1
134.00,202.61,1
211.00,197.83,1
98.00,193.06,1
54.00,186.87,1
119.00,178.65,1
205.00,170.61,1
56.00,163.69,1
118.00,156.62,1
113.00,149.39,1
65.00,142.34,1
86.00,135.00,1
185.00,128.45,1
188.00,124.54,1
578.00,126.90,1
154.00,136.87,1
127.00,148.36,1
137.00,156.69,1
190.00,162.72,1
151.00,167.43,1
241.00,171.53,1
168.00,175.61,1
255.00,179.78,1
305.00,185.13,1
233.00,192.17,1
95.00,198.32,1
116.00,200.87,1
89.00,199.60,1
170.00,195.87,1
83.00,190.78,1
222.00,185.21,1
296.00,181.65,1
202.00,181.31,1
169.00,182.25,1
62.00,181.92,1
38.00,178.39,1
90.00,171.63,1
139.00,163.75,1
318.00,158.02,1
316.00,157.46,1
48.00,160.06,1
241.00,162.14,1
40.00,163.06,1
129.00,162.09,1
127.00,159.52,1
119.00,156.43,1
180.00,153.42,1
144.00,151.20,1
109.00,149.29,1
50.00,146.31,1
114.00,141.88,1
168.00,137.51,1
50.00,133.77,1
227.00,130.60,1
83.00,128.72,1
115.00,127.23,1
34.00,124.77,1
100.00,121.12,1
80.00,116.94,1
108.00,112.94,1
38.00,108.92,1
223.00,105.64,1
215.00,105.40,1
200.00,108.77,1
57.00,113.30,1
76.00,116.23,1
102.00,117.18,1
111.00,117.26,1
54.00,116.56,1
299.00,116.45,1
228.00,119.78,1
40.00,124.93,1
95.00,128.03,1
139.00,129.21,1
171.00,130.33,1
166.00,132.23,1
68.00,134.03,1
102.00,134.29,1
105.00,133.15,1
47.00,130.84,1
69.00,126.98,1
68.00,121.94,1
67.00,116.33,1
213.00,111.65,1
117.00,109.43,1
260.00,109.98,1
226.00,113.86,1
47.00,119.31,1
203.00,123.82,1
173.00,128.33,1
114.00,133.00,1
140.00,136.62,1
142.00,139.28,1
108.00,141.09,1
106.00,141.64,1
219.00,141.82,1
61.00,142.26,1
68.00,141.27,1
42.00,137.81,1
137.00,133.01,1
104.00,128.44,1
172.00,125.00,1
174.00,123.40,1
60.00,122.91,1
136.00,122.02,1
174.00,121.49,1
66.00,121.62,1
225.00,122.09,1
288.00,125.06,1
86.00,130.51,1
150.00,135.38,1
191.00,139.38,1
108.00,143.10,1
284.00,146.90,1
91.00,151.30,1
90.00,154.24,1
162.00,154.96,1
92.00,154.56,1
284.00,154.36,1
323.00,157.20,1
227.00,163.73,1
134.00,170.81,1
85.00,175.34,1
75.00,176.09,1
49.00,173.16,1
99.00,167.45,1
38.00,159.93,1
247.00,152.41,1
106.00,146.94,1
92.00,142.47,1
93.00,137.53,1
46.00,131.92,1
86.00,125.52,1
84.00,119.02,1
229.00,114.13,1
136.00,112.25,1
79.00,111.91,1
122.00,111.39,1
88.00,110.70,1
225.00,110.84,1
134.00,112.84,1
147.00,115.96,1
50.00,118.44,1
260.00,120.60,1
83.00,123.66,1
212.00,127.17,1
152.00,131.08,1
107.00,134.87,1
50.00,136.73,1
38.00,135.63,1
51.00,131.79,1
106.00,126.52,1
83.00,121.19,1
100.00,116.21,1
100.00,111.75,1
102.00,107.99,1
151.00,105.32,1
210.00,104.91,1
46.00,106.26,1
95.00,107.05,1
76.00,106.70,1
98.00,105.74,1
140.00,104.93,1
186.00,105.51,1
68.00,107.27,1
120.00,108.71,1
174.00,110.20,1
197.00,113.21,1
38.00,116.77,1
83.00,118.56,1
187.00,119.22,1
164.00,120.93,1
66.00,123.02,1
121.00,124.01,1
146.00,124.40,1
119.00,124.98,1
139.00,125.62,1
197.00,126.86,1
87.00,128.74,1
102.00,129.83,1
55.00,129.23,1
59.00,126.73,1
57.00,122.55,1
37.00,117.07,1
160.00,111.42,1
149.00,107.62,1
135.00,106.10,1
40.00,105.23,1
119.00,103.84,1
146.00,102.86,1
144.00,103.29,1
115.00,104.75,1
80.00,106.14,1
111.00,106.89,1
142.00,107.59,1
191.00,109.42,1
212.00,113.26,1
172.00,118.93,1
113.00,124.85,1
44.00,128.89,1
36.00,129.66,1
198.00,128.54,1
48.00,127.40,1
95.00,125.53,1
105.00,122.80,1
162.00,120.53,1
158.00,119.68,1
38.00,119.35,1
152.00,118.32,1
236.00,118.42,1
43.00,120.09,1
194.00,121.65,1
227.00,124.25,1
38.00,127.79,1
120.00,129.75,1
314.00,131.83,1
84.00,135.95,1
198.00,140.22,1
60.00,143.29,1
250.00,145.58,1
109.00,148.03,1
283.00,151.22,1
65.00,154.76,1
169.00,157.14,1
58.00,157.55,1
161.00,156.34,1
129.00,154.47,1
388.00,154.61,1
81.00,157.79,1
157.00,160.84,1
291.00,163.51,1
45.00,166.62,1
39.00,166.96,1
69.00,163.29,1
277.00,158.86,1
52.00,155.83,1
77.00,152.15,1
245.00,148.06,1
163.00,146.12,1
81.00,145.20,1
118.00,143.36,1
105.00,140.70,1
54.00,137.17,1
130.00,132.79,1
114.00,128.61,1
416.00,127.60,1
66.00,130.97,1
48.00,134.13,1
46.00,133.78,1
45.00,130.62,1
185.00,126.55,1
132.00,123.81,1
122.00,122.34,1
158.00,121.60,1
188.00,122.20,1
80.00,123.69,1
112.00,124.54,1
127.00,124.62,1
170.00,124.99,1
192.00,126.57,1
66.00,128.72,1
111.00,129.68,1
218.00,130.31,1
255.00,133.11,1
100.00,137.70,1
144.00,141.59,1
65.00,143.61,1
71.00,143.22,1
211.00,141.65,1
48.00,140.24,1
157.00,138.37,1
157.00,136.66,1
71.00,135.32,1
152.00,133.55,1
40.00,131.23,1
111.00,127.95,1
83.00,124.09,1
148.00,120.56,1
47.00,117.41,1
113.00,114.07,1
259.00,112.16,1
198.00,113.87,1
224.00,118.66,1
208.00,125.43,1
46.00,132.09,1
59.00,135.78,1
362.00,138.43,1
122.00,143.39,1
84.00,148.12,1
36.00,149.53,1
137.00,148.04,1
48.00,144.97,1
107.00,140.66,1
122.00,135.89,1
68.00,131.23,1
94.00,126.27,1
64.00,120.98,1
108.00,115.67,1
243.00,112.12,1
320.00,113.31,1
167.00,119.21,1
60.00,125.65,1
204.00,130.45,1
177.00,135.11,1
289.00,141.18,1
134.00,148.49,1
281.00,156.06,1
97.00,163.20,1
226.00,169.03,1
262.00,174.57,1
136.00,180.33,1
119.00,184.11,1
242.00,185.98,1
172.00,187.67,1
91.00,188.32,1
50.00,185.96,1
152.00,180.87,1
227.00,175.82,1
110.00,172.10,1
41.00,167.62,1
210.00,161.99,1
290.00,158.60,1
251.00,159.38,1
42.00,161.61,1
174.00,162.16,1
74.00,161.05,1
75.00,158.16,1
65.00,153.10,1
84.00,146.60,1
122.00,139.75,1
196.00,134.27,1
121.00,130.93,1
43.00,128.05,1
83.00,124.03,1
72.00,119.17,1
162.00,114.76,1
127.00,111.93,1
162.00,110.88,1
403.00,113.47,1
376.00,122.80,1
186.00,136.89,1
185.00,150.79,1
128.00,162.02,1
282.00,171.18,1
65.00,178.73,1
46.00,182.36,1
120.00,181.39,1
83.00,177.66,1
80.00,171.98,1
123.00,165.00,1
111.00,157.86,1
94.00,150.84,1
147.00,144.20,1
248.00,139.65,1
239.00,138.90,1
478.00,143.66,1
130.00,153.47,1
218.00,163.75,1
77.00,171.45,1
138.00,175.85,1
303.00,178.80,1
333.00,184.06,1
294.00,192.42,1
447.00,203.70,1
419.00,218.90,1
102.00,234.68,1
180.00,245.55,1
190.00,251.06,1
230.00,253.47,1
383.00,255.46,1
336.00,259.53,1
323.00,265.46,1
158.00,270.61,1
144.00,272.05,1
122.00,268.71,1
280.00,262.79,1
159.00,256.54,1
344.00,251.10,1
129.00,246.73,1
117.00,241.18,1
102.00,232.78,1
185.00,222.87,1
338.00,214.66,1
117.00,209.43,1
141.00,204.41,1
118.00,198.09,1
301.00,192.34,1
220.00,189.40,1
267.00,189.25,1
184.00,190.66,1
260.00,192.83,1
308.00,196.50,1
325.00,202.74,1
242.00,210.73,1
427.00,220.11,1
401.00,232.37,1
155.00,245.43,1
316.00,255.71,1
190.00,263.15,1
126.00,266.91,1
134.00,265.68,1
150.00,260.47,1
108.00,252.36,1
127.00,241.93,1
123.00,229.97,1
118.00,217.35,1
84.00,204.23,1
91.00,190.60,1
167.00,177.53,1
136.00,166.36,1
528.00,160.33,1
136.00,161.44,1
124.00,164.61,1
247.00,166.79,1
335.00,170.86,1
254.00,178.00,1
248.00,186.55,1
255.00,195.21,1
262.00,203.77,1
160.00,211.30,1
298.00,217.31,1
226.00,222.81,1
124.00,226.86,1
237.00,228.30,1
254.00,228.88,1
359.00,230.89,1
339.00,235.61,1
118.00,240.97,1
154.00,243.09,1
84.00,240.90,1
293.00,236.32,1
127.00,231.61,1
168.00,226.29,1
103.00,219.45,1
166.00,211.43,1
115.00,202.89,1
166.00,194.35,1
144.00,186.31,1
250.00,179.86,1
248.00,176.37,1
97.00,174.86,1
224.00,173.44,1
253.00,173.22,1
252.00,175.44,1
201.00,179.28,1
199.00,183.32,1
275.00,187.56,1
111.00,191.69,1
332.00,195.34,1
238.00,200.01,1
255.00,205.73,1
342.00,212.31,1
352.00,220.95,1
444.00,232.56,1
303.00,246.48,1
82.00,258.27,1
234.00,264.50,1
119.00,266.01,1
238.00,264.20,1
106.00,259.91,1
236.00,253.72,1
85.00,246.08,1
284.00,237.83,1
117.00,230.06,1
116.00,221.78,1
112.00,211.97,1
110.00,201.22,1
153.00,190.40,1
338.00,182.10,1
219.00,178.47,1
219.00,178.02,1
182.00,178.74,1
224.00,180.05,1
261.00,182.45,1
146.00,185.64,1
226.00,188.36,1
427.00,192.66,1
440.00,202.23,1
166.00,215.04,1
354.00,226.97,1
304.00,238.27,1
230.00,248.83,1
332.00,257.69,1
163.00,264.64,1
296.00,269.04,1
246.00,271.75,1
222.00,273.17,1
200.00,272.54,1
177.00,269.64,1
136.00,264.22,1
164.00,256.40,1
238.00,247.79,1
121.00,239.35,1
102.00,229.80,1
321.00,220.28,1
126.00,212.96,1
166.00,206.47,1
198.00,200.12,1
138.00,194.46,1
282.00,189.99,1
230.00,188.02,1
222.00,188.28,1
229.00,189.73,1
216.00,191.98,1
152.00,194.05,1
276.00,195.79,1
236.00,198.44,1
230.00,201.97,1
174.00,205.17,1
236.00,207.54,1
602.00,212.81,1
160.00,222.97,1
197.00,232.57,1
175.00,238.21,1
138.00,240.27,1
173.00,239.07,1
76.00,234.84,1
156.00,227.82,1
108.00,219.04,1
166.00,209.54,1
178.00,200.51,1
105.00,192.19,1
248.00,184.78,1
136.00,179.12,1
240.00,175.18,1
141.00,172.65,1
299.00,171.81,1
160.00,172.91,1
214.00,174.92,1
190.00,177.09,1
127.00,178.84,1
243.00,179.94,1
205.00,181.60,1
496.00,186.37,1
143.00,194.91,1
512.00,205.64,1
174.00,218.07,1
283.00,229.75,1
335.00,239.91,1
266.00,249.77,1
188.00,257.71,1
331.00,263.27,1
355.00,268.75,1
188.00,274.20,1
203.00,277.01,1
86.00,275.59,1
157.00,269.78,1
91.00,260.52,1
183.00,249.18,1
159.00,237.40,1
93.00,225.50,1
128.00,212.91,1
158.00,200.50,1
186.00,189.64,1
315.00,182.11,1
176.00,178.56,1
179.00,176.94,1
106.00,175.15,1
393.00,174.48,1
357.00,178.52,1
396.00,188.09,1
143.00,199.82,1
458.00,211.56,1
348.00,225.14,1
188.00,239.10,1
293.00,250.21,1
127.00,257.83,1
216.00,261.39,1
280.00,262.39,1
292.00,263.30,1
141.00,263.60,1
174.00,261.28,1
130.00,255.98,1
99.00,247.84,1
162.00,237.50,1
267.00,227.48,1
281.00,220.42,1
114.00,215.59,1
95.00,209.80,1
108.00,201.89,1
114.00,192.73,1
198.00,183.81,1
118.00,176.14,1
157.00,169.38,1
345.00,165.09,1
143.00,164.56,1
197.00,165.58,1
268.00,167.53,1
178.00,171.01,1
191.00,174.74,1
264.00,178.61,1
259.00,183.72,1
208.00,189.73,1
256.00,195.71,1
233.00,201.68,1
322.00,208.18,1
304.00,216.03,1
158.00,223.85,1
344.00,230.35,1
217.00,236.46,1
180.00,241.20,1
252.00,243.68,1
76.00,243.78,1
311.00,241.70,1
208.00,239.61,1
117.00,237.08,1
86.00,231.61,1
204.00,223.87,1
337.00,217.46,1
261.00,214.89,1
134.00,214.04,1
133.00,211.77,1
116.00,207.29,1
258.00,202.18,1
263.00,199.02,1
299.00,198.98,1
226.00,201.37,1
178.00,204.20,1
398.00,207.71,1
342.00,214.46,1
204.00,223.12,1
225.00,230.39,1
342.00,236.52,1
286.00,243.26,1
419.00,251.36,1
425.00,262.03,1
143.00,273.16,1
305.00,280.99,1
354.00,286.80,1
173.00,291.53,1
94.00,292.05,1
127.00,286.87,1
246.00,278.35,1
62.00,268.29,1
104.00,255.72,1
161.00,241.30,1
104.00,226.73,1
137.00,212.35,1
154.00,198.80,1
151.00,186.85,1
284.00,177.72,1
184.00,172.34,1
266.00,170.15,1
274.00,171.10,1
114.00,173.82,1
192.00,175.87,1
128.00,176.80,1
251.00,177.43,1
154.00,178.53,1
170.00,179.48,1
362.00,181.34,1
206.00,185.86,1
261.00,191.68,1
146.00,197.00,1
296.00,201.54,1
329.00,207.14,1
379.00,215.56,1
115.00,224.77,1
169.00,230.78,1
154.00,232.74,1
163.00,231.83,1
196.00,229.06,1
119.00,224.96,1
150.00,219.22,1
91.00,211.82,1
243.00,203.93,1
103.00,196.81,1
112.00,189.52,1
216.00,182.19,1
208.00,176.82,1
94.00,172.89,1
146.00,168.66,1
259.00,165.20,1
172.00,164.01,1
142.00,163.84,1
100.00,162.88,1
167.00,160.97,1
242.00,159.78,1
222.00,160.85,1
215.00,163.77,1
385.00,169.16,1
247.00,177.90,1
411.00,189.35,1
220.00,202.45,1
427.00,216.32,1
430.00,232.13,1
210.00,248.84,1
129.00,261.39,1
239.00,268.11,1
177.00,270.85,1
84.00,269.58,1
96.00,263.27,1
138.00,253.22,1
210.00,242.02,1
187.00,231.67,1
105.00,221.82,1
117.00,211.26,1
283.00,201.38,1
392.00,196.10,1
340.00,197.21,1
249.00,202.50,1
204.00,208.44,1
229.00,213.40,1
639.00,220.84,1
259.00,233.81,1
186.00,247.05,1
380.00,257.30,1
190.00,265.97,1
224.00,271.89,1
396.00,275.94,1
192.00,279.88,1
278.00,282.35,1
418.00,284.54,1
272.00,288.26,1
363.00,292.52,1
294.00,296.77,1
202.00,299.71,1
128.00,298.82,1
113.00,293.01,1
68.00,282.38,1
147.00,268.26,1
93.00,252.42,1
89.00,235.50,1
187.00,218.65,1
186.00,203.98,1
185.00,192.24,1
142.00,182.73,1
368.00,176.37,1
300.00,175.52,1
176.00,178.53,1
192.00,181.89,1
160.00,184.37,1
277.00,186.68,1
294.00,190.60,1
242.00,196.47,1
212.00,202.61,1
183.00,207.60,1
290.00,211.69,1
267.00,216.31,1
229.00,221.38,1
461.00,227.75,1
264.00,236.75,1
353.00,246.84,1
183.00,255.89,1
183.00,261.77,1
218.00,263.92,1
187.00,263.47,1
140.00,260.44,1
200.00,255.04,1
142.00,248.13,1
243.00,240.66,1
133.00,233.31,1
246.00,226.26,1
232.00,220.50,1
224.00,216.57,1
165.00,213.41,1
113.00,209.44,1
85.00,203.44,1
105.00,195.35,1
157.00,186.46,1
324.00,179.68,1
364.00,178.23,1
368.00,182.94,1
311.00,192.12,1
378.00,204.08,1
364.00,218.26,1
321.00,233.61,1
314.00,248.47,1
530.00,263.77,1
367.00,281.08,1
281.00,297.72,1
389.00,311.42,1
99.00,321.11,1
144.00,323.82,1
148.00,319.54,1
94.00,310.18,1
125.00,296.59,1
155.00,280.57,1
465.00,266.56,1
94.00,256.83,1
125.00,247.36,1
169.00,236.25,1
185.00,225.35,1
197.00,215.70,1
176.00,207.47,1
179.00,200.38,1
325.00,195.47,1
414.00,195.52,1
404.00,201.98,1
239.00,212.28,1
405.00,223.75,1
132.00,234.82,1
210.00,242.74,1
405.00,248.61,1
188.00,254.85,1
162.00,258.95,1
766.00,264.09,1
316.00,275.98,1
236.00,289.43,1
155.00,297.83,1
147.00,300.10,1
181.00,297.10,1
136.00,290.29,1
80.00,279.89,1
100.00,266.01,1
250.00,250.99,1
107.00,237.12,1
92.00,223.34,1
143.00,209.07,1
84.00,195.12,1
234.00,182.57,1
344.00,174.42,1
392.00,173.40,1
306.00,178.72,1
266.00,187.39,1
201.00,196.37,1
362.00,205.21,1
370.00,215.87,1
308.00,228.51,1
326.00,241.43,1
294.00,253.63,1
306.00,264.59,1
219.00,273.48,1
212.00,279.10,1
390.00,282.68,1
377.00,287.37,1
304.00,293.40,1
396.00,299.69,1
303.00,306.13,1
124.00,310.20,1
236.00,309.52,1
90.00,304.43,1
243.00,295.87,1
173.00,285.76,1
123.00,274.52,1
66.00,260.91,1
124.00,245.06,1
106.00,228.38,1
86.00,211.63,1
126.00,195.23,1
301.00,181.59,1
237.00,173.22,1
146.00,168.77,1
362.00,167.19,1
204.00,169.32,1
209.00,173.47,1
174.00,177.47,1
250.00,181.31,1
314.00,186.40,1
252.00,193.47,1
284.00,201.55,1
236.00,209.77,1
183.00,216.83,1
218.00,221.81,1
210.00,225.11,1
246.00,227.48,1
297.00,230.02,1
268.00,233.50,1
274.00,237.58,1
184.00,241.09,1
153.00,242.37,1
100.00,240.19,1
271.00,235.72,1
211.00,231.58,1
263.00,228.68,1
73.00,225.61,1
44.00,219.58,1
158.00,210.36,1
84.00,200.07,1
389.00,191.55,1
159.00,187.20,1
246.00,185.59,1
125.00,184.65,1
166.00,183.30,1
280.00,182.31,1
130.00,182.61,1
157.00,182.57,1
96.00,180.97,1
141.00,177.81,1
432.00,176.23,1
225.00,179.40,1
202.00,184.84,1
126.00,189.09,1
174.00,191.25,1
164.00,191.85,1
203.00,191.77,1
166.00,191.46,1
156.00,190.61,1
130.00,188.68,1
131.00,185.48,1
138.00,181.31,1
112.00,176.44,1
132.00,170.98,1
53.00,164.73,1
119.00,157.49,1
205.00,150.87,1
49.00,145.63,1
232.00,141.26,1
157.00,138.83,1
105.00,137.77,1
175.00,136.89,1
173.00,136.88,1
180.00,138.15,1
146.00,140.15,1
253.00,143.03,1
202.00,147.57,1
274.00,153.85,1
271.00,161.97,1
148.00,170.76,1
150.00,177.72,1
224.00,182.70,1
204.00,187.06,1
182.00,190.92,1
223.00,194.09,1
308.00,197.80,1
204.00,202.72,1
166.00,207.05,1
188.00,209.47,1
183.00,210.37,1
179.00,210.16,1
206.00,209.22,1
71.00,207.06,1
131.00,202.54,1
101.00,195.97,1
72.00,187.85,1
74.00,178.11,1
66.00,167.18,1
271.00,157.30,1
152.00,150.88,1
180.00,147.27,1
225.00,145.77,1
196.00,146.62,1
101.00,148.36,1
159.00,149.38,1
103.00,149.53,1
190.00,149.29,1
168.00,149.56,1
290.00,151.57,1
127.00,155.31,1
114.00,158.45,1
208.00,160.26,1
238.00,162.70,1
162.00,166.16,1
188.00,169.50,1
246.00,172.91,1
102.00,176.25,1
96.00,177.48,1
41.00,175.31,1
61.00,169.84,1
200.00,163.06,1
48.00,156.72,1
202.00,150.84,1
220.00,146.93,1
118.00,145.36,1
47.00,143.52,1
181.00,140.62,1
214.00,138.93,1
186.00,139.62,1
180.00,141.87,1
250.00,145.47,1
143.00,150.21,1
361.00,156.28,1
184.00,164.39,1
225.00,173.00,1
355.00,181.99,1
359.00,193.53,1
392.00,208.01,1
265.00,223.81,1
323.00,238.71,1
103.00,250.51,1
374.00,258.67,1
228.00,265.24,1
393.00,271.56,1
313.00,278.38,1
234.00,284.71,1
167.00,287.96,1
109.00,286.54,1
234.00,281.10,1
81.00,273.09,1
147.00,262.43,1
194.00,250.35,1
121.00,238.31,1
126.00,225.95,1
52.00,212.60,1
140.00,198.46,1
90.00,184.65,1
242.00,172.69,1
127.00,163.73,1
234.00,157.54,1
209.00,154.27,1
159.00,153.40,1
244.00,154.05,1
311.00,157.37,1
239.00,163.80,1
148.00,171.03,1
219.00,177.10,1
220.00,182.52,1
123.00,187.07,1
283.00,190.53,1
241.00,194.54,1
385.00,200.66,1
226.00,208.92,1
186.00,216.75,1
219.00,222.29,1
149.00,225.52,1
88.00,225.50,1
229.00,222.59,1
298.00,219.99,1
141.00,218.73,1
49.00,215.75,1
119.00,209.23,1
60.00,200.24,1
181.00,190.26,1
127.00,180.92,1
181.00,172.93,1
183.00,166.69,1
223.00,162.82,1
154.00,160.98,1
208.00,160.38,1
247.00,161.38,1
187.00,164.16,1
218.00,167.78,1
315.00,172.73,1
332.00,180.58,1
284.00,191.04,1
226.00,201.97,1
364.00,212.70,1
266.00,223.91,1
242.00,234.43,1
123.00,241.89,1
288.00,245.95,1
245.00,248.71,1
336.00,251.80,1
251.00,255.48,1
74.00,257.37,1
226.00,255.47,1
60.00,250.34,1
67.00,241.60,1
50.00,229.01,1
50.00,213.60,1
359.00,199.03,1
157.00,189.03,1
213.00,182.50,1
307.00,178.87,1
161.00,178.36,1
288.00,179.65,1
268.00,183.01,1
214.00,188.10,1
217.00,193.29,1
167.00,197.58,1
89.00,199.60,1
219.00,199.22,1
258.00,198.83,1
132.00,199.13,1
257.00,199.21,1
150.00,199.26,1
289.00,199.70,1
127.00,200.50,1
198.00,200.61,1
170.00,199.78,1
378.00,200.13,1
80.00,202.10,1
184.00,202.88,1
119.00,201.45,1
183.00,198.70,1
48.00,194.43,1
234.00,189.01,1
56.00,183.36,1
119.00,176.85,1
46.00,168.87,1
87.00,159.70,1
96.00,150.07,1
411.00,143.50,1
169.00,142.78,1
127.00,144.81,1
177.00,146.52,1
187.00,148.50,1
169.00,151.05,1
128.00,153.40,1
350.00,156.51,1
233.00,162.46,1
200.00,170.05,1
259.00,177.57,1
232.00,185.28,1
318.00,193.63,1
145.00,201.96,1
196.00,208.25,1
152.00,211.81,1
521.00,215.95,1
200.00,223.50,1
49.00,229.86,1
49.00,229.94,1
121.00,224.59,1
62.00,215.95,1
59.00,204.77,1
131.00,192.08,1
127.00,179.78,1
194.00,169.27,1
74.00,160.55,1
151.00,152.69,1
175.00,146.23,1
187.00,142.19,1
134.00,140.07,1
269.00,139.82,1
178.00,142.05,1
151.00,145.47,1
300.00,149.72,1
240.00,156.21,1
189.00,164.01,1
184.00,171.15,1
292.00,177.93,1
206.00,185.25,1
320.00,193.15,1
488.00,203.83,1
184.00,217.41,1
175.00,229.06,1
242.00,236.75,1
283.00,242.54,1
150.00,246.84,1
139.00,247.87,1
207.00,245.72,1
54.00,240.99,1
82.00,232.66,1
71.00,221.06,1
88.00,207.48,1
50.00,192.75,1
51.00,177.17,1
92.00,161.50,1
124.00,147.22,1
91.00,135.06,1
98.00,124.70,1
214.00,116.85,1
104.00,112.26,1
168.00,109.93,1
84.00,108.86,1
195.00,108.85,1
259.00,111.29,1
99.00,116.19,1
337.00,122.62,1
224.00,131.78,1
546.00,145.36,1
302.00,164.27,1
154.00,184.01,1
307.00,200.51,1
400.00,216.06,1
256.00,232.00,1
125.00,245.00,1
217.00,252.78,1
140.00,256.09,1
284.00,256.58,1
138.00,255.44,1
159.00,252.09,1
163.00,246.27,1
78.00,238.34,1
87.00,227.79,1
84.00,215.01,1
94.00,201.06,1
352.00,188.98,1
103.00,181.01,1
184.00,175.11,1
109.00,169.64,1
140.00,164.35,1
346.00,160.99,1
282.00,162.34,1
103.00,166.41,1
162.00,169.36,1
171.00,170.95,1
296.00,173.12,1
199.00,177.00,1
245.00,181.87,1
146.00,186.45,1
137.00,189.34,1
207.00,190.47,1
237.00,191.54,1
394.00,194.89,1
258.00,201.61,1
177.00,209.04,1
64.00,213.38,1
128.00,213.18,1
86.00,209.29,1
175.00,203.35,1
236.00,197.66,1
114.00,193.10,1
61.00,187.59,1
45.00,179.51,1
156.00,169.95,1
130.00,161.09,1
163.00,153.82,1
132.00,148.07,1
200.00,143.99,1
89.00,141.28,1
290.00,140.08,1
208.00,141.76,1
190.00,145.76,1
264.00,151.03,1
249.00,158.08,1
136.00,165.63,1
189.00,171.76,1
128.00,176.02,1
284.00,179.46,1
281.00,184.24,1
154.00,190.07,1
207.00,194.79,1
145.00,197.83,1
84.00,198.37,1
80.00,195.47,1
92.00,189.59,1
254.00,183.14,1
102.00,177.99,1
119.00,172.96,1
48.00,166.62,1
96.00,158.84,1
41.00,149.97,1
194.00,141.34,1
142.00,134.84,1
188.00,130.94,1
181.00,129.41,1
212.00,130.29,1
117.00,132.64,1
192.00,135.30,1
158.00,138.31,1
106.00,141.09,1
147.00,142.81,1
193.00,144.30,1
162.00,146.41,1
131.00,148.53,1
226.00,150.61,1
228.00,153.93,1
375.00,160.12,1
164.00,168.98,1
256.00,178.08,1
171.00,186.11,1
148.00,192.23,1
182.00,195.90,1
124.00,197.45,1
60.00,196.18,1
116.00,191.73,1
152.00,185.67,1
69.00,178.98,1
288.00,172.76,1
78.00,168.28,1
130.00,164.06,1
72.00,158.82,1
155.00,153.13,1
222.00,148.73,1
198.00,147.07,1
190.00,147.62,1
176.00,149.38,1
318.00,152.93,1
199.00,158.91,1
241.00,166.12,1
256.00,173.86,1
336.00,183.02,1
152.00,192.86,1
256.00,201.37,1
188.00,208.22,1
269.00,213.99,1
190.00,218.87,1
108.00,221.61,1
268.00,221.95,1
252.00,222.27,1
225.00,223.42,1
114.00,223.65,1
84.00,220.85,1
104.00,214.57,1
131.00,206.22,1
285.00,198.44,1
76.00,192.39,1
247.00,187.09,1
68.00,182.15,1
72.00,176.13,1
58.00,167.96,1
166.00,159.12,1
130.00,151.44,1
156.00,145.41,1
118.00,140.66,1
312.00,138.21,1
390.00,141.25,1
192.00,149.48,1
102.00,158.03,1
187.00,164.10,1
176.00,168.68,1
169.00,172.44,1
234.00,175.77,1
169.00,179.16,1
185.00,182.06,1
172.00,184.13,1
268.00,186.21,1
302.00,189.99,1
163.00,195.16,1
138.00,198.96,1
75.00,199.49,1
145.00,196.89,1
277.00,193.71,1
210.00,192.41,1
100.00,191.65,1
61.00,188.63,1
42.00,182.27,1
85.00,173.28,1
58.00,162.96,1
158.00,152.68,1
170.00,144.33,1
428.00,140.84,1
354.00,144.92,1
184.00,154.18,1
128.00,163.16,1
281.00,170.54,1
218.00,178.03,1
108.00,184.65,1
99.00,187.96,1
322.00,189.45,1
234.00,192.39,1
215.00,196.57,1
185.00,200.25,1
224.00,203.13,1
181.00,205.32,1
215.00,206.82,1
227.00,208.04,1
353.00,210.57,1
194.00,214.87,1
205.00,218.85,1
187.00,221.18,1
61.00,220.93,1
90.00,216.69,1
53.00,208.66,1
116.00,198.23,1
345.00,188.95,1
83.00,182.99,1
223.00,178.48,1
91.00,174.27,1
212.00,170.41,1
226.00,167.98,1
88.00,166.79,1
92.00,164.45,1
304.00,162.00,1
148.00,161.81,1
240.00,163.27,1
208.00,165.91,1
101.00,168.69,1
193.00,170.21,1
100.00,170.57,1
151.00,169.69,1
95.00,167.51,1
86.00,163.80,1
166.00,159.14,1
168.00,155.19,1
264.00,153.42,1
89.00,153.51,1
149.00,153.38,1
59.00,151.87,1
70.00,148.44,1
130.00,143.65,1
239.00,139.96,1
72.00,138.17,1
45.00,135.78,1
102.00,131.63,1
140.00,127.32,1
121.00,124.01,1
235.00,122.50,1
88.00,122.93,1
75.00,123.20,1
112.00,122.22,1
86.00,120.61,1
136.00,118.86,1
140.00,117.73,1
134.00,117.52,1
165.00,118.23,1
188.00,120.26,1
247.00,124.35,1
127.00,130.09,1
44.00,134.65,1
265.00,137.64,1
177.00,141.56,1
101.00,145.82,1
100.00,148.20,1
114.00,148.54,1
76.00,147.21,1
159.00,144.85,1
80.00,142.18,1
127.00,139.12,1
102.00,135.80,1
129.00,132.59,1
117.00,129.71,1
59.00,126.72,1
239.00,124.18,1
184.00,124.14,1
48.00,125.42,1
115.00,125.51,1
153.00,125.00,1
246.00,125.98,1
112.00,128.83,1
81.00,131.29,1
117.00,132.04,1
97.00,131.66,1
58.00,130.07,1
143.00,127.51,1
240.00,126.18,1
146.00,127.36,1
198.00,130.07,1
88.00,133.04,1
100.00,134.82,1
190.00,135.67,1
79.00,136.46,1
61.00,135.92,1
53.00,133.12,1
65.00,128.52,1
145.00,123.48,1
48.00,118.89,1
132.00,114.56,1
52.00,110.49,1
55.00,106.15,1
331.00,103.43,1
135.00,104.96,1
60.00,108.11,1
41.00,109.38,1
130.00,108.96,1
53.00,107.98,1
60.00,106.09,1
215.00,104.36,1
286.00,106.01,1
230.00,112.20,1
158.00,120.67,1
146.00,128.84,1
207.00,136.23,1
264.00,144.15,1
127.00,152.53,1
55.00,158.59,1
274.00,162.17,1
444.00,168.20,1
199.00,178.51,1
69.00,187.98,1
91.00,192.47,1
113.00,192.50,1
56.00,189.17,1
198.00,183.86,1
131.00,178.56,1
247.00,174.48,1
48.00,171.18,1
63.00,166.36,1
98.00,159.42,1
248.00,153.08,1
100.00,148.93,1
79.00,145.22,1
152.00,140.98,1
120.00,137.26,1
80.00,133.79,1
55.00,129.50,1
78.00,124.18,1
328.00,120.49,1
205.00,121.51,1
102.00,125.25,1
277.00,129.63,1
189.00,135.70,1
203.00,142.91,1
109.00,149.48,1
131.00,154.09,1
350.00,158.45,1
49.00,163.80,1
234.00,168.09,1
187.00,171.61,1
53.00,174.07,1
74.00,173.23,1
167.00,169.92,1
182.00,166.66,1
164.00,164.42,1
291.00,163.94,1
40.00,164.65,1
55.00,163.27,1
88.00,158.78,1
96.00,152.80,1
125.00,146.55,1
130.00,140.90,1
166.00,136.49,1
211.00,134.20,1
183.00,134.38,1
123.00,135.86,1
96.00,136.83,1
80.00,136.31,1
37.00,133.83,1
503.00,132.96,1
195.00,138.12,1
139.00,145.99,1
180.00,152.54,1
209.00,158.33,1
128.00,163.50,1
39.00,166.17,1
71.00,164.98,1
45.00,160.44,1
157.00,154.30,1
156.00,148.79,1
125.00,144.60,1
298.00,142.46,1
63.00,142.61,1
82.00,142.19,1
241.00,141.03,1
87.00,140.88,1
108.00,140.42,1
77.00,138.58,1
138.00,135.89,1
291.00,134.68,1
229.00,137.14,1
121.00,141.66,1
178.00,145.77,1
85.00,148.73,1
133.00,150.03,1
193.00,150.54,1
104.00,151.11,1
363.00,152.85,1
42.00,156.35,1
181.00,159.04,1
162.00,160.50,1
50.00,160.89,1
127.00,159.09,1
84.00,155.65,1
141.00,151.49,1
216.00,148.14,1
212.00,147.17,1
100.00,147.70,1
88.00,147.33,1
252.00,146.55,1
160.00,147.33,1
50.00,148.20,1
68.00,146.69,1
109.00,143.14,1
100.00,138.90,1
47.00,134.01,1
238.00,129.43,1
122.00,127.00,1
64.00,125.47,1
127.00,123.28,1
134.00,121.27,1
116.00,119.96,1
403.00,121.36,1
172.00,127.44,1
230.00,135.93,1
181.00,144.63,1
114.00,152.29,1
130.00,157.54,1
160.00,160.73,1
150.00,162.80,1
145.00,164.00,1
352.00,166.05,1
55.00,169.58,1
174.00,171.92,1
67.00,171.88,1
75.00,169.30,1
176.00,164.98,1
104.00,160.63,1
116.00,156.14,1
197.00,151.97,1
155.00,149.27,1
200.00,148.13,1
91.00,147.71,1
118.00,146.64,1
133.00,144.78,1
87.00,142.46,1
136.00,139.64,1
398.00,139.14,1
218.00,143.76,1
193.00,151.01,1
290.00,158.92,1
119.00,167.07,1
70.00,172.69,1
101.00,174.23,1
65.00,172.44,1
189.00,168.82,1
118.00,165.11,1
289.00,162.75,1
207.00,163.05,1
97.00,164.49,1
275.00,165.74,1
68.00,167.13,1
152.00,167.32,1
46.00,165.39,1
162.00,161.82,1
250.00,158.87,1
56.00,157.32,1
58.00,154.42,1
56.00,148.99,1
49.00,141.75,1
254.00,134.94,1
134.00,131.00,1
50.00,128.42,1
129.00,125.22,1
123.00,122.21,1
88.00,119.71,1
115.00,117.27,1
90.00,114.91,1
91.00,112.51,1
134.00,110.32,1
155.00,109.26,1
156.00,109.79,1
141.00,111.61,1
128.00,113.98,1
233.00,117.22,1
61.00,121.22,1
90.00,123.92,1
126.00,124.90,1
130.00,125.42,1
142.00,126.03,1
82.00,126.43,1
198.00,126.72,1
62.00,127.21,1
154.00,127.32,1
44.00,126.61,1
122.00,124.88,1
135.00,122.94,1
132.00,121.73,1
69.00,120.65,1
200.00,119.73,1
367.00,121.95,1
91.00,128.13,1
102.00,133.97,1
80.00,137.09,1
127.00,138.14,1
104.00,138.00,1
243.00,138.11,1
53.00,138.94,1
230.00,139.76,1
114.00,140.94,1
150.00,142.20,1
83.00,142.56,1
146.00,141.93,1
44.00,140.22,1
112.00,137.13,1
74.00,133.08,1
272.00,130.00,1
86.00,129.18,1
186.00,129.50,1
78.00,129.89,1
79.00,129.37,1
144.00,127.84,1
98.00,126.30,1
99.00,124.58,1
189.00,123.16,1
123.00,122.98,1
103.00,123.23,1
212.00,123.81,1
86.00,125.23,1
69.00,125.90,1
54.00,124.55,1
145.00,122.06,1
52.00,119.41,1
129.00,116.56,1
92.00,113.87,1
181.00,112.15,1
51.00,111.32,1
114.00,110.29,1
46.00,108.54,1
127.00,106.37,1
86.00,104.40,1
137.00,103.05,1
167.00,102.99,1
67.00,103.98,1
59.00,104.27,1
87.00,103.28,1
91.00,101.79,1
144.00,100.71,1
79.00,100.35,1
137.00,100.38,1
68.00,100.57,1
108.00,100.54,1
99.00,100.36,1
70.00,100.00,1
132.00,99.49,1
74.00,99.19,1
112.00,98.93,1
82.00,98.59,1
106.00,98.23,1
111.00,98.06,1
66.00,97.95,1
135.00,97.75,1
180.00,98.63,1
88.00,100.86,1
56.00,102.63,1
203.00,103.90,1
56.00,105.72,1
90.00,106.96,1
106.00,107.17,1
99.00,107.10,1
99.00,106.84,1
99.00,106.37,1
99.00,105.78,1
106.00,105.15,1
108.00,104.67,1
71.00,104.09,1
49.00,102.67,1
64.00,100.10,1
40.00,96.62,1
54.00,92.38,1
114.00,88.27,1
119.00,85.55,1