71.00,56.97,1
52.00,57.42,1
57.00,57.78,1
84.00,58.22,1
40.00,58.82,1
78.00,59.33,1
53.00,59.81,1
86.00,60.44,1
40.00,61.11,1
36.00,61.26,1
78.00,60.92,1
81.00,60.91,1
40.00,61.20,1
70.00,61.30,1
38.00,61.16,1
54.00,60.68,1
58.00,59.99,1
136.00,60.02,1
87.00,61.51,1
61.00,63.67,1
84.00,65.63,1
74.00,67.46,1
47.00,68.92,1
45.00,69.51,1
89.00,69.53,1
69.00,69.67,1
268.00,71.57,1
280.00,77.99,1
217.00,88.97,1
499.00,104.38,1
1014.00,131.22,1
441.00,171.84,1
328.00,215.40,1
539.00,254.93,1
146.00,289.36,1
70.00,313.36,1
43.00,323.87,1
79.00,323.01,1
251.00,315.35,1
134.00,304.91,1
322.00,293.82,1
259.00,284.25,1
403.00,277.90,1
50.00,273.11,1
88.00,265.28,1
391.00,255.63,1
129.00,248.10,1
205.00,241.24,1
196.00,234.11,1
323.00,228.56,1
151.00,225.02,1
225.00,221.92,1
54.00,217.62,1
396.00,213.20,1
73.00,210.39,1
88.00,206.50,1
168.00,200.16,1
443.00,195.89,1
421.00,198.40,1
591.00,209.31,1
100.00,224.83,1
120.00,236.73,1
127.00,241.85,1
42.00,241.21,1
66.00,234.98,1
235.00,225.88,1
160.00,217.25,1
144.00,209.28,1
67.00,200.56,1
744.00,195.77,1
193.00,200.05,1
73.00,206.66,1
214.00,209.41,1
138.00,209.86,1
165.00,208.65,1
45.00,205.10,1
188.00,199.28,1
42.00,192.08,1
88.00,183.20,1
152.00,173.46,1
99.00,164.38,1
123.00,155.95,1
182.00,148.74,1
180.00,143.87,1
398.00,143.21,1
79.00,146.68,1
51.00,149.48,1
62.00,148.65,1
159.00,145.87,1
120.00,143.06,1
227.00,141.37,1
55.00,140.62,1
213.00,139.94,1
178.00,140.25,1
75.00,141.17,1
74.00,140.53,1
148.00,138.47,1
51.00,135.79,1
140.00,132.48,1
174.00,129.75,1
58.00,127.91,1
118.00,125.64,1
53.00,122.64,1
103.00,119.00,1
167.00,115.82,1
68.00,113.75,1
48.00,111.32,1
178.00,108.62,1
287.00,108.70,1
189.00,112.96,1
252.00,120.09,1
148.00,128.51,1
195.00,136.81,1
288.00,145.43,1
34.00,153.83,1
59.00,158.55,1
310.00,160.67,1
53.00,163.03,1
280.00,165.18,1
234.00,168.38,1
214.00,173.20,1
108.00,177.51,1
55.00,178.88,1
98.00,176.61,1
54.00,171.56,1
104.00,164.55,1
319.00,158.58,1
417.00,158.41,1
66.00,163.21,1
272.00,168.25,1
145.00,172.75,1
94.00,175.88,1
402.00,178.52,1
96.00,182.85,1
269.00,187.24,1
256.00,191.74,1
44.00,195.64,1
281.00,197.30,1
41.00,197.37,1
414.00,197.32,1
86.00,198.65,1
77.00,198.56,1
86.00,194.62,1
107.00,188.13,1
99.00,180.24,1
47.00,171.20,1
157.00,161.55,1
38.00,152.16,1
40.00,142.25,1
41.00,131.31,1
68.00,120.21,1
94.00,110.04,1
86.00,101.50,1
193.00,95.47,1
95.00,92.45,1
114.00,91.21,1
76.00,90.57,1
40.00,89.61,1
39.00,87.52,1
52.00,84.42,1
63.00,80.97,1
240.00,79.14,1
148.00,80.86,1
65.00,84.48,1
374.00,89.83,1
76.00,98.35,1
51.00,106.35,1
112.00,111.28,1
288.00,116.01,1
68.00,122.04,1
83.00,126.77,1
68.00,128.63,1
50.00,127.99,1
127.00,125.68,1
163.00,123.63,1
54.00,122.18,1
182.00,120.78,1
46.00,119.55,1
120.00,117.93,1
82.00,115.82,1
112.00,113.66,1
120.00,111.78,1
41.00,109.90,1
72.00,107.11,1
209.00,104.71,1
112.00,104.42,1
74.00,104.94,1
141.00,105.18,1
114.00,105.77,1
222.00,107.61,1
56.00,110.54,1
240.00,113.86,1
127.00,118.11,1
131.00,122.61,1
62.00,125.69,1
133.00,127.07,1
348.00,129.50,1
155.00,135.24,1
115.00,141.52,1
51.00,145.22,1
125.00,146.02,1
66.00,144.81,1
59.00,141.72,1
80.00,136.82,1
130.00,131.47,1
173.00,127.29,1
42.00,124.20,1
161.00,121.20,1
192.00,119.51,1
57.00,119.25,1
155.00,118.93,1
143.00,118.96,1
99.00,119.51,1
82.00,119.47,1
98.00,118.47,1
58.00,116.56,1
72.00,113.62,1
34.00,109.57,1
61.00,104.53,1
153.00,99.79,1
123.00,96.96,1
53.00,95.33,1
149.00,94.07,1
77.00,93.55,1
45.00,92.93,1
256.00,92.89,1
35.00,94.70,1
201.00,97.30,1
67.00,100.23,1
158.00,103.21,1
65.00,105.77,1
66.00,107.14,1
72.00,106.85,1
127.00,105.86,1
45.00,104.68,1
48.00,102.49,1
54.00,99.03,1
73.00,95.02,1
107.00,91.36,1
118.00,88.92,1
99.00,87.79,1
196.00,88.29,1
78.00,90.45,1
114.00,92.95,1
278.00,96.63,1
102.00,102.62,1
132.00,108.87,1
145.00,114.23,1
188.00,119.58,1
102.00,124.83,1
135.00,129.05,1
116.00,132.02,1
138.00,134.09,1
138.00,135.61,1
129.00,136.77,1
71.00,136.98,1
145.00,136.05,1
122.00,134.83,1
38.00,132.97,1
50.00,129.20,1
49.00,123.60,1
153.00,117.75,1
69.00,112.93,1
61.00,108.43,1
68.00,103.57,1
40.00,98.40,1
72.00,93.05,1
65.00,87.95,1
155.00,84.13,1
63.00,82.06,1
92.00,80.86,1
48.00,79.72,1
60.00,78.26,1
100.00,76.78,1
84.00,75.96,1
68.00,75.60,1
106.00,75.53,1
235.00,77.24,1
80.00,81.42,1
176.00,86.62,1
178.00,92.78,1
74.00,99.40,1
83.00,104.51,1
82.00,107.59,1
42.00,108.75,1
45.00,107.77,1
183.00,106.06,1
85.00,105.35,1
123.00,105.26,1
80.00,105.11,1
41.00,104.20,1
82.00,102.07,1
173.00,100.20,1
86.00,99.71,1
37.00,99.20,1
73.00,97.46,1
104.00,95.27,1
111.00,93.70,1
81.00,92.77,1
208.00,92.99,1
69.00,94.76,1
90.00,96.58,1
87.00,97.54,1
59.00,97.72,1
57.00,96.78,1
65.00,94.81,1
137.00,92.86,1
42.00,91.46,1
82.00,89.86,1
61.00,87.89,1
36.00,85.46,1
84.00,82.59,1
215.00,81.16,1
38.00,81.93,1
70.00,82.80,1
142.00,83.36,1
82.00,84.64,1
91.00,86.09,1
170.00,87.95,1
254.00,92.13,1
164.00,99.22,1
232.00,108.10,1
244.00,118.49,1
43.00,128.77,1
82.00,135.71,1
87.00,138.92,1
50.00,139.31,1
197.00,138.17,1
67.00,136.95,1
223.00,136.08,1
106.00,136.03,1
51.00,135.52,1
154.00,133.63,1
198.00,132.38,1
127.00,132.68,1
158.00,133.57,1
82.00,134.16,1
133.00,133.92,1
205.00,133.89,1
51.00,134.35,1
42.00,133.11,1
60.00,129.37,1
76.00,124.21,1
108.00,118.82,1
95.00,113.99,1
50.00,109.42,1
41.00,104.29,1
83.00,98.71,1
92.00,93.68,1
44.00,89.33,1
130.00,85.64,1
61.00,83.02,1
43.00,80.72,1
108.00,78.42,1
43.00,76.57,1
127.00,75.28,1
40.00,74.61,1
262.00,75.52,1
117.00,79.34,1
102.00,84.58,1
76.00,89.05,1
144.00,92.79,1
54.00,96.02,1
138.00,98.52,1
52.00,100.32,1
39.00,100.70,1
96.00,99.52,1
114.00,98.18,1
56.00,97.05,1
58.00,95.33,1
98.00,93.10,1
81.00,91.10,1
80.00,89.38,1
54.00,87.55,1
42.00,85.16,1
70.00,82.26,1
131.00,79.92,1
134.00,79.37,1
94.00,80.39,1
44.00,81.54,1
79.00,81.88,1
58.00,81.57,1
40.00,80.59,1
70.00,78.90,1
98.00,77.30,1
57.00,76.20,1
80.00,75.26,1
80.00,74.51,1
61.00,73.97,1
72.00,73.38,1
96.00,72.99,1
69.00,73.03,1
66.00,73.13,1
102.00,73.29,1
44.00,73.59,1
66.00,73.50,1
43.00,72.80,1
42.00,71.46,1
78.00,69.77,1
192.00,69.41,1
98.00,71.50,1
120.00,74.92,1
69.00,78.42,1
58.00,81.09,1
78.00,82.62,1
173.00,84.24,1
56.00,86.66,1
88.00,88.72,1
111.00,90.18,1
67.00,91.43,1
47.00,91.76,1
192.00,91.90,1
81.00,93.20,1
203.00,95.73,1
52.00,98.93,1
138.00,101.77,1
80.00,103.94,1
124.00,105.64,1
44.00,106.50,1
47.00,105.76,1
42.00,103.19,1
80.00,99.54,1
87.00,95.86,1
51.00,92.42,1
54.00,88.74,1
57.00,84.80,1
38.00,80.70,1
184.00,77.54,1
76.00,76.57,1
55.00,76.53,1
59.00,75.99,1
53.00,74.94,1
48.00,73.42,1
63.00,71.58,1
50.00,69.66,1
104.00,68.11,1
54.00,67.26,1
83.00,66.84,1
106.00,67.00,1
42.00,67.71,1
111.00,68.50,1
64.00,69.54,1
103.00,70.86,1
88.00,72.48,1
43.00,73.98,1
88.00,74.83,1
151.00,76.08,1
71.00,78.32,1
64.00,80.38,1
357.00,83.90,1
93.00,91.04,1
97.00,98.76,1
78.00,104.36,1
161.00,108.58,1
51.00,111.94,1
42.00,113.29,1
50.00,112.10,1
128.00,109.72,1
94.00,107.59,1
138.00,106.16,1
195.00,106.25,1
52.00,107.60,1
55.00,107.98,1
88.00,106.76,1
45.00,104.59,1
130.00,102.02,1
103.00,100.07,1
84.00,98.74,1
40.00,97.04,1
151.00,95.14,1
51.00,93.80,1
134.00,92.88,1
369.00,94.83,1
50.00,100.83,1
128.00,106.99,1
62.00,111.17,1
92.00,113.52,1
112.00,114.50,1
64.00,114.62,1
66.00,113.43,1
56.00,110.86,1
67.00,107.26,1
82.00,103.22,1
81.00,99.32,1
59.00,95.57,1
95.00,91.99,1
90.00,89.03,1
66.00,86.66,1
117.00,84.79,1
76.00,83.68,1
145.00,83.50,1
66.00,84.18,1
60.00,84.70,1
73.00,84.43,1
90.00,83.88,1
40.00,83.11,1
137.00,82.31,1
75.00,82.20,1
44.00,82.14,1
126.00,81.76,1
178.00,82.70,1
83.00,85.35,1
85.00,88.09,1
40.00,89.67,1
91.00,90.03,1
153.00,90.42,1
136.00,92.14,1
96.00,94.73,1
46.00,96.66,1
64.00,97.02,1
49.00,95.92,1
41.00,93.57,1
47.00,90.17,1
165.00,87.09,1
63.00,85.51,1
60.00,84.38,1
41.00,82.58,1
131.00,80.75,1
50.00,79.60,1
104.00,78.86,1
56.00,78.29,1
41.00,77.39,1
45.00,75.66,1
94.00,73.69,1
56.00,72.16,1
87.00,71.02,1
244.00,71.74,1
65.00,75.26,1
78.00,79.19,1
206.00,83.09,1
187.00,88.94,1
47.00,95.63,1
67.00,100.44,1
55.00,102.69,1
36.00,102.76,1
104.00,101.32,1
98.00,99.69,1
36.00,97.94,1
40.00,95.09,1
86.00,91.44,1
49.00,87.80,1
136.00,84.77,1
71.00,82.91,1
135.00,82.18,1
59.00,82.21,1
46.00,81.99,1
119.00,81.33,1
76.00,81.12,1
100.00,81.35,1
140.00,82.27,1
87.00,84.12,1
68.00,85.90,1
127.00,87.31,1
79.00,88.81,1
98.00,90.17,1
151.00,91.76,1
68.00,93.80,1
68.00,95.19,1
81.00,95.44,1
54.00,94.81,1
147.00,93.97,1
82.00,93.80,1
84.00,93.83,1
84.00,93.51,1
59.00,92.74,1
87.00,91.48,1
117.00,90.39,1
74.00,89.84,1
125.00,89.69,1
114.00,90.22,1
50.00,90.97,1
76.00,90.93,1
278.00,91.87,1
90.00,95.53,1
42.00,99.30,1
69.00,100.87,1
185.00,101.74,1
56.00,103.14,1
66.00,103.79,1
97.00,103.21,1
49.00,101.90,1
155.00,100.42,1
166.00,100.33,1
80.00,101.64,1
52.00,102.40,1
117.00,102.08,1
148.00,102.05,1
292.00,104.47,1
182.00,110.43,1
164.00,118.09,1
78.00,124.87,1
69.00,129.09,1
90.00,130.56,1
127.00,130.46,1
106.00,129.78,1
113.00,128.72,1
80.00,127.06,1
82.00,124.52,1
174.00,121.93,1
49.00,119.89,1
101.00,117.46,1
62.00,114.30,1
54.00,110.43,1
152.00,106.49,1
79.00,103.58,1
139.00,101.67,1
171.00,101.24,1
197.00,103.15,1
48.00,106.26,1
50.00,107.95,1
47.00,107.28,1
55.00,104.85,1
98.00,101.64,1
96.00,98.70,1
100.00,96.43,1
106.00,94.84,1
70.00,93.65,1
68.00,92.25,1
139.00,90.99,1
69.00,90.45,1
69.00,89.92,1
51.00,88.67,1
114.00,87.14,1
154.00,86.67,1
149.00,88.17,1
54.00,90.58,1
172.00,92.96,1
73.00,95.59,1
136.00,98.19,1
63.00,100.29,1
90.00,101.47,1
177.00,102.49,1
171.00,104.97,1
42.00,108.03,1
94.00,109.67,1
61.00,109.67,1
103.00,108.67,1
52.00,106.96,1
112.00,104.75,1
221.00,103.73,1
48.00,104.48,1
204.00,105.91,1
133.00,108.37,1
151.00,111.80,1
255.00,116.42,1
68.00,122.12,1
79.00,126.30,1
100.00,127.99,1
137.00,128.46,1
127.00,128.71,1
63.00,128.40,1
114.00,126.95,1
50.00,124.46,1
49.00,120.63,1
97.00,115.75,1
62.00,110.72,1
152.00,106.33,1
96.00,103.29,1
145.00,101.61,1
58.00,100.65,1
99.00,99.56,1
42.00,97.90,1
55.00,95.36,1
80.00,92.19,1
36.00,88.81,1
57.00,85.02,1
73.00,81.18,1
58.00,77.73,1
51.00,74.52,1
51.00,71.36,1
56.00,68.33,1
38.00,65.42,1
39.00,62.46,1
58.00,59.58,1
54.00,57.15,1
99.00,55.61,1
43.00,55.05,1
38.00,54.64,1
82.00,54.19,1
52.00,54.15,1
48.00,54.27,1
234.00,55.73,1
66.00,59.82,1
38.00,64.31,1
100.00,67.59,1
76.00,70.45,1
59.00,72.85,1
77.00,74.52,1
39.00,75.40,1
88.00,75.57,1
103.00,75.83,1
100.00,76.78,1
122.00,78.49,1
57.00,80.51,1
120.00,82.32,1
67.00,83.99,1
86.00,85.29,1
122.00,86.44,1
64.00,87.72,1
153.00,89.11,1
177.00,91.76,1
82.00,95.60,1
64.00,98.70,1
56.00,100.00,1
147.00,100.35,1
48.00,100.58,1
65.00,99.98,1
39.00,98.01,1
100.00,95.27,1
84.00,92.71,1
42.00,90.27,1
63.00,87.33,1
72.00,84.19,1
106.00,81.61,1
46.00,79.68,1
60.00,77.71,1
42.00,75.36,1
87.00,72.98,1
61.00,71.06,1
66.00,69.52,1
39.00,67.97,1
68.00,66.30,1
149.00,65.52,1
100.00,66.61,1
89.00,68.88,1
37.00,70.92,1
63.00,72.00,1
72.00,72.37,1
78.00,72.62,1
79.00,72.94,1
60.00,73.23,1
72.00,73.26,1
60.00,73.04,1
120.00,73.04,1
53.00,73.55,1
320.00,76.00,1
60.00,81.58,1
191.00,88.36,1
63.00,94.77,1
90.00,99.87,1
50.00,102.84,1
72.00,103.85,1
66.00,103.33,1
78.00,101.84,1
40.00,99.49,1
107.00,96.62,1
78.00,93.98,1
124.00,92.06,1
73.00,90.87,1
58.00,89.66,1
125.00,88.37,1
70.00,87.60,1
46.00,86.68,1
101.00,85.29,1
73.00,84.07,1
70.00,82.98,1
64.00,81.70,1
85.00,80.36,1
36.00,78.92,1
62.00,77.03,1
73.00,74.96,1
122.00,73.64,1
266.00,75.04,1
94.00,79.86,1
50.00,85.04,1
49.00,88.17,1
56.00,89.28,1
44.00,88.86,1
115.00,87.73,1
68.00,86.80,1
46.00,85.68,1
42.00,83.65,1
97.00,81.21,1
70.00,79.20,1
46.00,77.40,1
59.00,75.28,1
105.00,73.41,1
120.00,72.78,1
103.00,73.60,1
129.00,75.55,1
91.00,78.26,1
78.00,80.95,1
145.00,83.57,1
100.00,86.66,1
142.00,90.17,1
80.00,93.70,1
72.00,96.37,1
37.00,97.37,1
38.00,96.39,1
80.00,94.04,1
182.00,92.30,1
67.00,92.17,1
38.00,91.94,1
43.00,90.26,1
53.00,87.45,1
41.00,83.99,1
86.00,80.41,1
98.00,77.60,1
61.00,75.74,1
58.00,74.13,1
90.00,72.65,1
169.00,72.51,1
123.00,74.56,1
52.00,77.51,1
72.00,79.67,1
58.00,80.77,1
183.00,82.00,1
165.00,85.14,1
42.00,89.32,1
98.00,92.40,1
88.00,94.38,1
62.00,95.54,1
144.00,96.20,1
69.00,96.99,1
251.00,98.80,1
36.00,101.93,1
39.00,103.92,1
47.00,103.31,1
81.00,101.19,1
47.00,98.32,1
35.00,94.63,1
130.00,90.73,1
72.00,87.81,1
39.00,85.28,1
54.00,82.22,1
44.00,78.74,1
56.00,75.13,1
68.00,71.76,1
101.00,69.24,1
67.00,67.83,1
127.00,67.50,1
80.00,68.34,1
105.00,69.97,1
61.00,71.80,1
41.00,73.03,1
337.00,75.53,1
76.00,81.47,1
82.00,88.01,1
57.00,92.52,1
67.00,95.07,1
99.00,96.25,1
134.00,97.26,1
101.00,98.69,1
269.00,101.53,1
46.00,106.00,1
127.00,109.92,1
98.00,112.56,1
47.00,113.90,1
70.00,113.30,1
81.00,111.31,1
62.00,108.55,1
97.00,105.35,1
64.00,102.09,1
82.00,98.77,1
124.00,95.89,1
317.00,95.90,1
80.00,99.70,1
38.00,103.54,1
38.00,104.60,1
55.00,103.34,1
82.00,100.85,1
44.00,97.79,1
62.00,94.13,1
78.00,90.28,1
123.00,87.19,1
43.00,85.00,1
48.00,82.65,1
132.00,80.37,1
42.00,78.91,1
70.00,77.55,1
149.00,76.70,1
325.00,79.25,1
45.00,85.52,1
46.00,91.27,1
77.00,94.38,1
48.00,95.66,1
144.00,96.09,1
99.00,96.85,1
39.00,97.36,1
40.00,96.34,1
136.00,94.47,1
153.00,93.77,1
65.00,94.33,1
111.00,94.90,1
96.00,95.36,1
176.00,96.52,1
38.00,98.22,1
103.00,99.20,1
126.00,99.72,1
114.00,100.70,1
127.00,102.10,1
168.00,104.23,1
185.00,107.76,1
70.00,111.91,1
206.00,115.76,1
85.00,119.55,1
64.00,122.10,1
50.00,122.17,1
132.00,120.62,1
127.00,119.09,1
71.00,117.77,1
144.00,116.29,1
38.00,114.59,1
36.00,111.63,1
62.00,107.11,1
46.00,101.81,1
94.00,96.47,1
98.00,91.97,1
128.00,88.95,1
58.00,87.14,1
50.00,85.30,1
56.00,82.85,1
174.00,81.04,1
71.00,80.91,1
162.00,82.10,1
203.00,85.26,1
80.00,90.21,1
142.00,95.17,1
89.00,99.53,1
84.00,102.90,1
42.00,104.52,1
82.00,104.34,1
152.00,103.71,1
72.00,103.58,1
162.00,103.85,1
72.00,104.49,1
69.00,104.63,1
40.00,103.33,1
79.00,100.80,1
66.00,97.72,1
92.00,94.65,1
97.00,92.07,1
94.00,90.20,1
41.00,88.49,1
74.00,86.33,1
74.00,84.00,1
40.00,81.61,1
68.00,78.94,1
81.00,76.41,1
66.00,74.42,1
110.00,73.11,1
41.00,72.41,1
128.00,72.13,1
63.00,72.51,1
37.00,72.80,1
62.00,72.27,1
278.00,73.09,1
44.00,76.77,1
134.00,81.18,1
100.00,85.24,1
68.00,88.84,1
41.00,90.91,1
46.00,91.09,1
102.00,90.15,1
68.00,89.09,1
74.00,87.91,1
160.00,87.22,1
71.00,87.66,1
116.00,88.55,1
36.00,89.11,1
56.00,88.58,1
126.00,87.51,1
80.00,87.01,1
36.00,86.41,1
44.00,84.72,1
80.00,82.32,1
74.00,80.07,1
80.00,78.27,1
47.00,76.63,1
60.00,74.78,1
64.00,72.81,1
66.00,71.00,1
67.00,69.45,1
68.00,68.20,1
84.00,67.36,1
40.00,66.78,1
70.00,66.07,1
126.00,65.87,1
52.00,66.65,1
132.00,68.02,1
96.00,70.24,1
67.00,72.83,1
52.00,74.72,1
89.00,75.83,1
208.00,77.79,1
216.00,82.69,1
81.00,89.69,1
45.00,95.53,1
105.00,99.07,1
87.00,101.30,1
75.00,102.58,1
40.00,102.44,1
139.00,101.37,1
100.00,100.66,1
60.00,100.10,1
82.00,98.85,1
146.00,97.69,1
106.00,97.54,1
46.00,97.55,1
127.00,97.01,1
45.00,96.24,1
69.00,94.85,1
44.00,92.52,1
37.00,89.28,1
86.00,85.56,1
110.00,82.53,1
85.00,80.74,1
54.00,79.47,1
58.00,77.95,1
67.00,76.18,1
85.00,74.60,1
56.00,73.36,1
63.00,72.14,1
231.00,72.25,1
44.00,74.65,1
73.00,77.25,1
115.00,79.20,1
46.00,80.94,1
44.00,81.65,1
88.00,81.32,1
75.00,80.81,1
80.00,80.39,1
103.00,80.20,1
83.00,80.46,1
35.00,80.51,1
102.00,79.99,1
84.00,79.62,1
47.00,79.33,1
82.00,78.63,1
127.00,78.29,1
101.00,79.07,1
56.00,80.23,1
60.00,80.71,1
74.00,80.47,1
87.00,80.06,1
129.00,80.21,1
146.00,81.76,1
45.00,84.09,1
165.00,86.40,1
76.00,89.02,1
126.00,91.74,1
158.00,94.79,1
188.00,99.20,1
45.00,104.07,1
102.00,107.47,1
62.00,109.07,1
72.00,109.12,1
70.00,107.85,1
108.00,105.96,1
106.00,104.27,1
114.00,103.12,1
92.00,102.36,1
80.00,101.52,1
126.00,100.65,1
76.00,100.03,1
104.00,99.41,1
87.00,98.72,1
39.00,97.55,1
48.00,95.19,1
53.00,91.79,1
37.00,87.74,1
85.00,83.52,1
170.00,80.68,1
90.00,80.12,1
63.00,80.46,1
37.00,80.14,1
178.00,79.85,1
44.00,80.61,1
41.00,81.06,1
116.00,80.72,1
41.00,80.39,1
70.00,79.69,1
83.00,78.71,1
221.00,79.14,1
58.00,81.67,1
84.00,84.37,1
38.00,85.81,1
96.00,86.19,1
66.00,86.07,1
76.00,85.65,1
100.00,85.12,1
99.00,85.01,1
95.00,85.37,1
55.00,85.66,1
45.00,85.13,1
124.00,84.12,1
59.00,83.49,1
138.00,83.39,1
47.00,83.72,1
79.00,83.78,1
55.00,83.20,1
154.00,82.84,1
48.00,83.23,1
122.00,83.85,1
204.00,85.66,1
70.00,89.18,1
90.00,92.49,1
149.00,95.24,1
39.00,97.72,1
218.00,100.04,1
42.00,102.78,1
39.00,104.26,1
82.00,103.60,1
74.00,101.97,1
47.00,99.65,1
43.00,96.33,1
81.00,92.40,1
53.00,88.48,1
92.00,84.88,1
83.00,81.99,1
328.00,81.94,1
70.00,85.91,1
104.00,90.82,1
94.00,94.62,1
77.00,97.41,1
39.00,98.69,1
38.00,97.97,1
77.00,95.76,1
72.00,93.09,1
62.00,90.32,1
65.00,87.37,1
85.00,84.54,1
72.00,82.12,1
111.00,80.39,1
108.00,79.75,1
327.00,82.05,1
38.00,87.77,1
141.00,93.72,1
123.00,98.80,1
161.00,103.94,1
112.00,109.01,1
104.00,113.30,1
119.00,116.44,1
68.00,118.35,1
48.00,118.38,1
142.00,116.99,1
36.00,115.11,1
61.00,112.14,1
46.00,107.82,1
135.00,103.35,1
108.00,100.04,1
90.00,97.87,1
98.00,96.18,1
84.00,94.77,1
37.00,93.07,1
87.00,90.72,1
87.00,88.40,1
41.00,86.21,1
69.00,83.66,1
54.00,80.88,1
49.00,77.95,1
64.00,74.93,1
37.00,71.93,1
113.00,69.34,1
87.00,67.97,1
43.00,67.41,1
228.00,68.09,1
83.00,71.17,1
75.00,75.03,1
66.00,77.95,1
187.00,80.86,1
75.00,84.66,1
92.00,88.29,1
251.00,92.36,1
116.00,98.27,1
72.00,104.10,1
167.00,108.60,1
42.00,112.13,1
180.00,114.67,1
191.00,117.71,1
174.00,122.22,1
83.00,126.74,1
55.00,129.23,1
66.00,129.00,1
144.00,127.28,1
77.00,125.32,1
105.00,123.01,1
52.00,119.99,1
119.00,116.43,1
60.00,112.76,1
86.00,108.92,1
143.00,105.51,1
177.00,103.99,1
118.00,104.49,1
119.00,105.82,1
151.00,107.53,1
154.00,110.02,1
133.00,113.18,1
205.00,117.02,1
42.00,120.91,1
186.00,123.79,1
133.00,126.40,1
135.00,129.06,1
118.00,131.12,1
112.00,132.34,1
91.00,132.47,1
122.00,131.61,1
99.00,130.19,1
62.00,127.96,1
99.00,124.70,1
188.00,121.79,1
166.00,120.87,1
98.00,121.28,1
108.00,121.46,1
80.00,120.83,1
56.00,119.04,1
72.00,115.90,1
89.00,112.08,1
94.00,108.31,1
66.00,104.69,1
66.00,100.89,1
138.00,97.44,1
124.00,95.46,1
75.00,94.62,1
50.00,93.53,1
87.00,91.77,1
118.00,90.23,1
59.00,89.23,1
116.00,88.43,1
38.00,87.62,1
110.00,86.61,1
153.00,86.37,1
191.00,88.38,1
331.00,94.16,1
109.00,103.38,1
133.00,112.62,1
164.00,120.36,1
214.00,127.86,1
148.00,135.45,1
105.00,141.83,1
98.00,145.76,1
38.00,146.68,1
255.00,146.08,1
37.00,145.63,1
54.00,143.62,1
169.00,139.94,1
36.00,136.06,1
68.00,131.16,1
46.00,124.88,1
104.00,118.15,1
262.00,113.40,1
199.00,112.93,1
82.00,114.98,1
173.00,117.17,1
191.00,120.08,1
46.00,123.30,1
186.00,125.54,1
76.00,127.17,1
231.00,128.91,1
136.00,131.53,1
270.00,135.57,1
116.00,140.71,1
44.00,144.48,1
72.00,144.83,1
125.00,142.88,1
85.00,140.04,1
195.00,137.30,1
149.00,135.85,1
162.00,135.67,1
91.00,135.71,1
358.00,137.06,1
55.00,140.68,1
58.00,143.13,1
89.00,142.41,1
111.00,140.02,1
103.00,136.99,1
269.00,135.00,1
60.00,134.85,1
112.00,134.41,1
133.00,133.08,1
134.00,131.90,1
194.00,131.57,1
46.00,131.66,1
173.00,131.17,1
119.00,130.69,1
133.00,130.49,1
235.00,131.17,1
214.00,134.12,1
134.00,138.55,1
157.00,142.61,1
36.00,144.97,1
113.00,144.78,1
75.00,142.64,1
84.00,139.14,1
160.00,135.20,1
82.00,131.76,1
127.00,128.51,1
66.00,125.11,1
136.00,121.65,1
88.00,118.52,1
107.00,115.69,1
39.00,112.53,1
127.00,108.97,1
134.00,106.19,1
79.00,104.50,1
78.00,102.81,1
57.00,100.54,1
631.00,102.29,1
77.00,111.84,1
145.00,123.09,1
176.00,132.06,1
78.00,139.25,1
45.00,143.22,1
88.00,143.63,1
555.00,145.63,1
184.00,153.72,1
71.00,163.01,1
39.00,167.65,1
89.00,167.63,1
97.00,164.68,1
200.00,160.98,1
207.00,158.68,1
483.00,160.73,1
159.00,168.06,1
70.00,175.28,1
64.00,177.99,1
91.00,176.52,1
154.00,172.84,1
76.00,168.25,1
222.00,163.55,1
345.00,161.73,1
253.00,164.60,1
152.00,169.64,1
217.00,174.26,1
254.00,178.96,1
204.00,184.30,1
119.00,188.71,1
185.00,190.99,1
116.00,191.40,1
78.00,189.49,1
44.00,184.32,1
169.00,177.06,1
43.00,169.19,1
72.00,160.32,1
69.00,150.37,1
99.00,140.38,1
201.00,132.02,1
60.00,125.94,1
285.00,122.17,1
331.00,123.25,1
81.00,128.55,1
45.00,132.78,1
136.00,134.12,1
251.00,135.40,1
132.00,138.26,1
64.00,140.66,1
97.00,140.76,1
274.00,140.58,1
192.00,142.73,1
88.00,145.81,1
287.00,148.75,1
273.00,153.81,1
59.00,159.96,1
141.00,163.75,1
169.00,165.43,1
111.00,166.11,1
182.00,165.86,1
218.00,165.92,1
38.00,165.90,1
301.00,165.31,1
40.00,165.01,1
175.00,163.93,1
118.00,161.90,1
36.00,158.67,1
162.00,153.87,1
112.00,149.03,1
170.00,145.02,1
127.00,141.97,1
104.00,139.33,1
53.00,135.89,1
135.00,131.65,1
112.00,127.66,1
132.00,124.48,1
322.00,123.71,1
88.00,126.20,1
50.00,128.45,1
40.00,127.80,1
175.00,125.60,1
152.00,124.26,1
56.00,123.56,1
54.00,121.56,1
124.00,118.38,1
54.00,114.99,1
76.00,111.16,1
64.00,106.80,1
169.00,103.04,1
174.00,101.53,1
344.00,104.16,1
90.00,110.63,1
241.00,118.22,1
45.00,125.19,1
49.00,129.46,1
71.00,130.21,1
75.00,128.66,1
128.00,126.09,1
127.00,123.76,1
80.00,121.72,1
140.00,119.67,1
135.00,118.24,1
77.00,117.27,1
84.00,115.74,1
75.00,113.39,1
130.00,110.86,1
259.00,110.19,1
203.00,113.13,1
179.00,118.64,1
71.00,124.12,1
111.00,127.74,1
223.00,130.52,1
51.00,133.35,1
114.00,134.70,1
240.00,135.55,1
234.00,138.58,1
160.00,143.50,1
44.00,147.44,1
122.00,148.60,1
84.00,147.62,1
102.00,145.23,1
49.00,141.39,1
255.00,137.56,1
38.00,135.03,1
62.00,131.90,1
53.00,126.89,1
103.00,121.14,1
201.00,116.56,1
107.00,114.28,1
113.00,113.13,1
38.00,111.60,1
38.00,108.59,1
107.00,104.53,1
65.00,100.60,1
297.00,98.72,1
58.00,99.98,1
279.00,103.35,1
129.00,108.66,1
131.00,114.64,1
130.00,119.70,1
57.00,123.29,1
60.00,124.43,1
132.00,123.74,1
77.00,122.44,1
70.00,120.35,1
156.00,117.86,1
63.00,115.74,1
116.00,113.60,1
53.00,111.09,1
67.00,107.90,1
118.00,104.43,1
46.00,101.22,1
105.00,98.04,1
90.00,95.24,1
112.00,93.25,1
97.00,92.05,1
255.00,92.73,1
130.00,96.29,1
74.00,100.68,1
46.00,103.36,1
71.00,103.95,1
79.00,103.15,1
145.00,102.23,1
62.00,101.72,1
109.00,101.08,1
197.00,101.21,1
132.00,103.22,1
108.00,106.04,1
102.00,108.39,1
92.00,109.94,1
63.00,110.36,1
74.00,109.43,1
39.00,107.18,1
438.00,106.80,1
121.00,111.60,1
43.00,117.55,1
80.00,120.58,1
127.00,121.60,1
38.00,121.43,1
236.00,120.91,1
270.00,122.96,1
73.00,127.51,1
127.00,131.24,1
35.00,132.72,1
304.00,133.60,1
65.00,135.71,1
91.00,137.15,1
102.00,136.61,1
65.00,134.62,1
46.00,130.96,1
66.00,125.69,1
39.00,119.31,1
317.00,114.33,1
98.00,113.12,1
81.00,113.38,1
183.00,113.50,1
161.00,114.86,1
59.00,116.77,1
64.00,117.18,1
36.00,115.47,1
158.00,112.76,1
102.00,110.74,1
88.00,109.26,1
99.00,107.64,1
127.00,106.26,1
39.00,104.94,1
157.00,103.46,1
114.00,102.78,1
202.00,103.73,1
75.00,105.93,1
42.00,107.34,1
56.00,106.63,1
41.00,104.17,1
82.00,100.66,1
65.00,96.89,1
49.00,92.98,1
142.00,89.45,1
75.00,87.18,1
77.00,85.63,1
78.00,84.15,1
85.00,82.88,1
108.00,82.12,1
129.00,82.40,1
113.00,83.85,1
63.00,85.64,1
73.00,86.75,1
160.00,87.77,1
36.00,89.20,1
55.00,89.71,1
94.00,89.10,1
42.00,88.05,1
71.00,86.40,1
131.00,84.89,1
87.00,84.42,1
116.00,84.75,1
57.00,85.31,1
95.00,85.60,1
166.00,86.40,1
41.00,88.03,1
67.00,88.96,1
328.00,90.87,1
74.00,95.91,1
60.00,101.02,1
115.00,104.12,1
209.00,107.15,1
73.00,110.93,1
179.00,114.56,1
88.00,117.81,1
62.00,119.83,1
148.00,120.37,1
141.00,120.93,1
143.00,122.09,1
95.00,123.25,1
130.00,123.89,1
41.00,123.55,1
68.00,121.49,1
53.00,117.81,1
59.00,113.05,1
177.00,108.56,1
64.00,105.51,1
143.00,103.41,1
157.00,102.60,1
78.00,103.01,1
36.00,102.80,1
78.00,101.10,1
117.00,99.02,1
92.00,97.51,1
152.00,96.88,1
106.00,97.35,1
47.00,97.89,1
127.00,97.76,1
121.00,97.92,1
81.00,98.53,1
63.00,98.59,1
105.00,97.95,1
58.00,96.95,1
74.00,95.43,1
103.00,93.66,1
90.00,92.28,1
40.00,90.85,1
42.00,88.49,1
143.00,85.99,1
106.00,84.83,1
100.00,84.92,1
87.00,85.43,1
76.00,85.89,1
68.00,85.93,1
83.00,85.56,1
36.00,84.67,1
127.00,83.54,1
38.00,82.62,1
215.00,82.65,1
50.00,84.22,1
40.00,85.57,1
82.00,85.51,1
126.00,85.36,1
52.00,85.62,1
68.00,85.45,1
171.00,85.46,1
99.00,86.86,1
75.00,88.73,1
64.00,89.80,1
58.00,89.79,1
142.00,89.48,1
45.00,89.49,1
90.00,89.19,1
226.00,89.76,1
81.00,92.38,1
70.00,95.10,1
44.00,96.19,1
177.00,96.60,1
118.00,97.99,1
96.00,100.02,1
50.00,101.22,1
46.00,100.79,1
91.00,99.03,1
84.00,97.00,1
109.00,95.30,1
162.00,94.69,1
291.00,97.09,1
84.00,102.57,1
39.00,107.46,1
40.00,109.27,1
126.00,109.06,1
80.00,108.35,1
65.00,107.13,1
39.00,104.72,1
65.00,101.14,1
95.00,97.26,1
39.00,93.52,1
227.00,90.89,1
49.00,90.37,1
224.00,91.53,1
68.00,94.06,1
87.00,96.57,1
140.00,98.44,1
46.00,100.02,1
136.00,100.95,1
59.00,101.43,1
206.00,102.25,1
164.00,104.75,1
66.00,108.15,1
62.00,110.12,1
123.00,110.56,1
143.00,110.97,1
127.00,112.04,1
165.00,113.80,1
50.00,115.57,1
128.00,116.33,1
68.00,116.15,1
56.00,114.82,1
61.00,111.99,1
91.00,108.35,1
87.00,104.73,1
160.00,102.03,1
130.00,101.05,1
70.00,101.03,1
121.00,100.90,1
39.00,100.36,1
84.00,98.97,1
85.00,97.05,1
59.00,94.97,1
127.00,92.97,1
158.00,92.29,1
68.00,92.95,1
144.00,93.99,1
168.00,96.03,1
149.00,99.61,1
118.00,103.85,1
43.00,107.18,1
91.00,108.59,1
161.00,109.26,1
64.00,110.10,1
127.00,110.54,1
60.00,110.34,1
38.00,108.91,1
83.00,106.01,1
158.00,103.29,1
52.00,101.54,1
96.00,99.81,1
52.00,97.64,1
129.00,95.48,1
74.00,93.85,1
110.00,92.71,1
110.00,92.12,1
66.00,91.90,1
81.00,91.36,1
96.00,90.61,1
86.00,90.01,1
127.00,89.84,1
46.00,89.94,1
118.00,89.82,1
91.00,89.85,1
186.00,90.91,1
111.00,93.46,1
61.00,96.18,1
134.00,98.11,1
40.00,99.37,1
266.00,101.03,1
64.00,104.19,1
90.00,107.15,1
42.00,108.22,1
41.00,107.23,1
59.00,104.41,1
121.00,101.14,1
59.00,98.28,1
85.00,95.54,1
128.00,93.24,1
131.00,92.34,1
51.00,92.24,1
63.00,91.57,1
40.00,89.81,1
99.00,87.50,1
111.00,85.74,1
50.00,84.65,1
54.00,83.20,1
107.00,81.54,1
70.00,80.38,1
176.00,80.34,1
95.00,81.93,1
110.00,84.37,1
123.00,87.06,1
43.00,89.52,1
114.00,91.10,1
107.00,92.41,1
112.00,93.99,1
127.00,95.87,1
138.00,98.30,1
85.00,100.93,1
50.00,102.55,1
88.00,102.65,1
76.00,101.81,1
91.00,100.54,1
95.00,99.17,1
39.00,97.50,1
68.00,95.00,1
171.00,92.82,1
71.00,92.07,1
41.00,91.38,1
81.00,89.78,1
81.00,87.94,1
86.00,86.35,1
46.00,84.76,1
87.00,82.94,1
84.00,81.33,1
100.00,80.35,1
120.00,80.30,1
100.00,81.24,1
144.00,83.11,1
149.00,86.21,1
67.00,89.93,1
50.00,92.53,1
149.00,94.05,1
69.00,95.55,1
55.00,96.34,1
109.00,96.14,1
38.00,95.38,1
109.00,94.08,1
75.00,92.71,1
41.00,91.09,1
150.00,89.38,1
151.00,89.21,1
52.00,90.29,1
112.00,91.16,1
181.00,92.59,1
68.00,95.11,1
117.00,97.46,1
232.00,100.44,1
48.00,104.60,1
36.00,107.30,1
99.00,107.62,1
109.00,107.13,1
127.00,106.89,1
151.00,107.41,1
147.00,109.04,1
114.00,111.30,1
41.00,112.76,1
54.00,112.18,1
103.00,110.11,1
126.00,108.09,1
94.00,106.70,1
78.00,105.35,1
39.00,103.23,1
195.00,101.10,1
39.00,100.01,1
140.00,99.29,1
88.00,98.83,1
96.00,98.62,1
69.00,98.08,1
178.00,97.84,1
73.00,98.54,1
105.00,99.37,1
42.00,99.39,1
45.00,98.04,1
34.00,95.14,1
114.00,91.65,1
37.00,88.44,1
110.00,85.54,1
62.00,83.14,1
124.00,81.54,1
66.00,80.73,1
36.00,79.87,1
97.00,78.50,1
53.00,77.20,1
77.00,75.98,1
110.00,75.16,1
48.00,74.91,1
54.00,74.38,1
41.00,73.14,1
184.00,72.43,1
200.00,74.52,1
96.00,79.32,1
225.00,85.44,1
160.00,93.11,1
39.00,100.71,1
36.00,105.40,1
38.00,106.70,1
73.00,105.64,1
196.00,104.49,1
107.00,104.90,1
46.00,105.52,1
163.00,105.49,1
48.00,105.45,1
56.00,104.52,1
42.00,102.03,1
223.00,99.76,1
168.00,100.19,1
88.00,102.56,1
119.00,104.80,1
101.00,106.57,1
104.00,107.90,1
133.00,109.00,1
59.00,109.77,1
81.00,109.46,1
186.00,108.97,1
92.00,109.50,1
105.00,110.21,1
220.00,111.42,1
185.00,114.71,1
207.00,120.05,1
50.00,125.51,1
71.00,128.62,1
173.00,129.73,1
59.00,130.22,1
101.00,129.52,1
40.00,127.19,1
43.00,123.05,1
297.00,119.34,1
76.00,118.46,1
78.00,118.25,1
128.00,117.15,1
193.00,116.79,1
87.00,117.63,1
53.00,117.85,1
46.00,116.09,1
126.00,113.15,1
207.00,111.35,1
113.00,111.70,1
78.00,112.51,1
91.00,112.37,1
82.00,111.38,1
45.00,109.41,1
68.00,106.28,1
52.00,102.31,1
83.00,98.01,1
44.00,93.67,1
183.00,90.20,1
75.00,88.60,1
68.00,87.78,1
69.00,86.57,1
119.00,85.47,1
37.00,84.65,1
81.00,83.50,1
48.00,81.90,1
73.00,80.04,1
57.00,78.05,1
175.00,76.95,1
50.00,77.34,1
105.00,78.22,1
63.00,78.98,1
61.00,79.36,1
62.00,79.06,1
92.00,78.51,1
37.00,77.84,1
64.00,76.65,1
40.00,74.91,1
46.00,72.67,1
75.00,70.27,1
79.00,68.40,1
101.00,67.49,1
150.00,68.13,1
34.00,69.97,1
70.00,71.43,1
62.00,72.13,1
139.00,73.03,1
123.00,75.13,1
71.00,78.01,1
69.00,80.38,1
58.00,81.73,1
96.00,82.38,1
44.00,82.57,1
117.00,82.47,1
57.00,82.44,1
70.00,82.18,1
64.00,81.42,1
43.00,80.15,1
130.00,78.84,1
62.00,78.25,1
36.00,77.62,1
108.00,76.57,1
55.00,75.78,1
95.00,75.26,1
55.00,74.86,1
51.00,74.20,1
45.00,72.90,1
60.00,71.17,1
50.00,69.28,1
51.00,67.29,1
71.00,65.39,1
247.00,65.46,1
81.00,68.69,1
45.00,72.63,1
259.00,76.77,1
90.00,82.80,1
60.00,88.78,1
70.00,92.69,1
43.00,94.59,1
131.00,95.27,1
116.00,96.12,1
104.00,97.45,1
67.00,98.47,1
114.00,98.89,1
98.00,99.20,1
129.00,99.78,1
239.00,101.85,1
57.00,105.57,1
56.00,108.28,1
51.00,108.57,1
166.00,107.87,1
142.00,108.11,1
319.00,111.06,1
36.00,116.39,1
62.00,120.33,1
281.00,122.99,1
213.00,127.88,1
65.00,133.76,1
150.00,137.88,1
88.00,140.19,1
60.00,140.50,1
43.00,138.15,1
88.00,133.73,1
65.00,128.31,1
121.00,122.74,1
77.00,117.62,1
142.00,113.29,1
49.00,109.64,1
113.00,106.16,1
99.00,103.10,1
82.00,100.61,1
169.00,98.96,1
132.00,99.00,1
37.00,99.65,1
77.00,99.17,1
169.00,98.51,1
147.00,99.40,1
68.00,101.18,1
59.00,102.01,1
214.00,102.58,1
70.00,104.23,1
115.00,105.92,1
46.00,106.56,1
84.00,105.92,1
127.00,104.75,1
63.00,103.71,1
49.00,101.99,1
112.00,99.55,1
258.00,98.80,1
40.00,100.50,1
40.00,101.58,1
115.00,100.99,1
53.00,99.88,1
97.00,98.35,1
238.00,97.96,1
212.00,100.92,1
94.00,106.12,1
134.00,110.98,1
76.00,114.62,1
66.00,116.50,1
62.00,116.29,1
48.00,114.25,1
369.00,113.27,1
79.00,116.00,1
179.00,120.06,1
127.00,123.84,1
71.00,126.78,1
100.00,127.86,1
127.00,127.74,1
60.00,126.84,1
65.00,124.53,1
50.00,120.64,1
56.00,115.49,1
164.00,110.45,1
113.00,107.09,1
180.00,105.73,1
37.00,105.42,1
89.00,104.54,1
66.00,102.72,1
48.00,100.16,1
55.00,96.69,1
98.00,92.97,1
70.00,89.72,1
38.00,86.56,1
64.00,83.02,1
249.00,81.02,1
182.00,82.97,1
121.00,87.80,1
45.00,92.46,1
44.00,95.04,1
58.00,95.40,1
36.00,94.14,1
55.00,91.61,1
89.00,88.59,1
60.00,85.79,1
43.00,82.91,1
61.00,79.69,1
143.00,77.16,1
49.00,75.97,1
52.00,74.98,1
73.00,73.60,1
74.00,72.38,1
36.00,71.17,1
90.00,69.86,1
156.00,69.63,1
195.00,72.09,1
98.00,76.90,1
66.00,81.80,1
89.00,85.45,1
127.00,88.46,1
241.00,92.67,1
76.00,98.47,1
367.00,105.92,1
47.00,115.18,1
123.00,123.24,1
69.00,128.28,1
124.00,131.06,1
71.00,132.04,1
59.00,131.10,1
109.00,128.51,1
99.00,125.38,1
60.00,121.89,1
43.00,117.35,1
38.00,111.51,1
93.00,105.12,1
58.00,99.12,1
62.00,93.52,1
248.00,89.73,1
137.00,89.63,1
54.00,91.38,1
193.00,93.30,1
66.00,95.87,1
58.00,97.81,1
311.00,100.12,1
122.00,105.21,1
81.00,110.89,1
96.00,114.67,1
59.00,116.49,1
120.00,116.77,1
101.00,116.42,1
52.00,115.40,1
189.00,114.06,1
127.00,113.88,1
41.00,113.98,1
62.00,112.52,1
73.00,109.65,1
136.00,106.69,1
139.00,104.90,1
37.00,103.81,1
105.00,102.19,1
50.00,100.03,1
44.00,97.14,1
50.00,93.26,1
113.00,89.36,1
121.00,86.73,1
137.00,85.92,1
118.00,86.73,1
89.00,88.30,1
84.00,89.71,1
59.00,90.43,1
129.00,90.72,1
122.00,91.58,1
68.00,92.86,1
59.00,93.38,1
76.00,92.83,1
120.00,92.09,1
132.00,92.19,1
198.00,94.04,1
114.00,97.65,1
95.00,101.47,1
44.00,103.88,1
96.00,104.59,1
85.00,104.32,1
68.00,103.42,1
44.00,101.50,1
74.00,98.58,1
276.00,96.99,1
84.00,98.47,1
46.00,100.40,1
66.00,100.51,1
86.00,99.45,1
126.00,98.35,1
85.00,97.77,1
117.00,97.51,1
77.00,97.36,1
87.00,96.98,1
52.00,95.99,1
75.00,94.25,1
156.00,92.78,1
96.00,92.59,1
69.00,92.84,1
58.00,92.36,1
70.00,91.04,1
123.00,89.69,1
152.00,89.57,1
184.00,91.60,1
94.00,95.18,1
74.00,98.45,1
38.00,99.98,1
115.00,100.03,1
56.00,99.43,1
122.00,98.57,1
38.00,97.45,1
79.00,95.67,1
59.00,93.26,1
148.00,91.20,1
46.00,89.94,1
62.00,88.49,1
58.00,86.35,1
52.00,83.78,1
104.00,81.24,1
97.00,79.58,1
162.00,79.49,1
66.00,80.85,1
136.00,82.77,1
105.00,85.15,1
61.00,87.52,1
79.00,88.95,1
56.00,89.37,1
88.00,89.03,1
72.00,88.34,1
81.00,87.48,1
166.00,87.24,1
43.00,87.95,1
116.00,88.62,1
54.00,88.92,1
42.00,88.41,1
78.00,86.87,1
67.00,85.03,1
55.00,83.02,1
111.00,81.13,1
42.00,79.64,1
38.00,77.81,1
182.00,76.32,1
138.00,77.14,1
38.00,79.32,1
67.00,80.68,1
81.00,81.14,1
63.00,81.21,1
143.00,81.49,1
52.00,82.31,1
97.00,83.07,1
184.00,84.46,1
78.00,87.21,1
113.00,90.17,1
84.00,92.65,1
61.00,94.28,1
95.00,94.89,1
60.00,94.78,1
116.00,94.29,1
137.00,94.35,1
199.00,96.18,1
59.00,99.31,1
42.00,101.37,1
179.00,102.22,1
126.00,103.85,1
42.00,105.56,1
207.00,106.82,1
44.00,108.38,1
160.00,109.75,1
47.00,110.55,1
278.00,111.91,1
70.00,114.82,1
129.00,117.76,1
80.00,119.46,1
96.00,119.99,1
64.00,119.18,1
179.00,117.95,1
122.00,117.62,1
134.00,118.10,1
150.00,119.03,1
194.00,121.01,1
192.00,124.56,1
45.00,128.30,1
168.00,130.60,1
44.00,131.53,1
146.00,131.21,1
66.00,129.93,1
150.00,128.19,1
271.00,127.92,1
89.00,129.97,1
75.00,131.56,1
260.00,132.54,1
45.00,134.21,1
118.00,134.90,1
83.00,133.98,1
73.00,131.79,1
219.00,129.46,1
196.00,129.27,1
152.00,131.18,1
244.00,134.45,1
35.00,138.07,1
298.00,141.31,1
117.00,145.30,1
115.00,148.88,1
78.00,150.16,1
46.00,148.77,1
160.00,145.49,1
168.00,142.60,1
107.00,140.68,1
40.00,138.04,1
57.00,133.46,1
83.00,127.50,1
41.00,120.92,1
49.00,113.68,1
34.00,105.84,1
40.00,97.65,1
35.00,89.42,1
34.00,81.39,1
34.00,73.72,1
37.00,66.60,1
35.00,60.16,1
34.00,54.45,1
37.00,49.47,1
36.00,45.24,1
36.00,41.72,1
36.00,38.87,1
36.00,36.60,1
36.00,34.86,1
38.00,33.60,1
35.00,32.75,1
35.00,32.20,1
36.00,31.89,1
36.00,31.78,1
42.00,31.89,1
36.00,32.21,1
41.00,32.67,1
43.00,33.28,1
44.00,34.06,1
48.00,35.00,1
44.00,36.09,1
37.00,37.15,1
43.00,38.06,1
39.00,38.83,1
52.00,39.56,1
35.00,40.28,1
57.00,40.98,1
40.00,41.72,1
40.00,42.36,1
35.00,42.73,1
48.00,42.91,1
34.00,42.98,1
44.00,42.94,1
49.00,42.91,1
42.00,42.98,1
53.00,43.15,1
39.00,43.41,1
47.00,43.63,1
53.00,43.90,1
38.00,44.23,1
36.00,44.39,1
32.00,44.20,1
35.00,43.72,1
35.00,43.03,1
36.00,42.25,1
35.00,41.43,1
37.00,40.62,1
35.00,39.85,1
42.00,39.17,1
36.00,38.65,1
35.00,38.21,1
38.00,37.80,1
36.00,37.45,1
37.00,37.16,1
39.00,36.95,1
37.00,36.82,1
35.00,36.73,1
35.00,36.62,1
35.00,36.48,1
40.00,36.37,1
36.00,36.33,1
38.00,36.34,1
35.00,36.36,1
38.00,36.38,1
36.00,36.41,1
37.00,36.44,1
36.00,36.47,1
38.00,36.50,1
35.00,36.53,1
37.00,36.54,1
36.00,36.54,1
38.00,36.55,1
35.00,36.56,1
41.00,36.60,1
37.00,36.68,1
51.00,36.91,1
45.00,37.39,1
35.00,37.97,1
47.00,38.49,1
31.00,38.94,1
45.00,39.27,1
123.00,40.24,1
60.00,42.53,1
37.00,45.20,1
93.00,47.61,1
39.00,50.03,1
102.00,52.48,1
222.00,56.48,1
137.00,63.32,1
78.00,71.19,1
243.00,79.25,1
96.00,88.23,1
179.00,97.23,1
38.00,104.93,1
65.00,109.94,1
225.00,113.34,1
86.00,117.16,1
149.00,120.70,1
40.00,122.88,1
126.00,123.41,1
76.00,122.76,1
99.00,121.30,1
52.00,118.87,1
106.00,115.63,1
62.00,112.03,1
110.00,108.40,1
60.00,104.89,1
328.00,103.36,1
37.00,104.99,1
37.00,106.38,1
44.00,105.16,1
47.00,102.17,1
67.00,98.20,1
58.00,93.90,1
230.00,90.94,1
68.00,90.54,1
122.00,91.31,1
62.00,91.96,1
55.00,91.90,1
46.00,90.59,1
131.00,88.90,1
73.00,87.83,1
55.00,86.86,1
86.00,85.47,1
297.00,85.93,1
63.00,89.61,1
41.00,93.28,1
61.00,94.66,1
109.00,94.81,1
124.00,95.13,1
252.00,97.27,1
173.00,102.31,1
59.00,108.21,1
90.00,112.26,1
90.00,114.32,1
36.00,114.62,1
46.00,112.74,1
82.00,109.30,1
67.00,105.35,1
45.00,101.01,1
105.00,96.53,1
43.00,92.39,1
98.00,88.58,1
68.00,85.29,1
43.00,82.26,1
72.00,79.09,1
149.00,76.85,1
39.00,76.00,1
112.00,75.65,1
86.00,75.77,1
188.00,77.26,1
56.00,80.12,1
160.00,83.46,1
102.00,87.19,1
58.00,90.64,1
92.00,92.82,1
204.00,95.09,1
46.00,98.22,1
79.00,100.44,1
142.00,101.66,1
55.00,102.68,1
127.00,103.20,1
44.00,103.09,1
93.00,102.13,1
133.00,101.02,1
229.00,101.71,1
139.00,104.95,1
192.00,109.73,1
81.00,114.74,1
190.00,119.25,1
68.00,123.10,1
116.00,125.61,1
46.00,126.20,1
132.00,125.27,1
106.00,123.87,1
41.00,121.87,1
168.00,119.27,1
78.00,117.11,1
51.00,114.68,1
46.00,110.92,1
55.00,106.02,1
97.00,100.88,1
89.00,96.43,1
36.00,92.42,1
116.00,88.61,1
117.00,85.97,1
104.00,84.88,1
122.00,84.95,1
76.00,85.70,1
38.00,86.02,1
161.00,85.99,1
44.00,86.48,1
103.00,86.89,1
40.00,86.72,1
41.00,85.57,1
61.00,83.38,1
227.00,82.19,1
70.00,83.43,1
84.00,85.34,1
58.00,86.41,1
50.00,86.42,1
114.00,85.81,1
73.00,85.42,1
39.00,84.77,1
163.00,84.07,1
74.00,84.39,1
50.00,84.83,1
161.00,85.13,1
119.00,86.62,1
61.00,88.70,1
69.00,89.91,1
58.00,89.96,1
61.00,89.05,1
66.00,87.45,1
62.00,85.43,1
64.00,83.17,1
66.00,80.82,1
155.00,79.27,1
73.00,79.19,1
81.00,79.68,1
69.00,79.92,1
83.00,79.96,1
39.00,79.61,1
128.00,79.09,1
189.00,80.09,1
127.00,83.43,1
67.00,87.45,1
52.00,90.19,1
117.00,91.67,1
83.00,92.82,1
75.00,93.57,1
41.00,93.31,1
64.00,91.83,1
174.00,90.50,1
121.00,90.91,1
62.00,92.18,1
41.00,92.46,1
42.00,91.14,1
69.00,88.72,1
194.00,87.03,1
126.00,87.71,1
38.00,89.34,1
79.00,89.95,1
37.00,89.35,1
108.00,88.09,1
69.00,86.88,1
96.00,85.91,1
171.00,85.92,1
54.00,87.16,1
143.00,88.71,1
61.00,90.27,1
128.00,91.72,1
42.00,92.75,1
225.00,94.09,1
74.00,96.68,1
271.00,100.79,1
46.00,106.08,1
79.00,110.25,1
66.00,112.00,1
34.00,111.60,1
71.00,109.29,1
42.00,105.70,1
35.00,101.02,1
116.00,96.00,1
40.00,91.54,1
102.00,87.59,1
45.00,84.09,1
198.00,81.88,1
62.00,81.66,1
87.00,82.18,1
133.00,82.92,1
100.00,84.49,1
52.00,86.07,1
99.00,86.92,1
126.00,87.81,1
106.00,89.36,1
66.00,90.93,1
54.00,91.52,1
52.00,90.80,1
185.00,90.08,1
68.00,90.62,1
83.00,91.37,1
53.00,91.28,1
45.00,90.12,1
91.00,88.18,1
42.00,86.00,1
52.00,83.38,1
33.00,80.10,1
48.00,76.32,1
62.00,72.49,1
43.00,68.96,1
138.00,66.37,1
78.00,65.51,1
51.00,65.54,1
72.00,65.48,1
69.00,65.45,1
66.00,65.55,1
75.00,65.74,1
41.00,65.83,1
127.00,66.07,1
111.00,67.45,1
111.00,70.07,1
77.00,73.14,1
42.00,75.59,1
76.00,76.91,1
48.00,77.36,1
42.00,76.89,1
115.00,76.04,1
36.00,75.42,1
107.00,74.89,1
68.00,74.64,1
38.00,74.31,1
121.00,73.78,1
136.00,74.39,1
136.00,76.78,1
64.00,79.99,1
50.00,82.37,1
62.00,83.32,1
39.00,83.03,1
106.00,82.10,1
43.00,81.10,1
42.00,79.59,1
77.00,77.50,1
77.00,75.60,1
48.00,73.96,1
68.00,72.27,1
62.00,70.62,1
40.00,68.95,1
86.00,67.28,1
163.00,66.89,1
50.00,68.24,1
41.00,69.52,1
43.00,69.63,1
171.00,69.88,1
101.00,71.79,1
136.00,75.08,1
67.00,78.75,1
67.00,81.71,1
122.00,83.93,1
37.00,85.72,1
74.00,86.47,1
48.00,86.10,1
36.00,84.66,1
77.00,82.39,1
268.00,81.73,1
71.00,84.22,1
90.00,87.46,1
63.00,89.62,1
65.00,90.61,1
98.00,90.78,1
88.00,90.78,1
87.00,90.77,1
92.00,90.68,1
68.00,90.42,1
55.00,89.56,1
64.00,87.93,1
63.00,85.82,1
120.00,83.94,1
46.00,82.62,1
70.00,81.21,1
44.00,79.35,1
47.00,77.00,1
42.00,74.15,1
36.00,70.90,1
43.00,67.38,1
76.00,64.11,1
44.00,61.48,1
71.00,59.40,1
189.00,58.97,1
74.00,61.02,1
42.00,63.70,1
61.00,65.43,1
77.00,66.58,1
65.00,67.57,1
95.00,68.58,1
96.00,69.99,1
71.00,71.71,1
108.00,73.51,1
107.00,75.72,1
62.00,78.06,1
48.00,79.56,1
69.00,79.94,1
148.00,80.34,1
80.00,81.69,1
108.00,83.46,1
51.00,84.91,1
38.00,85.22,1
104.00,84.56,1
58.00,83.76,1
118.00,83.19,1
46.00,82.81,1
72.00,82.12,1
136.00,81.57,1
81.00,81.98,1
41.00,82.38,1
63.00,81.80,1
41.00,80.38,1
192.00,79.42,1
106.00,80.50,1
37.00,82.31,1
130.00,83.53,1
53.00,84.58,1
75.00,85.16,1
71.00,85.03,1
75.00,84.53,1
59.00,83.67,1
73.00,82.44,1
92.00,81.23,1
160.00,81.08,1
58.00,82.20,1
137.00,83.75,1
89.00,85.65,1
44.00,87.22,1
39.00,87.30,1
70.00,86.05,1
36.00,84.01,1
63.00,81.37,1
51.00,78.43,1
65.00,75.50,1
127.00,73.32,1
49.00,72.28,1
117.00,71.93,1
90.00,72.37,1
82.00,73.45,1
62.00,74.46,1
42.00,74.81,1
76.00,74.43,1
86.00,74.00,1
133.00,74.38,1
103.00,75.97,1
70.00,78.06,1
111.00,79.99,1
103.00,82.08,1
80.00,84.24,1
57.00,85.74,1
58.00,86.12,1
36.00,85.28,1
66.00,83.42,1
58.00,81.12,1
35.00,78.47,1
61.00,75.42,1
39.00,72.22,1
181.00,70.06,1
64.00,69.93,1
40.00,70.41,1
53.00,70.06,1
83.00,69.38,1
55.00,68.82,1
92.00,68.49,1
41.00,68.28,1
135.00,68.43,1
147.00,70.08,1
48.00,72.97,1
170.00,76.18,1
56.00,79.77,1
41.00,82.53,1
160.00,84.35,1
126.00,86.99,1
99.00,90.35,1
44.00,92.95,1
71.00,93.96,1
131.00,94.24,1
167.00,95.47,1
41.00,97.44,1
83.00,98.44,1
48.00,98.05,1
67.00,96.54,1
112.00,94.63,1
125.00,93.48,1
53.00,92.95,1
61.00,91.89,1
44.00,89.85,1
73.00,87.16,1
54.00,84.24,1
75.00,81.36,1
60.00,78.66,1
62.00,76.13,1
56.00,73.67,1
137.00,71.94,1
76.00,71.62,1
73.00,72.00,1
71.00,72.33,1
98.00,72.78,1
37.00,73.23,1
132.00,73.66,1
139.00,75.19,1
50.00,77.67,1
178.00,80.44,1
269.00,85.48,1
119.00,93.41,1
86.00,101.25,1
57.00,106.73,1
66.00,109.55,1
48.00,110.02,1
87.00,108.78,1
81.00,106.76,1
84.00,104.43,1
46.00,101.65,1
60.00,98.13,1
34.00,93.85,1
52.00,88.98,1
71.00,84.06,1
39.00,79.47,1
38.00,74.90,1
127.00,70.95,1
90.00,68.79,1
75.00,68.03,1
190.00,68.77,1
120.00,71.84,1
107.00,76.22,1
92.00,80.56,1
147.00,84.82,1
66.00,88.99,1
43.00,91.86,1
66.00,92.80,1
173.00,93.33,1
70.00,94.63,1
142.00,96.26,1
157.00,98.54,1
144.00,101.97,1
64.00,105.42,1
35.00,107.07,1
44.00,106.24,1
48.00,103.50,1
40.00,99.46,1
122.00,95.17,1
46.00,91.50,1
76.00,88.07,1
101.00,85.03,1
37.00,82.51,1
52.00,79.75,1
124.00,77.20,1
70.00,75.77,1
110.00,75.27,1
125.00,75.83,1
67.00,77.30,1
168.00,79.38,1
116.00,82.61,1
86.00,86.37,1
51.00,89.18,1
164.00,91.28,1
120.00,93.99,1
134.00,97.39,1
58.00,100.45,1
84.00,102.19,1
64.00,102.54,1
67.00,101.72,1
134.00,100.48,1
52.00,99.42,1
82.00,97.97,1
95.00,96.20,1
60.00,94.41,1
74.00,92.32,1
67.00,89.96,1
46.00,87.28,1
89.00,84.41,1
50.00,81.70,1
127.00,79.55,1
36.00,78.10,1
67.00,76.62,1
160.00,75.68,1
57.00,76.13,1
147.00,77.43,1
188.00,80.31,1
66.00,84.72,1
66.00,88.47,1
122.00,91.03,1
138.00,93.68,1
94.00,96.67,1
116.00,99.40,1
85.00,101.58,1
119.00,103.23,1
108.00,104.63,1
172.00,106.43,1
75.00,108.64,1
42.00,109.73,1
138.00,109.38,1
118.00,109.11,1
62.00,108.89,1
82.00,107.80,1
81.00,105.93,1
89.00,103.75,1
79.00,101.47,1
36.00,98.70,1
74.00,95.19,1
38.00,91.21,1
104.00,87.26,1
78.00,84.05,1
44.00,81.34,1
43.00,78.32,1
77.00,75.15,1
82.00,72.56,1
94.00,70.96,1
139.00,70.79,1
106.00,72.27,1
121.00,74.91,1
50.00,77.73,1
121.00,80.13,1
53.00,82.15,1
160.00,84.18,1
49.00,86.42,1
144.00,88.60,1
131.00,91.19,1
79.00,94.16,1
98.00,96.51,1
89.00,98.11,1
60.00,98.84,1
80.00,98.51,1
70.00,97.40,1
100.00,95.97,1
127.00,94.99,1
38.00,94.35,1
52.00,92.84,1
108.00,90.69,1
50.00,88.69,1
64.00,86.49,1
36.00,83.71,1
112.00,80.88,1
138.00,79.35,1
37.00,79.10,1
130.00,79.11,1
38.00,79.28,1
103.00,79.34,1
234.00,80.71,1
40.00,84.13,1
92.00,87.31,1
68.00,89.25,1
99.00,90.47,1
43.00,90.95,1
52.00,90.26,1
64.00,88.48,1
108.00,86.58,1
57.00,85.06,1
92.00,83.68,1
45.00,82.23,1
97.00,80.72,1
74.00,79.48,1
39.00,78.26,1
165.00,77.37,1
54.00,77.64,1
57.00,78.01,1
74.00,77.71,1
106.00,77.48,1
56.00,77.57,1
117.00,77.85,1
152.00,79.14,1
132.00,82.08,1
136.00,86.16,1
112.00,90.69,1
82.00,94.78,1
81.00,97.72,1
68.00,99.30,1
85.00,99.72,1
88.00,99.43,1
52.00,98.50,1
215.00,97.91,1
41.00,98.56,1
78.00,98.90,1
103.00,98.36,1
81.00,97.72,1
42.00,96.53,1
113.00,94.74,1
43.00,92.81,1
79.00,90.57,1
50.00,87.95,1
40.00,84.86,1
99.00,81.59,1
78.00,79.02,1
169.00,77.97,1
84.00,78.74,1
98.00,80.33,1
40.00,81.53,1
81.00,81.87,1
90.00,81.84,1
72.00,81.86,1
265.00,83.31,1
56.00,87.12,1
66.00,90.79,1
101.00,92.95,1
36.00,94.02,1
82.00,93.85,1
64.00,92.78,1
66.00,91.19,1
67.00,89.14,1
122.00,87.29,1
165.00,86.95,1
37.00,87.87,1
87.00,88.36,1
85.00,88.25,1
54.00,87.82,1
180.00,87.67,1
41.00,88.43,1
52.00,88.67,1
37.00,87.42,1
137.00,85.74,1
80.00,84.87,1
139.00,85.01,1
127.00,86.32,1
42.00,88.07,1
81.00,88.89,1
82.00,88.94,1
140.00,89.21,1
44.00,89.83,1
59.00,89.70,1
37.00,88.27,1
137.00,86.49,1
111.00,85.78,1
87.00,86.09,1
162.00,87.18,1
158.00,89.81,1
70.00,93.39,1
119.00,96.47,1
63.00,98.68,1
76.00,99.74,1
83.00,99.71,1
46.00,98.77,1
56.00,96.68,1
67.00,93.76,1
56.00,90.48,1
158.00,87.77,1
49.00,86.30,1
110.00,85.35,1
179.00,85.52,1
101.00,87.53,1
150.00,90.55,1
127.00,94.22,1
127.00,98.29,1
100.00,102.10,1
127.00,105.38,1
50.00,107.72,1
110.00,108.71,1
76.00,108.72,1
256.00,109.42,1
56.00,111.67,1
95.00,113.53,1
94.00,113.99,1
36.00,113.18,1
285.00,112.55,1
117.00,114.33,1
38.00,116.51,1
79.00,116.54,1
80.00,114.98,1
75.00,112.58,1
91.00,109.69,1
102.00,106.83,1
100.00,104.39,1
44.00,101.95,1
57.00,98.75,1
131.00,95.44,1
40.00,92.73,1
43.00,89.70,1
81.00,86.14,1
38.00,82.59,1
98.00,79.27,1
54.00,76.51,1
68.00,74.14,1
46.00,71.85,1
111.00,69.97,1
97.00,69.25,1
111.00,69.85,1
51.00,71.06,1
271.00,73.65,1
71.00,78.69,1
402.00,86.65,1
103.00,97.98,1
170.00,109.76,1
46.00,119.12,1
97.00,125.27,1
97.00,128.55,1
81.00,129.88,1
77.00,129.37,1
76.00,127.25,1
122.00,124.34,1
112.00,121.59,1
192.00,119.92,1
124.00,119.83,1
54.00,119.88,1
225.00,119.73,1
45.00,120.21,1
34.00,119.48,1
47.00,116.29,1
76.00,111.69,1
123.00,107.17,1
61.00,103.35,1
139.00,100.21,1
150.00,98.55,1
102.00,98.51,1
58.00,98.62,1
43.00,97.60,1
74.00,95.39,1
37.00,92.44,1
106.00,89.23,1
178.00,87.37,1
64.00,87.42,1
97.00,87.90,1
86.00,88.20,1
167.00,89.12,1
50.00,90.76,1
45.00,91.59,1
144.00,91.54,1
151.00,92.48,1
39.00,94.16,1
83.00,94.89,1
35.00,94.28,1
64.00,92.48,1
77.00,90.04,1
111.00,87.93,1
159.00,87.21,1
174.00,88.78,1
41.00,91.57,1
62.00,93.29,1
170.00,94.27,1
95.00,96.01,1
138.00,98.29,1
104.00,100.70,1
122.00,103.07,1
110.00,105.25,1
118.00,107.23,1
74.00,108.66,1
43.00,108.68,1
139.00,107.56,1
48.00,106.20,1
85.00,104.29,1
70.00,101.77,1
102.00,99.19,1
55.00,96.66,1
82.00,93.97,1
46.00,91.00,1
53.00,87.61,1
129.00,84.45,1
103.00,82.69,1
48.00,81.80,1
59.00,80.54,1
63.00,78.80,1
61.00,76.91,1
46.00,74.83,1
86.00,72.75,1
39.00,70.89,1
130.00,69.57,1
188.00,70.32,1
44.00,73.13,1
90.00,75.88,1
53.00,77.73,1
137.00,79.32,1
84.00,81.30,1
35.00,82.94,1
82.00,83.38,1
119.00,83.58,1
79.00,84.28,1
99.00,85.13,1
58.00,85.73,1
66.00,85.68,1
42.00,84.71,1
45.00,82.78,1
71.00,80.26,1
196.00,78.87,1
74.00,79.64,1
84.00,81.13,1
95.00,82.36,1
49.00,83.25,1
71.00,83.35,1
78.00,82.89,1
47.00,82.07,1
51.00,80.57,1
40.00,78.33,1
50.00,75.52,1
65.00,72.57,1
223.00,71.28,1
96.00,72.98,1
67.00,75.85,1
77.00,78.05,1
90.00,79.72,1
82.00,81.15,1
101.00,82.49,1
93.00,83.90,1
140.00,85.73,1
97.00,88.17,1
87.00,90.60,1
45.00,92.06,1
80.00,92.24,1
38.00,91.32,1
107.00,89.77,1
70.00,88.29,1
82.00,86.96,1
64.00,85.54,1
37.00,83.66,1
44.00,80.96,1
155.00,78.55,1
39.00,77.37,1
107.00,76.73,1
35.00,76.09,1
84.00,75.24,1
68.00,74.35,1
36.00,73.33,1
76.00,71.91,1
85.00,70.71,1
44.00,69.86,1
84.00,69.03,1
67.00,68.42,1
51.00,67.92,1
60.00,67.19,1
53.00,66.25,1
80.00,65.39,1
89.00,65.06,1
109.00,65.72,1
106.00,67.45,1
47.00,69.59,1
42.00,70.92,1
70.00,71.24,1
45.00,71.00,1
91.00,70.55,1
179.00,71.23,1
54.00,73.56,1
36.00,75.56,1
62.00,76.14,1
37.00,75.69,1
76.00,74.59,1
51.00,73.28,1
74.00,71.93,1
106.00,71.06,1
249.00,72.47,1
92.00,76.95,1
132.00,82.48,1
106.00,87.78,1
42.00,92.09,1
96.00,94.68,1
59.00,95.94,1
59.00,95.96,1
60.00,94.77,1
175.00,93.67,1
88.00,93.86,1
168.00,95.21,1
54.00,97.04,1
116.00,98.46,1
62.00,99.15,1
36.00,98.69,1
47.00,96.55,1
71.00,93.39,1
133.00,90.56,1
157.00,89.50,1
137.00,90.58,1
64.00,92.50,1
37.00,93.40,1
67.00,92.66,1
170.00,91.86,1
144.00,92.78,1
76.00,94.84,1
49.00,96.12,1
106.00,96.23,1
119.00,96.26,1
115.00,96.91,1
78.00,97.72,1
92.00,98.11,1
55.00,97.78,1
167.00,97.35,1
136.00,98.14,1
201.00,100.81,1
112.00,104.88,1
260.00,110.18,1
71.00,116.38,1
95.00,121.36,1
40.00,123.60,1
173.00,124.07,1
85.00,124.22,1
208.00,124.78,1
110.00,126.13,1
190.00,128.10,1
167.00,130.80,1
46.00,133.23,1
49.00,133.24,1
143.00,131.20,1
88.00,128.80,1
112.00,126.28,1
187.00,124.32,1
173.00,124.16,1
98.00,125.16,1
106.00,125.71,1
293.00,126.95,1
45.00,129.81,1
46.00,131.24,1
49.00,129.51,1
62.00,125.58,1
95.00,120.65,1
200.00,116.65,1
80.00,114.54,1
95.00,112.91,1
46.00,110.55,1
161.00,107.97,1
42.00,105.82,1
50.00,103.13,1
92.00,99.59,1
144.00,96.73,1
123.00,95.51,1
92.00,95.40,1
67.00,95.26,1
39.00,94.18,1
84.00,92.14,1
60.00,89.75,1
91.00,87.40,1
91.00,85.47,1
39.00,83.76,1
56.00,81.55,1
115.00,79.37,1
45.00,77.83,1
65.00,76.31,1
132.00,75.18,1
104.00,75.42,1
165.00,77.30,1
38.00,80.07,1
162.00,82.87,1
446.00,88.96,1
54.00,99.82,1
1023.00,117.82,1
222.00,146.86,1
235.00,178.14,1
36.00,202.05,1
250.00,218.05,1
37.00,227.68,1
110.00,231.03,1
72.00,228.53,1
62.00,221.63,1
194.00,212.26,1
208.00,203.55,1
126.00,196.28,1
35.00,188.34,1
123.00,178.68,1
62.00,168.28,1
84.00,157.55,1
98.00,146.87,1
82.00,136.88,1
52.00,127.36,1
64.00,117.97,1
37.00,108.72,1
87.00,99.95,1
72.00,92.32,1
60.00,85.88,1
70.00,80.31,1
52.00,75.51,1
55.00,71.25,1
95.00,67.79,1
227.00,66.86,1
88.00,69.23,1
132.00,73.19,1
41.00,77.03,1
60.00,79.66,1
69.00,80.92,1
104.00,81.70,1
159.00,83.19,1
396.00,88.34,1
42.00,97.57,1
275.00,107.61,1
248.00,118.62,1
174.00,130.89,1
142.00,141.99,1
49.00,149.92,1
118.00,153.94,1
220.00,156.06,1
143.00,158.31,1
278.00,161.27,1
94.00,164.74,1
216.00,167.58,1
410.00,171.92,1
146.00,179.40,1
328.00,187.67,1
77.00,195.01,1
312.00,200.70,1
162.00,205.52,1
73.00,208.24,1
102.00,206.76,1
75.00,201.71,1
187.00,194.82,1
232.00,188.78,1
473.00,187.29,1
160.00,191.05,1
78.00,194.79,1
213.00,195.54,1
112.00,194.73,1
238.00,193.25,1
116.00,191.54,1
112.00,188.73,1
214.00,184.92,1
60.00,180.87,1
118.00,175.52,1
229.00,169.98,1
138.00,166.07,1
128.00,162.84,1
202.00,159.93,1
80.00,157.48,1
338.00,156.20,1
218.00,158.15,1
261.00,162.96,1
56.00,167.83,1
151.00,170.29,1
205.00,171.18,1
41.00,171.16,1
93.00,168.60,1
409.00,166.34,1
42.00,167.06,1
255.00,168.27,1
61.00,168.69,1
106.00,167.40,1
188.00,164.69,1
101.00,162.01,1
145.00,159.02,1
263.00,156.90,1
82.00,156.34,1
163.00,155.61,1
451.00,157.02,1
46.00,162.10,1
62.00,165.60,1
126.00,165.22,1
171.00,163.46,1
171.00,162.00,1
168.00,161.17,1
327.00,162.11,1
87.00,165.00,1
70.00,166.45,1
37.00,164.23,1
153.00,159.54,1
304.00,156.05,1
127.00,155.58,1
123.00,155.71,1
59.00,154.22,1
75.00,150.59,1
41.00,144.91,1
86.00,137.77,1
99.00,130.37,1
258.00,124.92,1
335.00,124.54,1
103.00,128.65,1
45.00,132.37,1
187.00,133.94,1
43.00,134.53,1
56.00,133.23,1
70.00,129.69,1
100.00,125.15,1
109.00,120.69,1
74.00,116.55,1
131.00,112.76,1
104.00,109.79,1
167.00,108.08,1
38.00,107.15,1
86.00,105.62,1
52.00,103.13,1
68.00,99.95,1
63.00,96.30,1
49.00,92.34,1
62.00,88.11,1
60.00,83.91,1
135.00,80.57,1
171.00,79.54,1
194.00,81.68,1
198.00,86.88,1
243.00,94.90,1
38.00,103.83,1
58.00,110.29,1
88.00,113.58,1
45.00,114.58,1
76.00,113.65,1
224.00,112.66,1
44.00,112.88,1
120.00,112.89,1
38.00,111.82,1
37.00,109.22,1
57.00,105.02,1
63.00,100.14,1
113.00,95.56,1
118.00,92.28,1
170.00,91.04,1
100.00,91.72,1
88.00,92.99,1
39.00,93.48,1
126.00,93.17,1
148.00,93.49,1
124.00,95.15,1
343.00,99.38,1
364.00,108.99,1
70.00,122.17,1
116.00,133.27,1
82.00,140.44,1
64.00,144.07,1
68.00,144.38,1
90.00,142.25,1
213.00,139.73,1
69.00,138.03,1
40.00,135.40,1
110.00,131.04,1
70.00,126.12,1
36.00,120.58,1
38.00,113.86,1
81.00,106.57,1
81.00,99.84,1
170.00,94.85,1
52.00,91.83,1
92.00,89.54,1
93.00,87.55,1
59.00,85.93,1
45.00,83.97,1
179.00,82.42,1
47.00,82.24,1
39.00,81.97,1
58.00,80.56,1
186.00,79.65,1
61.00,80.38,1
296.00,83.27,1
114.00,89.11,1
143.00,96.09,1
116.00,102.49,1
148.00,108.29,1
62.00,113.03,1
61.00,115.64,1
200.00,116.98,1
103.00,118.80,1
205.00,121.30,1
138.00,124.58,1
125.00,127.96,1
37.00,129.80,1
36.00,128.84,1
43.00,125.04,1
73.00,119.63,1
117.00,114.09,1
47.00,109.03,1
147.00,104.54,1
209.00,102.22,1
49.00,102.20,1
187.00,102.88,1
119.00,104.49,1
36.00,106.07,1
65.00,105.89,1
51.00,104.04,1
111.00,101.49,1
158.00,99.77,1
112.00,99.62,1
81.00,100.05,1
107.00,100.21,1
53.00,99.89,1
69.00,98.68,1
48.00,96.44,1
91.00,93.67,1
127.00,91.42,1
71.00,90.14,1
125.00,89.43,1
69.00,89.17,1
127.00,89.24,1
97.00,89.82,1
101.00,90.78,1
56.00,91.45,1
112.00,91.61,1
73.00,91.62,1
80.00,91.40,1
57.00,90.59,1
37.00,88.90,1
59.00,86.24,1
71.00,83.23,1
38.00,80.17,1
60.00,76.90,1
166.00,74.56,1
44.00,73.92,1
62.00,73.60,1
55.00,72.76,1
52.00,71.57,1
127.00,70.66,1
126.00,71.22,1
110.00,73.34,1
107.00,76.29,1
63.00,79.20,1
138.00,81.86,1
72.00,84.57,1
170.00,87.58,1
88.00,91.10,1
144.00,94.82,1
122.00,98.62,1
156.00,102.75,1
80.00,106.75,1
36.00,109.16,1
40.00,108.96,1
67.00,106.68,1
125.00,103.90,1
55.00,101.42,1
54.00,98.56,1
39.00,94.80,1
127.00,90.95,1
101.00,88.28,1
122.00,87.07,1
70.00,86.71,1
79.00,86.38,1
162.00,86.50,1
39.00,87.39,1
128.00,88.23,1
88.00,89.10,1
58.00,89.82,1
66.00,89.63,1
98.00,88.90,1
51.00,88.00,1
127.00,87.10,1
106.00,86.94,1
165.00,88.12,1
85.00,90.42,1
81.00,92.61,1
85.00,93.96,1
48.00,94.35,1
48.00,93.43,1
41.00,91.14,1
127.00,88.51,1
59.00,86.51,1
40.00,84.48,1
80.00,81.95,1
36.00,79.27,1
64.00,76.38,1
67.00,73.58,1
184.00,72.17,1
230.00,74.28,1
85.00,79.49,1
148.00,85.36,1
100.00,90.98,1
135.00,96.24,1
118.00,101.09,1
38.00,104.81,1
100.00,106.59,1
134.00,107.49,1
103.00,108.52,1
43.00,108.88,1
48.00,107.51,1
53.00,104.49,1
43.00,100.35,1
81.00,95.70,1
142.00,91.87,1
127.00,90.00,1
49.00,89.28,1
47.00,88.02,1
42.00,85.68,1
35.00,82.44,1
131.00,79.26,1
42.00,77.03,1
62.00,75.08,1
117.00,73.45,1
50.00,72.65,1
63.00,71.95,1
60.00,71.00,1
39.00,69.75,1
192.00,69.24,1
97.00,70.85,1
102.00,73.79,1
40.00,76.40,1
44.00,77.73,1
46.00,77.59,1
49.00,76.45,1
116.00,75.19,1
56.00,74.55,1
74.00,74.09,1
101.00,73.81,1
52.00,73.87,1
67.00,73.72,1
40.00,73.03,1
36.00,71.60,1
50.00,69.48,1
36.00,67.00,1
65.00,64.45,1
70.00,62.33,1
103.00,61.21,1
35.00,60.91,1
94.00,60.88,1
67.00,61.24,1
100.00,62.20,1
41.00,63.43,1
39.00,64.08,1
90.00,64.19,1
49.00,64.36,1
36.00,64.22,1
62.00,63.50,1
55.00,62.63,1
100.00,62.15,1
97.00,62.64,1
92.00,64.13,1
61.00,65.97,1
72.00,67.55,1
244.00,70.23,1
171.00,75.98,1
46.00,83.08,1
99.00,88.71,1
68.00,92.64,1
66.00,95.04,1
88.00,96.11,1
66.00,96.28,1
90.00,95.79,1
57.00,94.74,1
55.00,92.96,1
110.00,90.81,1
70.00,89.04,1
79.00,87.46,1
81.00,85.92,1
53.00,84.34,1
89.00,82.63,1
36.00,80.80,1
122.00,79.07,1
44.00,77.83,1
81.00,76.71,1
81.00,75.70,1
120.00,75.43,1
85.00,76.09,1
93.00,77.25,1
44.00,78.18,1
104.00,78.65,1
49.00,78.90,1
44.00,78.51,1
44.00,77.11,1
53.00,75.03,1
48.00,72.60,1
57.00,70.06,1
50.00,67.56,1
53.00,65.15,1
62.00,62.98,1
118.00,61.68,1
113.00,62.09,1
37.00,63.50,1
136.00,65.14,1
56.00,67.26,1
38.00,69.01,1
62.00,69.65,1
50.00,69.58,1
38.00,68.87,1
51.00,67.53,1
40.00,65.76,1
36.00,63.61,1
258.00,62.95,1
127.00,65.99,1
39.00,70.70,1
155.00,74.91,1
59.00,79.01,1
111.00,82.69,1
73.00,85.68,1
53.00,87.67,1
107.00,88.64,1
47.00,89.04,1
101.00,88.90,1
93.00,88.68,1
53.00,88.39,1
99.00,87.71,1
58.00,86.84,1
133.00,86.19,1
96.00,86.32,1
120.00,87.24,1
97.00,88.64,1
138.00,90.51,1
142.00,93.20,1
47.00,96.04,1
38.00,97.29,1
38.00,96.34,1
51.00,93.76,1
148.00,91.08,1
35.00,89.20,1
88.00,87.34,1
61.00,85.29,1
37.00,82.95,1
73.00,80.13,1
111.00,77.78,1
116.00,76.82,1
107.00,77.29,1
48.00,78.22,1
191.00,79.60,1
68.00,82.12,1
94.00,84.80,1
84.00,86.85,1
191.00,89.27,1
94.00,92.80,1
58.00,96.02,1
86.00,97.75,1
97.00,98.51,1
50.00,98.57,1
101.00,97.81,1
58.00,96.56,1
196.00,95.83,1
86.00,96.54,1
86.00,97.63,1
42.00,97.71,1
49.00,96.35,1
41.00,93.62,1
60.00,90.02,1
189.00,87.20,1
36.00,86.10,1
76.00,85.21,1
93.00,84.03,1
53.00,82.97,1
70.00,81.63,1
140.00,80.67,1
91.00,80.92,1
67.00,81.66,1
127.00,82.42,1
81.00,83.61,1
108.00,85.03,1
92.00,86.51,1
73.00,87.79,1
56.00,88.29,1
96.00,88.07,1
146.00,88.25,1
149.00,89.92,1
61.00,92.39,1
47.00,93.83,1
113.00,94.04,1
49.00,93.75,1
138.00,93.31,1
34.00,92.86,1
57.00,91.61,1
37.00,89.16,1
62.00,85.93,1
83.00,82.66,1
93.00,80.09,1
131.00,78.81,1
64.00,78.69,1
37.00,78.44,1
51.00,77.21,1
41.00,75.20,1
71.00,72.87,1
47.00,70.59,1
42.00,68.23,1
56.00,65.72,1
58.00,63.40,1
95.00,61.74,1
77.00,61.12,1
85.00,61.40,1
81.00,62.30,1
64.00,63.50,1
83.00,64.73,1
48.00,65.82,1
190.00,67.53,1
42.00,70.50,1
58.00,73.18,1
62.00,74.61,1
41.00,75.06,1
54.00,74.54,1
60.00,73.41,1
76.00,72.19,1
156.00,71.91,1
37.00,72.84,1
87.00,73.76,1
50.00,74.17,1
94.00,74.35,1
149.00,75.23,1
124.00,77.70,1
67.00,80.84,1
38.00,83.00,1
75.00,83.68,1
100.00,83.81,1
62.00,83.92,1
122.00,84.09,1
149.00,85.20,1
59.00,87.19,1
43.00,88.37,1
185.00,89.07,1
64.00,90.60,1
53.00,91.79,1
90.00,91.79,1
51.00,91.11,1
73.00,89.76,1
65.00,87.92,1
100.00,86.12,1
110.00,85.01,1
89.00,84.74,1
42.00,84.46,1
88.00,83.61,1
50.00,82.42,1
115.00,81.29,1
49.00,80.46,1
73.00,79.54,1
85.00,78.51,1
115.00,78.10,1
50.00,78.23,1
75.00,78.13,1
71.00,77.71,1
100.00,77.45,1
79.00,77.58,1
144.00,78.44,1
124.00,80.55,1
64.00,83.26,1
78.00,85.29,1
83.00,86.51,1
97.00,87.40,1
87.00,88.19,1
98.00,88.93,1
80.00,89.55,1
54.00,89.63,1
112.00,89.21,1
92.00,88.99,1
96.00,89.14,1
57.00,89.11,1
58.00,88.37,1
35.00,86.58,1
34.00,83.69,1
45.00,79.95,1
35.00,75.76,1
83.00,71.71,1
64.00,68.45,1
72.00,66.06,1
70.00,64.36,1
44.00,63.05,1
107.00,62.17,1
48.00,61.97,1
52.00,61.88,1
144.00,62.22,1
114.00,64.18,1
42.00,66.96,1
66.00,69.04,1
64.00,70.30,1
49.00,70.94,1
56.00,70.88,1
101.00,70.65,1
78.00,70.92,1
84.00,71.60,1
122.00,72.80,1
183.00,75.53,1
104.00,80.03,1
40.00,84.37,1
52.00,86.82,1
58.00,87.47,1
36.00,86.75,1
113.00,85.33,1
131.00,84.69,1
116.00,85.47,1
127.00,87.28,1
39.00,89.15,1
74.00,89.93,1
146.00,90.30,1
60.00,91.12,1
65.00,91.47,1
82.00,90.94,1
45.00,89.80,1
129.00,88.44,1
35.00,87.29,1
79.00,85.81,1
144.00,84.64,1
56.00,84.47,1
115.00,84.61,1
148.00,85.51,1
98.00,87.59,1
93.00,89.88,1
82.00,91.67,1
65.00,92.66,1
272.00,94.35,1
36.00,97.85,1
164.00,101.48,1
58.00,104.38,1
34.00,105.71,1
64.00,104.81,1
52.00,102.40,1
119.00,99.55,1
80.00,97.16,1
37.00,94.73,1
98.00,91.84,1
41.00,88.87,1
45.00,85.52,1
122.00,82.24,1
47.00,79.80,1
92.00,77.86,1
79.00,76.37,1
185.00,76.32,1
75.00,78.07,1
81.00,80.27,1
130.00,82.32,1
126.00,85.03,1
127.00,88.49,1
49.00,91.74,1
79.00,93.70,1
124.00,94.83,1
94.00,96.03,1
88.00,97.08,1
54.00,97.34,1
90.00,96.67,1
70.00,95.48,1
92.00,94.09,1
93.00,92.78,1
84.00,91.71,1
54.00,90.47,1
115.00,89.08,1
67.00,87.97,1
66.00,86.83,1
49.00,85.13,1
133.00,83.48,1
93.00,82.84,1
52.00,82.69,1
159.00,82.78,1
39.00,83.50,1
42.00,83.60,1
67.00,82.46,1
40.00,80.65,1
73.00,78.42,1
46.00,76.05,1
56.00,73.56,1
134.00,71.65,1
161.00,71.84,1
116.00,74.36,1
96.00,77.84,1
63.00,80.98,1
61.00,83.01,1
56.00,83.80,1
166.00,84.43,1
89.00,86.07,1
77.00,87.95,1
145.00,89.68,1
45.00,91.44,1
175.00,93.14,1
135.00,95.73,1
46.00,98.60,1
62.00,99.88,1
62.00,99.47,1
65.00,97.94,1
39.00,95.43,1
66.00,92.09,1
62.00,88.44,1
52.00,84.72,1
35.00,80.76,1
59.00,76.57,1
72.00,72.71,1
55.00,69.51,1
72.00,66.88,1
80.00,64.98,1
62.00,63.81,1
99.00,63.32,1
101.00,63.84,1
76.00,65.25,1
128.00,67.32,1
133.00,70.50,1
100.00,74.69,1
95.00,78.95,1
62.00,82.49,1
255.00,86.37,1
49.00,91.61,1
103.00,96.34,1
74.00,99.46,1
59.00,101.10,1
42.00,100.93,1
74.00,99.24,1
90.00,96.99,1
106.00,95.04,1
53.00,93.36,1
62.00,91.25,1
61.00,88.59,1
115.00,86.11,1
139.00,84.94,1
225.00,86.39,1
37.00,89.83,1
39.00,92.25,1
36.00,92.28,1
70.00,90.75,1
52.00,88.45,1
38.00,85.53,1
106.00,82.42,1
138.00,80.55,1
36.00,79.93,1
55.00,79.01,1
36.00,77.19,1
58.00,74.78,1
135.00,72.85,1
36.00,72.00,1
105.00,71.55,1
65.00,71.42,1
55.00,71.35,1
51.00,70.81,1
80.00,70.01,1
37.00,69.14,1
65.00,68.00,1
51.00,66.69,1
161.00,66.20,1
50.00,67.15,1
75.00,68.43,1
50.00,69.20,1
42.00,69.30,1
53.00,68.63,1
129.00,68.14,1
76.00,68.72,1
127.00,70.27,1
71.00,72.45,1
98.00,74.75,1
82.00,76.91,1
64.00,78.70,1
103.00,80.04,1
122.00,81.66,1
92.00,83.82,1
154.00,86.49,1
90.00,89.72,1
80.00,92.63,1
99.00,94.66,1
66.00,95.91,1
55.00,96.04,1
75.00,95.03,1
55.00,93.26,1
38.00,90.65,1
148.00,87.98,1
40.00,86.14,1
103.00,84.63,1
60.00,83.21,1
36.00,81.51,1
92.00,79.38,1
88.00,77.68,1
68.00,76.60,1
58.00,75.59,1
48.00,74.23,1
60.00,72.50,1
92.00,70.94,1
47.00,69.81,1
64.00,68.71,1
146.00,68.27,1
103.00,69.48,1
38.00,71.34,1
36.00,72.16,1
77.00,71.95,1
119.00,71.96,1
66.00,72.75,1
103.00,73.87,1
77.00,75.17,1
255.00,77.89,1
40.00,82.58,1
72.00,86.78,1
122.00,89.63,1
35.00,91.73,1
61.00,92.37,1
43.00,91.45,1
54.00,89.39,1
49.00,86.50,1
55.00,83.16,1
61.00,79.68,1
125.00,76.90,1
119.00,75.81,1
126.00,76.50,1
137.00,78.70,1
50.00,81.49,1
60.00,83.38,1
172.00,84.88,1
136.00,87.70,1
70.00,91.19,1
101.00,93.95,1
62.00,95.69,1
118.00,96.68,1
93.00,97.47,1
48.00,97.75,1
155.00,97.58,1
122.00,98.20,1
98.00,99.52,1
68.00,100.43,1
94.00,100.51,1
62.00,99.88,1
67.00,98.44,1
74.00,96.33,1
34.00,93.59,1
127.00,90.63,1
92.00,88.54,1
132.00,87.68,1
48.00,87.47,1
68.00,86.86,1
66.00,85.59,1
88.00,84.17,1
55.00,82.77,1
63.00,81.12,1
57.00,79.14,1
104.00,77.34,1
74.00,76.22,1
38.00,75.25,1
92.00,74.02,1
93.00,73.24,1
144.00,73.71,1
121.00,75.79,1
150.00,79.30,1
127.00,83.86,1
80.00,88.56,1
102.00,92.42,1
84.00,95.33,1
70.00,97.20,1
62.00,97.77,1
119.00,97.56,1
60.00,97.15,1
40.00,95.92,1
63.00,93.49,1
116.00,90.88,1
51.00,88.75,1
48.00,86.40,1
88.00,83.69,1
36.00,81.02,1
90.00,78.36,1
39.00,75.87,1
50.00,73.26,1
58.00,70.49,1
38.00,67.73,1
50.00,64.92,1
133.00,62.87,1
55.00,62.32,1
71.00,62.44,1
65.00,62.63,1
51.00,62.78,1
126.00,63.25,1
115.00,64.97,1
63.00,67.61,1
34.00,69.65,1
64.00,70.51,1
47.00,70.55,1
127.00,70.60,1
127.00,71.84,1
92.00,74.31,1
250.00,78.37,1
53.00,84.19,1
40.00,89.09,1
60.00,91.43,1
38.00,91.81,1
47.00,90.57,1
77.00,88.36,1
132.00,86.52,1
54.00,85.51,1
62.00,84.42,1
92.00,83.03,1
62.00,81.77,1
52.00,80.32,1
97.00,78.74,1
68.00,77.53,1
55.00,76.43,1
36.00,74.82,1
76.00,72.80,1
160.00,71.74,1
67.00,72.40,1
70.00,73.51,1
44.00,74.00,1
53.00,73.67,1
77.00,72.85,1
39.00,71.86,1
102.00,70.86,1
195.00,71.37,1
72.00,74.08,1
89.00,77.24,1
48.00,79.54,1
89.00,80.92,1
91.00,81.92,1
36.00,82.50,1
48.00,81.96,1
42.00,80.28,1
44.00,77.80,1
96.00,75.20,1
81.00,73.37,1
56.00,72.14,1
38.00,70.73,1
91.00,69.16,1
47.00,67.89,1
42.00,66.56,1
56.00,64.88,1
151.00,63.98,1
89.00,64.89,1
55.00,66.62,1
90.00,68.12,1
101.00,69.79,1
84.00,71.87,1
84.00,73.99,1
70.00,75.82,1
118.00,77.53,1
61.00,79.30,1
132.00,81.10,1
83.00,83.16,1
42.00,84.79,1
42.00,84.94,1
79.00,83.94,1
59.00,82.54,1
60.00,80.86,1
36.00,78.70,1
71.00,76.11,1
38.00,73.42,1
39.00,70.48,1
122.00,67.88,1
69.00,66.58,1
37.00,65.85,1
42.00,64.63,1
41.00,62.91,1
56.00,61.00,1
90.00,59.55,1
75.00,59.05,1
86.00,59.42,1
78.00,60.43,1
100.00,62.03,1
104.00,64.34,1
80.00,67.19,1
163.00,70.67,1
243.00,76.35,1
127.00,84.62,1
249.00,94.25,1
54.00,104.07,1
63.00,111.57,1
54.00,115.51,1
74.00,116.71,1
80.00,116.11,1
159.00,115.05,1
45.00,114.10,1
98.00,112.48,1
89.00,110.26,1
139.00,108.36,1
113.00,107.29,1
221.00,107.78,1
42.00,109.53,1
67.00,110.32,1
70.00,109.32,1
100.00,107.48,1
62.00,105.26,1
54.00,102.39,1
54.00,98.66,1
116.00,94.86,1
334.00,93.96,1
122.00,97.69,1
101.00,102.92,1
97.00,106.97,1
98.00,109.76,1
118.00,111.63,1
122.00,113.14,1
58.00,114.01,1
36.00,113.13,1
66.00,110.33,1
92.00,106.71,1
39.00,102.81,1
92.00,98.61,1
51.00,94.42,1
36.00,90.02,1
63.00,85.22,1
59.00,80.59,1
75.00,76.52,1
35.00,72.92,1
49.00,69.37,1
76.00,66.10,1
58.00,63.58,1
88.00,61.88,1
62.00,60.99,1
51.00,60.48,1
64.00,59.97,1
139.00,60.23,1
63.00,61.80,1
112.00,64.07,1
98.00,66.86,1
41.00,69.66,1
70.00,71.55,1
73.00,72.72,1
218.00,74.80,1
122.00,79.14,1
136.00,84.77,1
82.00,90.17,1
65.00,94.31,1
85.00,96.79,1
81.00,98.08,1
77.00,98.48,1
48.00,97.88,1
74.00,96.22,1
195.00,95.01,1
104.00,95.67,1
189.00,97.90,1
246.00,102.35,1
63.00,108.54,1
37.00,113.02,1
48.00,114.22,1
86.00,113.17,1
72.00,111.03,1
85.00,108.34,1
37.00,105.01,1
158.00,101.62,1
185.00,100.15,1
44.00,100.45,1
87.00,100.33,1
69.00,99.30,1
45.00,97.44,1
80.00,94.79,1
110.00,92.25,1
51.00,90.16,1
62.00,87.86,1
85.00,85.34,1
88.00,83.26,1
58.00,81.56,1
44.00,79.62,1
158.00,78.02,1
50.00,77.65,1
145.00,78.13,1
115.00,79.66,1
40.00,81.64,1
49.00,82.45,1
72.00,82.07,1
69.00,81.22,1
58.00,80.11,1
47.00,78.53,1
52.00,76.41,1
182.00,75.03,1
127.00,75.98,1
56.00,78.26,1
80.00,80.05,1
67.00,81.10,1
94.00,81.76,1
83.00,82.35,1
220.00,84.05,1
115.00,87.85,1
184.00,93.08,1
124.00,99.00,1
94.00,104.58,1
95.00,108.71,1
36.00,110.88,1
42.00,110.57,1
70.00,108.21,1
78.00,104.99,1
132.00,102.02,1
126.00,100.28,1
102.00,99.66,1
113.00,99.56,1
116.00,99.87,1
89.00,100.39,1
76.00,100.52,1
51.00,99.70,1
41.00,97.58,1
101.00,94.66,1
110.00,92.24,1
145.00,91.20,1
57.00,91.18,1
116.00,91.25,1
58.00,91.16,1
76.00,90.62,1
177.00,90.41,1
263.00,93.00,1
40.00,98.04,1
38.00,101.76,1
39.00,102.52,1
88.00,101.39,1
176.00,100.40,1
69.00,100.55,1
58.00,100.42,1
106.00,99.40,1
96.00,98.36,1
70.00,97.36,1
50.00,95.74,1
59.00,93.24,1
35.00,89.93,1
55.00,85.96,1
59.00,81.79,1
39.00,77.67,1
132.00,74.19,1
74.00,72.21,1
46.00,71.02,1
56.00,69.60,1
98.00,68.33,1
182.00,68.70,1
131.00,71.63,1
72.00,75.76,1
124.00,79.70,1
53.00,83.14,1
120.00,85.90,1
99.00,88.39,1
184.00,91.52,1
233.00,96.66,1
128.00,103.79,1
74.00,110.43,1
157.00,115.40,1
131.00,119.65,1
86.00,123.10,1
63.00,124.66,1
227.00,125.35,1
212.00,127.75,1
50.00,131.17,1
51.00,132.42,1
264.00,132.43,1
48.00,133.26,1
130.00,133.53,1
163.00,133.22,1
43.00,132.70,1
262.00,132.14,1
72.00,132.62,1
318.00,134.61,1
84.00,138.22,1
122.00,141.42,1
62.00,142.39,1
90.00,141.18,1
99.00,138.39,1
168.00,135.46,1
153.00,133.63,1
127.00,132.80,1
138.00,132.28,1
127.00,131.89,1
192.00,132.07,1
88.00,132.78,1
92.00,132.73,1
72.00,131.14,1
66.00,128.08,1
157.00,124.49,1
196.00,122.40,1
43.00,121.66,1
96.00,120.19,1
376.00,120.15,1
38.00,123.47,1
54.00,126.09,1
171.00,126.52,1
68.00,126.50,1
127.00,125.89,1
112.00,124.85,1
192.00,124.42,1
54.00,124.52,1
342.00,125.81,1
128.00,129.81,1
73.00,134.11,1
129.00,136.24,1
79.00,136.74,1
172.00,136.39,1
191.00,136.70,1
93.00,137.77,1
164.00,138.49,1
289.00,140.33,1
206.00,144.94,1
50.00,149.88,1
202.00,152.86,1
83.00,154.51,1
130.00,154.76,1
155.00,153.94,1
79.00,152.51,1
124.00,149.99,1
128.00,146.87,1
255.00,144.91,1
53.00,144.35,1
106.00,143.01,1
134.00,140.55,1
62.00,137.64,1
145.00,134.21,1
56.00,130.53,1
389.00,128.76,1
172.00,131.45,1
78.00,135.86,1
91.00,138.17,1
155.00,138.79,1
102.00,138.83,1
83.00,137.93,1
112.00,135.80,1
240.00,134.22,1
105.00,134.34,1
152.00,134.97,1
83.00,135.06,1
105.00,134.15,1
162.00,132.79,1
78.00,131.55,1
250.00,130.96,1
43.00,131.32,1
42.00,130.37,1
143.00,127.59,1
332.00,126.74,1
144.00,129.79,1
41.00,133.28,1
204.00,135.05,1
64.00,136.18,1
38.00,135.58,1
96.00,132.58,1
66.00,128.36,1
52.00,123.21,1
82.00,117.30,1
59.00,111.20,1
355.00,107.47,1
45.00,107.81,1
49.00,108.59,1
346.00,109.64,1
66.00,113.48,1
245.00,118.65,1
39.00,123.57,1
628.00,131.11,1
54.00,143.78,1
37.00,155.04,1
159.00,160.79,1
61.00,163.24,1
84.00,162.75,1
240.00,160.86,1
130.00,159.85,1
48.00,158.32,1
48.00,154.19,1
170.00,148.51,1
158.00,143.79,1
221.00,141.32,1
52.00,140.17,1
36.00,137.64,1
38.00,132.47,1
156.00,126.36,1
81.00,121.09,1
34.00,116.00,1
41.00,109.86,1
60.00,103.00,1
98.00,96.52,1
76.00,91.15,1
53.00,86.57,1
171.00,83.14,1
127.00,82.10,1
103.00,82.99,1
53.00,84.11,1
220.00,85.73,1
123.00,89.25,1
92.00,93.59,1
344.00,99.17,1
148.00,107.82,1
57.00,116.59,1
238.00,123.54,1
119.00,130.12,1
340.00,137.59,1
141.00,146.50,1
117.00,154.53,1
243.00,160.61,1
160.00,166.23,1
180.00,171.15,1
171.00,174.93,1
198.00,177.97,1
58.00,179.57,1
58.00,177.88,1
54.00,172.62,1
52.00,164.71,1
86.00,155.24,1
50.00,145.17,1
102.00,135.11,1
52.00,125.52,1
339.00,118.59,1
238.00,117.44,1
73.00,120.04,1
102.00,122.07,1
62.00,122.38,1
184.00,121.95,1
88.00,121.88,1
65.00,121.30,1
130.00,119.72,1
203.00,118.93,1
126.00,119.88,1
136.00,121.52,1
97.00,122.84,1
149.00,123.74,1
257.00,125.72,1
152.00,129.81,1
139.00,134.42,1
56.00,137.48,1
102.00,138.18,1
150.00,137.53,1
51.00,136.23,1
41.00,133.15,1
48.00,127.89,1
40.00,121.11,1
239.00,114.98,1
120.00,111.80,1
133.00,110.77,1
145.00,110.72,1
271.00,112.75,1
96.00,117.04,1
152.00,121.53,1
46.00,124.60,1
51.00,125.24,1
97.00,123.58,1
220.00,122.09,1
99.00,122.17,1
57.00,122.12,1
87.00,120.52,1
212.00,118.98,1
97.00,118.92,1
54.00,118.74,1
143.00,117.55,1
144.00,116.77,1
201.00,117.54,1
127.00,119.81,1
98.00,122.15,1
91.00,123.30,1
153.00,123.67,1
82.00,123.82,1
149.00,123.69,1
61.00,123.15,1
35.00,121.19,1
43.00,117.12,1
60.00,111.65,1
76.00,105.78,1
151.00,100.82,1
119.00,97.83,1
48.00,95.94,1
70.00,93.68,1
362.00,93.44,1
179.00,98.22,1
136.00,105.65,1
185.00,113.08,1
83.00,119.85,1
173.00,125.36,1
255.00,131.07,1
40.00,137.06,1
93.00,140.61,1
78.00,141.18,1
80.00,139.66,1
60.00,136.37,1
114.00,131.94,1
85.00,127.28,1
562.00,126.54,1
114.00,132.78,1
167.00,141.10,1
166.00,147.83,1
63.00,152.69,1
120.00,154.71,1
78.00,154.26,1
68.00,151.65,1
51.00,146.83,1
91.00,140.45,1
57.00,133.35,1
45.00,125.57,1
104.00,117.58,1
91.00,110.46,1
100.00,104.59,1
227.00,100.96,1
168.00,100.85,1
186.00,103.65,1
55.00,107.26,1
41.00,109.25,1
189.00,109.82,1
48.00,110.48,1
83.00,110.38,1
194.00,110.01,1
76.00,110.62,1
157.00,111.59,1
80.00,112.52,1
118.00,113.10,1
57.00,112.89,1
44.00,111.25,1
117.00,108.48,1
201.00,106.76,1
55.00,106.70,1
173.00,107.12,1
101.00,108.06,1
42.00,108.64,1
121.00,108.01,1
195.00,107.92,1
68.00,109.07,1
94.00,109.85,1
69.00,109.49,1
45.00,107.89,1
56.00,104.86,1
104.00,101.25,1
127.00,98.39,1
63.00,96.45,1
144.00,95.07,1
45.00,94.15,1
155.00,93.56,1
48.00,93.34,1
206.00,93.87,1
198.00,96.62,1
157.00,101.81,1
107.00,107.51,1
185.00,112.88,1
125.00,118.22,1
60.00,122.45,1
225.00,125.50,1
38.00,128.20,1
128.00,129.56,1
162.00,130.07,1
59.00,130.39,1
79.00,129.29,1
80.00,126.64,1
152.00,123.66,1
62.00,121.00,1
75.00,117.87,1
227.00,115.23,1
95.00,114.58,1
39.00,114.06,1
76.00,111.95,1
40.00,108.54,1
88.00,104.39,1
182.00,101.07,1
267.00,101.13,1
193.00,105.44,1
199.00,112.26,1
277.00,120.93,1
298.00,132.25,1
93.00,144.46,1
127.00,154.01,1
176.00,160.47,1
42.00,164.36,1
60.00,164.51,1
132.00,161.56,1
133.00,157.75,1
231.00,154.84,1
200.00,154.08,1
38.00,153.94,1
64.00,151.56,1
85.00,146.81,1
40.00,140.59,1
84.00,133.26,1
294.00,127.43,1
161.00,125.70,1
44.00,125.70,1
182.00,125.10,1
83.00,124.57,1
41.00,123.26,1
46.00,119.95,1
51.00,114.98,1
173.00,110.05,1
173.00,107.38,1
222.00,107.95,1
96.00,110.75,1
71.00,113.22,1
94.00,114.09,1
74.00,113.72,1
157.00,112.97,1
38.00,112.19,1
76.00,110.44,1
150.00,108.27,1
233.00,108.09,1
193.00,111.14,1
90.00,115.66,1
261.00,120.51,1
80.00,125.95,1
87.00,130.12,1
38.00,131.38,1
36.00,129.58,1
108.00,125.73,1
88.00,121.46,1
119.00,117.53,1
138.00,114.49,1
54.00,112.11,1
52.00,109.05,1
40.00,104.75,1
201.00,100.77,1
112.00,98.99,1
44.00,98.24,1
42.00,96.42,1
41.00,93.25,1
123.00,89.78,1
323.00,89.24,1
73.00,92.85,1
69.00,96.98,1
38.00,98.97,1
64.00,98.95,1
106.00,97.91,1
118.00,97.14,1
230.00,98.06,1
64.00,100.84,1
64.00,103.11,1
65.00,103.53,1
61.00,102.53,1
74.00,100.53,1
34.00,97.69,1
64.00,94.00,1
74.00,90.03,1
82.00,86.46,1
39.00,83.19,1
88.00,80.00,1
111.00,77.62,1
71.00,76.41,1
55.00,75.50,1
55.00,74.27,1
71.00,72.82,1
142.00,72.11,1
98.00,72.94,1
49.00,74.35,1
72.00,75.19,1
101.00,75.76,1
113.00,76.90,1
82.00,78.62,1
75.00,80.23,1
55.00,81.16,1
73.00,81.33,1
71.00,81.01,1
164.00,81.23,1
37.00,82.32,1
57.00,82.86,1
252.00,83.87,1
142.00,87.67,1
36.00,92.38,1
68.00,95.24,1
137.00,96.81,1
50.00,98.04,1
100.00,98.52,1
90.00,98.44,1
128.00,98.49,1
120.00,99.12,1
50.00,99.78,1
66.00,99.34,1
97.00,98.03,1
44.00,96.29,1
112.00,94.24,1
81.00,92.45,1
47.00,90.69,1
82.00,88.47,1
182.00,87.11,1
178.00,88.37,1
130.00,91.92,1
44.00,95.57,1
89.00,97.71,1
116.00,98.90,1
83.00,99.87,1
164.00,100.99,1
39.00,102.22,1
38.00,102.08,1
63.00,100.06,1
74.00,97.19,1
36.00,93.83,1
49.00,89.78,1
49.00,85.24,1
36.00,80.47,1
37.00,75.49,1
36.00,70.41,1
60.00,65.62,1
67.00,61.65,1
148.00,59.43,1
63.00,59.29,1
55.00,59.95,1
182.00,61.41,1
197.00,65.58,1
52.00,71.81,1
85.00,77.36,1
100.00,81.68,1
103.00,85.47,1
71.00,88.64,1
75.00,90.76,1
79.00,91.83,1
50.00,91.95,1
69.00,91.04,1
141.00,90.05,1
60.00,89.73,1
103.00,89.53,1
58.00,89.09,1
86.00,88.33,1
45.00,87.10,1
80.00,85.39,1
39.00,83.28,1
72.00,80.82,1
59.00,78.28,1
88.00,76.06,1
58.00,74.28,1
52.00,72.58,1
54.00,70.68,1
45.00,68.59,1
44.00,66.28,1
89.00,64.18,1
63.00,62.81,1
126.00,62.51,1
101.00,63.67,1
42.00,65.51,1
198.00,67.90,1
73.00,71.73,1
100.00,75.94,1
62.00,79.39,1
124.00,82.27,1
45.00,84.67,1
59.00,85.95,1
70.00,86.01,1
150.00,86.09,1
132.00,87.47,1
138.00,90.19,1
66.00,93.21,1
43.00,95.00,1
41.00,94.80,1
76.00,93.19,1
73.00,91.08,1
84.00,88.99,1
62.00,86.96,1
56.00,84.73,1
35.00,81.95,1
44.00,78.54,1
118.00,75.34,1
42.00,73.08,1
87.00,71.33,1
42.00,69.78,1
38.00,68.02,1
112.00,66.33,1
54.00,65.48,1
46.00,64.86,1
110.00,64.37,1
43.00,64.42,1
77.00,64.59,1
79.00,64.86,1
122.00,65.88,1
93.00,67.92,1
46.00,70.15,1
240.00,73.04,1
48.00,77.58,1
57.00,81.71,1
78.00,84.13,1
219.00,86.76,1
354.00,93.11,1
58.00,103.01,1
240.00,113.00,1
53.00,121.74,1
76.00,127.83,1
37.00,130.19,1
61.00,129.43,1
52.00,126.32,1
124.00,122.15,1
82.00,118.09,1
63.00,114.01,1
40.00,109.19,1
57.00,103.56,1
70.00,97.71,1
55.00,92.11,1
220.00,88.14,1
78.00,86.93,1
56.00,86.72,1
54.00,85.69,1
63.00,83.95,1
93.00,82.10,1
102.00,80.89,1
86.00,80.46,1
97.00,80.54,1
59.00,80.75,1
161.00,81.35,1
118.00,83.24,1
88.00,85.95,1
65.00,88.13,1
187.00,90.23,1
115.00,93.41,1
109.00,97.10,1
51.00,99.87,1
62.00,100.92,1
40.00,100.13,1
47.00,97.79,1
186.00,95.41,1
131.00,95.02,1
329.00,98.02,1
99.00,104.42,1
71.00,110.78,1
72.00,114.53,1
48.00,115.75,1
99.00,115.04,1
115.00,113.68,1
147.00,112.82,1
90.00,112.57,1
155.00,112.64,1
166.00,113.64,1
164.00,116.05,1
241.00,120.12,1
58.00,125.06,1
108.00,128.52,1
52.00,129.58,1
150.00,129.10,1
97.00,128.17,1
132.00,127.16,1
52.00,125.61,1
53.00,122.65,1
101.00,118.48,1
42.00,113.84,1
37.00,108.38,1
91.00,102.34,1
49.00,96.59,1
128.00,91.64,1
130.00,88.45,1
83.00,87.01,1
102.00,86.33,1
65.00,85.87,1
36.00,84.89,1
85.00,83.18,1
85.00,81.53,1
166.00,81.06,1
110.00,82.40,1
216.00,85.66,1
83.00,90.50,1
84.00,95.03,1
84.00,98.10,1
138.00,100.41,1
127.00,102.88,1
174.00,106.03,1
317.00,111.48,1
83.00,119.35,1
75.00,126.00,1
59.00,129.27,1
74.00,129.65,1
48.00,127.74,1
82.00,124.14,1
41.00,119.36,1
105.00,114.00,1
39.00,108.54,1
38.00,102.62,1
290.00,98.08,1
140.00,97.73,1
164.00,100.31,1
48.00,103.23,1
132.00,105.26,1
60.00,106.40,1
77.00,106.47,1
127.00,105.80,1
113.00,105.46,1
103.00,105.49,1
268.00,106.90,1
76.00,110.35,1
185.00,114.34,1
121.00,118.29,1
69.00,121.47,1
61.00,122.51,1
101.00,121.62,1
99.00,119.92,1
105.00,117.99,1
86.00,115.88,1
184.00,114.26,1
111.00,113.94,1
141.00,114.45,1
54.00,114.76,1
61.00,113.75,1
214.00,112.43,1
710.00,117.69,1
61.00,132.06,1
80.00,146.15,1
40.00,154.15,1
