35.00,34.99,0
35.00,34.99,0
35.00,34.99,0
35.00,34.99,0
35.00,34.99,0
34.00,34.99,0
36.00,34.97,0
35.00,34.97,0
36.00,34.99,0
34.00,35.01,0
36.00,35.03,0
34.00,35.04,0
36.00,35.05,0
34.00,35.05,0
36.00,35.05,0
34.00,35.05,0
35.00,35.04,0
34.00,35.01,0
35.00,34.98,0
34.00,34.93,0
35.00,34.89,0
35.00,34.84,0
35.00,34.82,0
35.00,34.81,0
35.00,34.80,0
35.00,34.80,0
35.00,34.81,0
34.00,34.82,0
35.00,34.81,0
36.00,34.81,0
35.00,34.84,0
36.00,34.88,0
35.00,34.93,0
36.00,34.99,0
35.00,35.05,0
36.00,35.11,0
35.00,35.17,0
36.00,35.22,0
34.00,35.27,0
36.00,35.29,0
35.00,35.31,0
36.00,35.33,0
34.00,35.34,0
36.00,35.34,0
35.00,35.33,0
36.00,35.34,0
34.00,35.33,0
36.00,35.32,0
34.00,35.30,0
36.00,35.28,0
34.00,35.25,0
34.00,35.20,0
34.00,35.13,0
35.00,35.04,0
35.00,34.97,0
34.00,34.90,0
35.00,34.84,0
34.00,34.78,0
35.00,34.73,0
35.00,34.69,0
35.00,34.67,0
35.00,34.66,0
36.00,34.68,0
34.00,34.71,0
35.00,34.74,0
35.00,34.75,0
36.00,34.79,0
34.00,34.82,0
36.00,34.86,0
35.00,34.90,0
35.00,34.94,0
35.00,34.98,0
36.00,35.01,0
35.00,35.05,0
36.00,35.10,0
34.00,35.14,0
36.00,35.17,0
34.00,35.18,0
36.00,35.19,0
35.00,35.19,0
35.00,35.20,0
35.00,35.20,0
35.00,35.19,0
35.00,35.18,0
35.00,35.16,0
36.00,35.15,0
35.00,35.16,0
35.00,35.17,0
35.00,35.16,0
34.00,35.15,0
35.00,35.12,0
36.00,35.09,0
35.00,35.08,0
36.00,35.09,0
34.00,35.10,0
36.00,35.11,0
34.00,35.11,0
35.00,35.10,0
34.00,35.07,0
36.00,35.04,0
34.00,35.01,0
35.00,34.98,0
35.00,34.95,0
36.00,34.94,0
35.00,34.95,0
35.00,34.97,0
34.00,34.97,0
36.00,34.97,0
35.00,34.98,0
36.00,35.00,0
35.00,35.03,0
35.00,35.07,0
35.00,35.09,0
35.00,35.10,0
35.00,35.11,0
34.00,35.11,0
35.00,35.08,0
35.00,35.05,0
35.00,35.03,0
34.00,35.00,0
36.00,34.97,0
35.00,34.96,0
35.00,34.96,0
35.00,34.96,0
36.00,34.97,0
34.00,34.99,0
36.00,35.00,0
34.00,35.01,0
35.00,35.01,0
34.00,34.99,0
36.00,34.97,0
34.00,34.96,0
36.00,34.94,0
34.00,34.94,0
35.00,34.93,0
35.00,34.91,0
35.00,34.91,0
34.00,34.90,0
36.00,34.88,0
34.00,34.88,0
35.00,34.87,0
35.00,34.86,0
35.00,34.85,0
35.00,34.86,0
35.00,34.86,0
35.00,34.87,0
35.00,34.88,0
35.00,34.90,0
35.00,34.91,0
35.00,34.92,0
35.00,34.93,0
35.00,34.95,0
35.00,34.96,0
35.00,34.97,0
35.00,34.97,0
36.00,34.99,0
35.00,35.02,0
36.00,35.06,0
35.00,35.10,0
37.00,35.15,0
34.00,35.21,0
36.00,35.26,0
35.00,35.30,0
36.00,35.33,0
34.00,35.35,0
36.00,35.36,0
35.00,35.36,0
36.00,35.37,0
35.00,35.37,0
36.00,35.39,0
35.00,35.40,0
36.00,35.41,0
34.00,35.41,0
35.00,35.39,0
35.00,35.36,0
35.00,35.32,0
35.00,35.28,0
34.00,35.23,0
36.00,35.18,0
35.00,35.14,0
35.00,35.12,0
35.00,35.09,0
36.00,35.08,0
35.00,35.09,0
35.00,35.10,0
35.00,35.10,0
36.00,35.11,0
34.00,35.12,0
35.00,35.11,0
34.00,35.09,0
36.00,35.06,0
35.00,35.05,0
36.00,35.05,0
36.00,35.07,0
37.00,35.13,0
35.00,35.21,0
36.00,35.29,0
35.00,35.36,0
36.00,35.42,0
34.00,35.45,0
36.00,35.47,0
34.00,35.46,0
36.00,35.44,0
35.00,35.42,0
35.00,35.40,0
35.00,35.37,0
35.00,35.33,0
35.00,35.30,0
35.00,35.26,0
35.00,35.22,0
35.00,35.19,0
35.00,35.15,0
35.00,35.12,0
35.00,35.09,0
35.00,35.07,0
36.00,35.06,0
35.00,35.06,0
36.00,35.08,0
35.00,35.11,0
35.00,35.14,0
34.00,35.14,0
36.00,35.13,0
34.00,35.12,0
36.00,35.11,0
34.00,35.10,0
36.00,35.09,0
34.00,35.07,0
36.00,35.06,0
35.00,35.06,0
36.00,35.07,0
35.00,35.09,0
36.00,35.13,0
35.00,35.16,0
35.00,35.19,0
35.00,35.21,0
35.00,35.21,0
35.00,35.21,0
35.00,35.20,0
35.00,35.19,0
36.00,35.18,0
35.00,35.18,0
35.00,35.19,0
35.00,35.19,0
35.00,35.18,0
36.00,35.18,0
35.00,35.18,0
35.00,35.19,0
35.00,35.19,0
35.00,35.19,0
35.00,35.17,0
35.00,35.16,0
34.00,35.14,0
36.00,35.11,0
35.00,35.09,0
36.00,35.09,0
35.00,35.10,0
36.00,35.12,0
35.00,35.15,0
36.00,35.19,0
34.00,35.21,0
36.00,35.23,0
35.00,35.24,0
36.00,35.26,0
34.00,35.27,0
35.00,35.26,0
35.00,35.24,0
34.00,35.21,0
35.00,35.16,0
35.00,35.11,0
35.00,35.07,0
35.00,35.03,0
35.00,35.00,0
35.00,34.98,0
35.00,34.97,0
35.00,34.96,0
35.00,34.95,0
35.00,34.95,0
35.00,34.95,0
34.00,34.94,0
35.00,34.92,0
34.00,34.89,0
36.00,34.86,0
34.00,34.85,0
36.00,34.84,0
35.00,34.85,0
36.00,34.88,0
34.00,34.91,0
37.00,34.95,0
34.00,34.99,0
35.00,35.03,0
35.00,35.05,0
36.00,35.07,0
34.00,35.09,0
36.00,35.10,0
34.00,35.11,0
36.00,35.11,0
35.00,35.12,0
35.00,35.12,0
35.00,35.13,0
35.00,35.12,0
35.00,35.12,0
35.00,35.11,0
35.00,35.10,0
34.00,35.08,0
36.00,35.06,0
34.00,35.03,0
36.00,35.02,0
34.00,35.00,0
36.00,34.99,0
34.00,34.99,0
36.00,34.98,0
34.00,34.98,0
35.00,34.97,0
34.00,34.94,0
36.00,34.92,0
35.00,34.91,0
35.00,34.92,0
35.00,34.92,0
35.00,34.93,0
35.00,34.94,0
36.00,34.96,0
35.00,34.99,0
36.00,35.03,0
34.00,35.07,0
35.00,35.08,0
35.00,35.09,0
36.00,35.09,0
35.00,35.11,0
35.00,35.13,0
35.00,35.14,0
35.00,35.15,0
35.00,35.14,0
35.00,35.14,0
35.00,35.13,0
35.00,35.12,0
35.00,35.10,0
35.00,35.09,0
36.00,35.09,0
34.00,35.09,0
36.00,35.09,0
34.00,35.08,0
35.00,35.07,0
36.00,35.06,0
35.00,35.06,0
34.00,35.06,0
35.00,35.05,0
35.00,35.02,0
35.00,35.00,0
35.00,34.99,0
36.00,34.99,0
35.00,35.00,0
35.00,35.02,0
34.00,35.03,0
36.00,35.03,0
35.00,35.03,0
35.00,35.04,0
35.00,35.05,0
35.00,35.05,0
35.00,35.05,0
34.00,35.04,0
35.00,35.02,0
35.00,34.99,0
35.00,34.97,0
34.00,34.94,0
35.00,34.91,0
35.00,34.88,0
35.00,34.86,0
34.00,34.85,0
36.00,34.83,0
35.00,34.83,0
35.00,34.84,0
35.00,34.86,0
36.00,34.89,0
35.00,34.93,0
36.00,34.98,0
34.00,35.02,0
36.00,35.06,0
35.00,35.09,0
35.00,35.12,0
35.00,35.14,0
35.00,35.15,0
34.00,35.14,0
36.00,35.12,0
34.00,35.11,0
35.00,35.08,0
34.00,35.04,0
35.00,35.00,0
35.00,34.95,0
37.00,34.94,0
35.00,34.96,0
35.00,35.00,0
35.00,35.03,0
35.00,35.05,0
36.00,35.07,0
35.00,35.10,0
35.00,35.13,0
34.00,35.14,0
36.00,35.13,0
34.00,35.12,0
35.00,35.10,0
35.00,35.08,0
35.00,35.05,0
35.00,35.03,0
36.00,35.03,0
35.00,35.04,0
36.00,35.06,0
35.00,35.09,0
36.00,35.13,0
34.00,35.16,0
35.00,35.17,0
34.00,35.16,0
36.00,35.14,0
34.00,35.11,0
35.00,35.08,0
35.00,35.05,0
35.00,35.02,0
35.00,35.00,0
35.00,34.99,0
35.00,34.97,0
35.00,34.97,0
35.00,34.96,0
35.00,34.96,0
36.00,34.97,0
35.00,34.99,0
35.00,35.02,0
34.00,35.03,0
36.00,35.03,0
34.00,35.03,0
35.00,35.02,0
34.00,34.99,0
35.00,34.96,0
35.00,34.92,0
36.00,34.91,0
34.00,34.91,0
36.00,34.91,0
34.00,34.92,0
36.00,34.92,0
35.00,34.94,0
36.00,34.97,0
35.00,35.01,0
36.00,35.06,0
34.00,35.10,0
36.00,35.13,0
35.00,35.16,0
35.00,35.18,0
35.00,35.19,0
35.00,35.19,0
35.00,35.19,0
36.00,35.19,0
35.00,35.20,0
35.00,35.20,0
36.00,35.21,0
35.00,35.23,0
35.00,35.24,0
35.00,35.24,0
35.00,35.24,0
34.00,35.22,0
36.00,35.18,0
35.00,35.16,0
35.00,35.15,0
35.00,35.13,0
35.00,35.12,0
34.00,35.09,0
36.00,35.06,0
34.00,35.04,0
36.00,35.02,0
34.00,35.00,0
35.00,34.98,0
35.00,34.96,0
36.00,34.95,0
35.00,34.96,0
35.00,34.98,0
34.00,34.99,0
35.00,34.98,0
35.00,34.96,0
35.00,34.95,0
35.00,34.94,0
35.00,34.94,0
35.00,34.94,0
35.00,34.94,0
35.00,34.94,0
35.00,34.95,0
36.00,34.96,0
35.00,34.99,0
36.00,35.03,0
35.00,35.07,0
36.00,35.12,0
35.00,35.17,0
35.00,35.21,0
35.00,35.23,0
35.00,35.24,0
35.00,35.24,0
35.00,35.23,0
35.00,35.22,0
36.00,35.21,0
35.00,35.21,0
36.00,35.22,0
35.00,35.24,0
36.00,35.26,0
35.00,35.29,0
35.00,35.31,0
35.00,35.31,0
34.00,35.29,0
35.00,35.25,0
36.00,35.22,0
35.00,35.20,0
35.00,35.18,0
36.00,35.18,0
35.00,35.18,0
35.00,35.19,0
35.00,35.19,0
36.00,35.19,0
34.00,35.19,0
35.00,35.18,0
34.00,35.15,0
35.00,35.10,0
35.00,35.05,0
36.00,35.03,0
35.00,35.02,0
35.00,35.02,0
34.00,35.02,0
36.00,35.00,0
35.00,35.00,0
36.00,35.01,0
34.00,35.03,0
36.00,35.05,0
34.00,35.05,0
36.00,35.06,0
35.00,35.07,0
35.00,35.08,0
35.00,35.09,0
34.00,35.09,0
35.00,35.06,0
35.00,35.03,0
35.00,35.01,0
35.00,34.99,0
35.00,34.98,0
35.00,34.97,0
35.00,34.96,0
35.00,34.96,0
35.00,34.96,0
35.00,34.96,0
35.00,34.96,0
35.00,34.96,0
35.00,34.97,0
35.00,34.97,0
36.00,34.98,0
35.00,35.01,0
35.00,35.04,0
35.00,35.06,0
35.00,35.07,0
34.00,35.07,0
36.00,35.06,0
34.00,35.05,0
36.00,35.04,0
34.00,35.03,0
36.00,35.02,0
34.00,35.02,0
35.00,35.00,0
35.00,34.98,0
34.00,34.96,0
34.00,34.92,0
35.00,34.87,0
35.00,34.83,0
35.00,34.80,0
35.00,34.78,0
35.00,34.78,0
36.00,34.79,0
34.00,34.82,0
35.00,34.83,0
35.00,34.84,0
35.00,34.86,0
35.00,34.87,0
36.00,34.89,0
34.00,34.92,0
36.00,34.95,0
34.00,34.97,0
35.00,34.98,0
35.00,34.98,0
36.00,34.99,0
34.00,35.00,0
34.00,35.00,0
35.00,34.97,0
36.00,34.95,0
35.00,34.95,0
36.00,34.97,0
35.00,35.00,0
35.00,35.04,0
35.00,35.06,0
35.00,35.08,0
35.00,35.09,0
35.00,35.09,0
35.00,35.09,0
35.00,35.09,0
34.00,35.07,0
34.00,35.04,0
35.00,34.98,0
35.00,34.93,0
35.00,34.90,0
35.00,34.88,0
35.00,34.86,0
34.00,34.85,0
36.00,34.83,0
34.00,34.83,0
36.00,34.83,0
34.00,34.84,0
36.00,34.85,0
34.00,34.86,0
36.00,34.88,0
34.00,34.89,0
35.00,34.90,0
35.00,34.90,0
36.00,34.91,0
34.00,34.93,0
36.00,34.95,0
34.00,34.96,0
36.00,34.98,0
35.00,35.00,0
35.00,35.02,0
35.00,35.03,0
35.00,35.05,0
35.00,35.05,0
35.00,35.06,0
35.00,35.06,0
35.00,35.06,0
36.00,35.06,0
35.00,35.08,0
35.00,35.10,0
34.00,35.10,0
36.00,35.09,0
35.00,35.09,0
36.00,35.10,0
35.00,35.13,0
36.00,35.16,0
35.00,35.19,0
36.00,35.23,0
34.00,35.25,0
36.00,35.27,0
34.00,35.27,0
36.00,35.26,0
34.00,35.25,0
35.00,35.22,0
34.00,35.17,0
35.00,35.12,0
35.00,35.06,0
36.00,35.03,0
34.00,35.01,0
35.00,34.98,0
35.00,34.96,0
34.00,34.93,0
36.00,34.91,0
35.00,34.90,0
35.00,34.90,0
36.00,34.92,0
35.00,34.95,0
35.00,34.98,0
36.00,35.02,0
35.00,35.06,0
36.00,35.11,0
34.00,35.15,0
36.00,35.17,0
35.00,35.19,0
36.00,35.22,0
34.00,35.24,0
36.00,35.25,0
34.00,35.25,0
36.00,35.24,0
34.00,35.22,0
36.00,35.21,0
34.00,35.18,0
36.00,35.16,0
35.00,35.15,0
36.00,35.15,0
34.00,35.15,0
36.00,35.15,0
35.00,35.15,0
36.00,35.17,0
35.00,35.19,0
35.00,35.20,0
35.00,35.21,0
34.00,35.20,0
35.00,35.17,0
35.00,35.13,0
35.00,35.10,0
35.00,35.07,0
36.00,35.06,0
34.00,35.05,0
35.00,35.04,0
35.00,35.02,0
35.00,35.00,0
35.00,34.99,0
36.00,34.99,0
35.00,35.00,0
35.00,35.03,0
34.00,35.03,0
36.00,35.03,0
34.00,35.02,0
36.00,35.02,0
34.00,35.02,0
36.00,35.01,0
35.00,35.02,0
36.00,35.04,0
34.00,35.06,0
36.00,35.07,0
34.00,35.08,0
36.00,35.09,0
34.00,35.09,0
35.00,35.08,0
35.00,35.06,0
35.00,35.04,0
35.00,35.03,0
35.00,35.02,0
35.00,35.01,0
35.00,35.00,0
35.00,34.99,0
35.00,34.99,0
36.00,35.00,0
35.00,35.02,0
36.00,35.05,0
35.00,35.09,0
36.00,35.13,0
35.00,35.18,0
35.00,35.21,0
35.00,35.23,0
36.00,35.25,0
34.00,35.26,0
36.00,35.26,0
34.00,35.26,0
36.00,35.24,0
33.00,35.21,0
36.00,35.17,0
34.00,35.12,0
36.00,35.08,0
34.00,35.05,0
36.00,35.02,0
34.00,35.00,0
36.00,34.99,0
34.00,34.97,0
35.00,34.96,0
35.00,34.94,0
35.00,34.93,0
35.00,34.92,0
35.00,34.92,0
36.00,34.92,0
36.00,34.96,0
35.00,35.01,0
35.00,35.06,0
36.00,35.10,0
34.00,35.14,0
36.00,35.16,0
35.00,35.18,0
36.00,35.21,0
34.00,35.23,0
36.00,35.24,0
34.00,35.24,0
36.00,35.23,0
34.00,35.21,0
37.00,35.21,0
34.00,35.21,0
36.00,35.21,0
34.00,35.21,0
36.00,35.20,0
34.00,35.18,0
36.00,35.16,0
34.00,35.15,0
36.00,35.13,0
34.00,35.11,0
36.00,35.09,0
34.00,35.08,0
35.00,35.05,0
35.00,35.02,0
35.00,35.00,0
35.00,34.99,0
35.00,34.97,0
35.00,34.97,0
35.00,34.96,0
36.00,34.97,0
34.00,34.98,0
35.00,34.98,0
35.00,34.98,0
36.00,34.98,0
35.00,35.00,0
35.00,35.03,0
35.00,35.04,0
36.00,35.06,0
36.00,35.10,0
36.00,35.16,0
35.00,35.23,0
36.00,35.28,0
34.00,35.33,0
37.00,35.36,0
34.00,35.38,0
36.00,35.40,0
35.00,35.41,0
36.00,35.42,0
34.00,35.42,0
36.00,35.40,0
35.00,35.39,0
35.00,35.37,0
34.00,35.34,0
35.00,35.29,0
36.00,35.24,0
35.00,35.21,0
35.00,35.19,0
35.00,35.17,0
35.00,35.15,0
35.00,35.12,0
35.00,35.10,0
35.00,35.08,0
35.00,35.07,0
34.00,35.04,0
35.00,35.01,0
35.00,34.97,0
36.00,34.95,0
34.00,34.95,0
36.00,34.95,0
35.00,34.96,0
36.00,34.98,0
35.00,35.02,0
36.00,35.06,0
35.00,35.11,0
36.00,35.16,0
35.00,35.21,0
36.00,35.25,0
35.00,35.30,0
36.00,35.34,0
35.00,35.37,0
36.00,35.40,0
34.00,35.42,0
36.00,35.42,0
34.00,35.41,0
35.00,35.38,0
36.00,35.34,0
35.00,35.32,0
35.00,35.30,0
35.00,35.27,0
35.00,35.24,0
35.00,35.22,0
35.00,35.19,0
35.00,35.16,0
35.00,35.13,0
35.00,35.11,0
36.00,35.09,0
35.00,35.10,0
36.00,35.11,0
34.00,35.13,0
35.00,35.13,0
35.00,35.11,0
35.00,35.10,0
34.00,35.08,0
35.00,35.04,0
35.00,35.01,0
36.00,34.99,0
35.00,34.99,0
36.00,35.01,0
34.00,35.03,0
36.00,35.04,0
35.00,35.06,0
36.00,35.09,0
34.00,35.12,0
36.00,35.13,0
35.00,35.15,0
35.00,35.17,0
35.00,35.17,0
35.00,35.17,0
35.00,35.17,0
35.00,35.16,0
35.00,35.14,0
35.00,35.13,0
35.00,35.11,0
35.00,35.10,0
35.00,35.08,0
35.00,35.07,0
36.00,35.06,0
35.00,35.07,0
36.00,35.10,0
35.00,35.13,0
35.00,35.15,0
35.00,35.17,0
36.00,35.18,0
34.00,35.20,0
36.00,35.20,0
35.00,35.20,0
36.00,35.22,0
34.00,35.23,0
35.00,35.22,0
35.00,35.20,0
35.00,35.18,0
34.00,35.14,0
36.00,35.11,0
35.00,35.08,0
35.00,35.07,0
35.00,35.06,0
35.00,35.05,0
35.00,35.04,0
35.00,35.03,0
35.00,35.02,0
35.00,35.02,0
35.00,35.01,0
35.00,35.01,0
35.00,35.00,0
34.00,34.99,0
35.00,34.97,0
35.00,34.94,0
35.00,34.92,0
35.00,34.91,0
36.00,34.92,0
34.00,34.93,0
36.00,34.94,0
34.00,34.95,0
35.00,34.95,0
34.00,34.94,0
35.00,34.92,0
35.00,34.89,0
35.00,34.88,0
35.00,34.87,0
35.00,34.87,0
34.00,34.86,0
36.00,34.86,0
35.00,34.86,0
35.00,34.88,0
36.00,34.91,0
34.00,34.94,0
35.00,34.96,0
35.00,34.96,0
35.00,34.97,0
35.00,34.98,0
35.00,34.98,0
35.00,34.99,0
34.00,34.98,0
35.00,34.96,0
35.00,34.94,0
35.00,34.93,0
35.00,34.92,0
35.00,34.91,0
36.00,34.92,0
35.00,34.95,0
36.00,34.98,0
34.00,35.02,0
36.00,35.05,0
34.00,35.07,0
35.00,35.07,0
34.00,35.06,0
36.00,35.03,0
35.00,35.02,0
35.00,35.02,0
34.00,35.02,0
36.00,35.00,0
34.00,34.99,0
35.00,34.97,0
35.00,34.95,0
34.00,34.93,0
35.00,34.90,0
35.00,34.87,0
35.00,34.85,0
34.00,34.84,0
36.00,34.82,0
35.00,34.82,0
35.00,34.84,0
35.00,34.86,0
36.00,34.88,0
34.00,34.92,0
36.00,34.94,0
35.00,34.97,0
36.00,35.01,0
35.00,35.06,0
35.00,35.10,0
35.00,35.13,0
36.00,35.16,0
35.00,35.19,0
36.00,35.22,0
35.00,35.26,0
35.00,35.28,0
35.00,35.29,0
35.00,35.29,0
34.00,35.27,0
36.00,35.24,0
35.00,35.22,0
35.00,35.20,0
35.00,35.18,0
35.00,35.16,0
34.00,35.13,0
35.00,35.09,0
35.00,35.04,0
35.00,35.01,0
35.00,34.98,0
34.00,34.95,0
35.00,34.92,0
36.00,34.89,0
35.00,34.89,0
35.00,34.91,0
35.00,34.92,0
35.00,34.93,0
35.00,34.94,0
35.00,34.95,0
36.00,34.97,0
35.00,35.00,0
36.00,35.04,0
34.00,35.08,0
36.00,35.11,0
35.00,35.13,0
36.00,35.16,0
34.00,35.19,0
35.00,35.19,0
34.00,35.17,0
35.00,35.14,0
35.00,35.10,0
35.00,35.06,0
35.00,35.03,0
34.00,35.00,0
35.00,34.96,0
35.00,34.93,0
37.00,34.92,0
35.00,34.95,0
35.00,34.99,0
35.00,35.02,0
37.00,35.06,0
35.00,35.12,0
36.00,35.18,0
35.00,35.25,0
35.00,35.29,0
34.00,35.31,0
35.00,35.30,0
35.00,35.27,0
35.00,35.24,0
34.00,35.20,0
35.00,35.15,0
34.00,35.08,0
36.00,35.03,0
35.00,34.99,0
36.00,34.98,0
35.00,34.99,0
36.00,35.01,0
35.00,35.05,0
35.00,35.08,0
35.00,35.10,0
35.00,35.11,0
35.00,35.12,0
35.00,35.12,0
35.00,35.12,0
35.00,35.11,0
35.00,35.10,0
35.00,35.09,0
35.00,35.08,0
35.00,35.07,0
36.00,35.07,0
34.00,35.07,0
35.00,35.07,0
35.00,35.05,0
35.00,35.04,0
35.00,35.02,0
35.00,35.02,0
34.00,35.00,0
35.00,34.97,0
34.00,34.93,0
36.00,34.90,0
34.00,34.87,0
35.00,34.85,0
35.00,34.83,0
36.00,34.83,0
35.00,34.85,0
36.00,34.89,0
35.00,34.94,0
35.00,34.99,0
35.00,35.02,0
35.00,35.05,0
35.00,35.07,0
33.00,35.06,0
36.00,35.03,0
36.00,35.02,0
35.00,35.03,0
35.00,35.05,0
36.00,35.07,0
35.00,35.09,0
35.00,35.12,0
34.00,35.13,0
35.00,35.12,0
34.00,35.08,0
35.00,35.04,0
34.00,34.99,0
36.00,34.94,0
35.00,34.92,0
36.00,34.92,0
34.00,34.93,0
36.00,34.94,0
35.00,34.96,0
35.00,34.98,0
34.00,34.99,0
36.00,34.99,0
34.00,34.99,0
35.00,34.99,0
34.00,34.96,0
35.00,34.93,0
35.00,34.90,0
34.00,34.87,0
35.00,34.84,0
35.00,34.81,0
36.00,34.80,0
35.00,34.82,0
35.00,34.85,0
35.00,34.87,0
35.00,34.90,0
35.00,34.92,0
35.00,34.94,0
35.00,34.96,0
36.00,34.98,0
35.00,35.01,0
35.00,35.05,0
35.00,35.07,0
35.00,35.09,0
35.00,35.10,0
36.00,35.11,0
35.00,35.13,0
36.00,35.16,0
35.00,35.19,0
35.00,35.22,0
35.00,35.23,0
35.00,35.24,0
34.00,35.22,0
36.00,35.19,0
34.00,35.17,0
35.00,35.13,0
34.00,35.09,0
35.00,35.03,0
35.00,34.98,0
35.00,34.94,0
35.00,34.91,0
34.00,34.89,0
35.00,34.86,0
35.00,34.83,0
35.00,34.81,0
35.00,34.81,0
36.00,34.82,0
35.00,34.85,0
36.00,34.89,0
35.00,34.95,0
36.00,35.01,0
34.00,35.06,0
37.00,35.11,0
34.00,35.16,0
36.00,35.20,0
35.00,35.23,0
36.00,35.26,0
34.00,35.29,0
35.00,35.29,0
35.00,35.27,0
36.00,35.26,0
34.00,35.25,0
36.00,35.23,0
35.00,35.22,0
35.00,35.21,0
36.00,35.21,0
35.00,35.21,0
36.00,35.23,0
35.00,35.25,0
36.00,35.27,0
34.00,35.29,0
36.00,35.29,0
35.00,35.29,0
36.00,35.30,0
34.00,35.30,0
36.00,35.30,0
34.00,35.28,0
36.00,35.26,0
34.00,35.24,0
36.00,35.21,0
34.00,35.18,0
37.00,35.17,0
34.00,35.16,0
36.00,35.16,0
34.00,35.16,0
37.00,35.16,0
34.00,35.17,0
36.00,35.18,0
34.00,35.18,0
37.00,35.19,0
35.00,35.21,0
36.00,35.24,0
35.00,35.28,0
35.00,35.30,0
36.00,35.32,0
35.00,35.34,0
35.00,35.35,0
35.00,35.35,0
36.00,35.34,0
34.00,35.34,0
36.00,35.32,0
34.00,35.30,0
36.00,35.27,0
35.00,35.25,0
37.00,35.25,0
34.00,35.26,0
38.00,35.29,0
33.00,35.33,0
36.00,35.35,0
34.00,35.34,0
37.00,35.33,0
33.00,35.32,0
36.00,35.30,0
34.00,35.26,0
36.00,35.22,0
34.00,35.19,0
35.00,35.15,0
34.00,35.09,0
36.00,35.04,0
34.00,35.00,0
35.00,34.96,0
35.00,34.92,0
35.00,34.90,0
35.00,34.88,0
34.00,34.87,0
35.00,34.84,0
35.00,34.82,0
36.00,34.82,0
33.00,34.82,0
36.00,34.81,0
34.00,34.81,0
36.00,34.81,0
35.00,34.82,0
37.00,34.86,0
34.00,34.93,0
37.00,34.99,0
34.00,35.06,0
37.00,35.12,0
33.00,35.18,0
38.00,35.22,0
33.00,35.26,0
37.00,35.30,0
33.00,35.31,0
36.00,35.30,0
33.00,35.27,0
35.00,35.21,0
34.00,35.13,0
36.00,35.06,0
34.00,35.01,0
35.00,34.96,0
35.00,34.91,0
35.00,34.88,0
36.00,34.87,0
35.00,34.88,0
36.00,34.91,0
34.00,34.94,0
35.00,34.96,0
35.00,34.97,0
36.00,34.99,0
34.00,35.01,0
36.00,35.02,0
34.00,35.03,0
36.00,35.04,0
34.00,35.04,0
36.00,35.05,0
34.00,35.05,0
36.00,35.04,0
34.00,35.04,0
35.00,35.03,0
35.00,35.01,0
36.00,35.00,0
34.00,35.01,0
36.00,35.01,0
34.00,35.01,0
35.00,35.01,0
34.00,34.98,0
35.00,34.95,0
34.00,34.91,0
35.00,34.87,0
36.00,34.84,0
35.00,34.84,0
36.00,34.86,0
35.00,34.90,0
35.00,34.94,0
35.00,34.97,0
35.00,35.00,0
35.00,35.02,0
35.00,35.03,0
34.00,35.03,0
35.00,35.02,0
34.00,34.99,0
36.00,34.96,0
36.00,34.95,0
36.00,34.98,0
34.00,35.02,0
36.00,35.05,0
35.00,35.08,0
36.00,35.12,0
35.00,35.16,0
36.00,35.20,0
34.00,35.23,0
35.00,35.24,0
35.00,35.23,0
36.00,35.23,0
34.00,35.22,0
35.00,35.21,0
34.00,35.17,0
36.00,35.12,0
35.00,35.10,0
36.00,35.09,0
35.00,35.10,0
35.00,35.11,0
35.00,35.11,0
35.00,35.11,0
35.00,35.11,0
36.00,35.11,0
35.00,35.12,0
35.00,35.14,0
35.00,35.15,0
35.00,35.15,0
35.00,35.14,0
35.00,35.13,0
35.00,35.12,0
34.00,35.10,0
36.00,35.07,0
34.00,35.05,0
36.00,35.03,0
35.00,35.02,0
35.00,35.03,0
35.00,35.03,0
36.00,35.03,0
34.00,35.05,0
35.00,35.05,0
35.00,35.04,0
36.00,35.04,0
35.00,35.05,0
36.00,35.08,0
34.00,35.10,0
35.00,35.11,0
35.00,35.11,0
34.00,35.09,0
35.00,35.06,0
34.00,35.01,0
36.00,34.97,0
35.00,34.95,0
35.00,34.94,0
35.00,34.94,0
36.00,34.95,0
35.00,34.97,0
36.00,35.01,0
34.00,35.04,0
36.00,35.07,0
35.00,35.10,0
36.00,35.13,0
34.00,35.16,0
36.00,35.17,0
34.00,35.18,0
36.00,35.18,0
35.00,35.18,0
35.00,35.18,0
35.00,35.18,0
36.00,35.18,0
34.00,35.18,0
36.00,35.18,0
35.00,35.18,0
35.00,35.18,0
35.00,35.17,0
34.00,35.16,0
35.00,35.12,0
35.00,35.08,0
35.00,35.05,0
35.00,35.02,0
36.00,35.01,0
35.00,35.02,0
35.00,35.03,0
34.00,35.03,0
36.00,35.02,0
35.00,35.02,0
35.00,35.03,0
34.00,35.03,0
35.00,35.01,0
35.00,34.98,0
36.00,34.97,0
34.00,34.98,0
35.00,34.97,0
34.00,34.95,0
35.00,34.92,0
34.00,34.88,0
35.00,34.84,0
34.00,34.80,0
35.00,34.76,0
34.00,34.72,0
36.00,34.69,0
34.00,34.68,0
35.00,34.67,0
35.00,34.67,0
35.00,34.68,0
36.00,34.70,0
34.00,34.74,0
35.00,34.77,0
35.00,34.79,0
35.00,34.81,0
36.00,34.84,0
35.00,34.89,0
35.00,34.94,0
35.00,34.98,0
35.00,35.00,0
35.00,35.03,0
35.00,35.04,0
36.00,35.06,0
35.00,35.09,0
36.00,35.13,0
33.00,35.15,0
35.00,35.14,0
35.00,35.11,0
35.00,35.08,0
35.00,35.06,0
36.00,35.04,0
35.00,35.05,0
36.00,35.07,0
35.00,35.10,0
36.00,35.14,0
34.00,35.17,0
36.00,35.18,0
34.00,35.19,0
36.00,35.19,0
35.00,35.19,0
35.00,35.20,0
35.00,35.19,0
35.00,35.18,0
35.00,35.17,0
37.00,35.17,0
36.00,35.21,0
35.00,35.26,0
35.00,35.30,0
35.00,35.32,0
36.00,35.33,0
34.00,35.34,0
36.00,35.34,0
35.00,35.33,0
35.00,35.32,0
35.00,35.30,0
35.00,35.28,0
35.00,35.26,0
35.00,35.23,0
35.00,35.20,0
36.00,35.18,0
35.00,35.17,0
36.00,35.18,0
35.00,35.20,0
36.00,35.22,0
35.00,35.24,0
35.00,35.26,0
34.00,35.26,0
36.00,35.24,0
34.00,35.22,0
35.00,35.19,0
35.00,35.15,0
35.00,35.12,0
35.00,35.09,0
35.00,35.06,0
36.00,35.05,0
35.00,35.05,0
36.00,35.07,0
36.00,35.11,0
35.00,35.16,0
35.00,35.20,0
36.00,35.23,0
35.00,35.26,0
36.00,35.30,0
35.00,35.33,0
36.00,35.36,0
35.00,35.39,0
36.00,35.41,0
35.00,35.43,0
36.00,35.45,0
34.00,35.46,0
36.00,35.45,0
34.00,35.43,0
35.00,35.39,0
35.00,35.34,0
36.00,35.29,0
36.00,35.28,0
35.00,35.28,0
34.00,35.27,0
35.00,35.24,0
36.00,35.21,0
35.00,35.20,0
35.00,35.19,0
34.00,35.17,0
36.00,35.13,0
35.00,35.12,0
36.00,35.11,0
34.00,35.12,0
36.00,35.12,0
34.00,35.11,0
37.00,35.11,0
34.00,35.13,0
36.00,35.14,0
34.00,35.15,0
36.00,35.15,0
34.00,35.14,0
36.00,35.13,0
33.00,35.11,0
36.00,35.08,0
34.00,35.04,0
36.00,35.01,0
35.00,35.00,0
36.00,35.00,0
34.00,35.02,0
34.00,35.01,0
35.00,34.98,0
34.00,34.94,0
35.00,34.89,0
34.00,34.85,0
36.00,34.81,0
34.00,34.78,0
36.00,34.77,0
33.00,34.77,0
38.00,34.77,0
33.00,34.79,0
38.00,34.83,0
33.00,34.89,0
36.00,34.93,0
33.00,34.95,0
37.00,34.96,0
34.00,34.98,0
38.00,35.02,0
33.00,35.07,0
39.00,35.13,0
35.00,35.22,0
40.00,35.36,0
34.00,35.53,0
38.00,35.69,0
34.00,35.82,0
36.00,35.91,0
35.00,35.95,0
37.00,35.98,0
35.00,36.00,0
36.00,36.01,0
35.00,36.00,0
36.00,35.98,0
35.00,35.94,0
34.00,35.89,0
39.00,35.83,0
34.00,35.81,0
38.00,35.81,0
33.00,35.81,0
41.00,35.82,0
33.00,35.87,0
39.00,35.92,0
32.00,35.96,0
40.00,35.98,0
34.00,36.02,0
39.00,36.07,0
31.00,36.10,0
40.00,36.09,0
31.00,36.06,0
44.00,36.06,0
36.00,36.14,0
40.00,36.30,0
31.00,36.44,0
46.00,36.56,0
33.00,36.74,0
40.00,36.91,0
32.00,37.02,0
36.00,37.04,0
34.00,36.97,0
38.00,36.86,0
32.00,36.74,0
41.00,36.61,0
36.00,36.55,0
34.00,36.50,0
36.00,36.42,0
31.00,36.28,0
40.00,36.12,0
31.00,35.98,0
43.00,35.88,0
30.00,35.83,0
47.00,35.85,0
33.00,35.98,0
76.00,36.44,0
32.00,37.39,0
56.00,38.49,0
37.00,39.55,0
50.00,40.54,0
32.00,41.34,0
74.00,42.14,0
33.00,43.11,0
77.00,44.22,0
32.00,45.41,0
46.00,46.36,0
39.00,46.90,0
46.00,47.16,0
38.00,47.20,0
75.00,47.29,0
33.00,47.63,0
60.00,47.97,0
35.00,48.20,0
53.00,48.29,0
31.00,48.18,0
39.00,47.79,0
35.00,47.09,0
32.00,46.17,0
93.00,45.54,0
37.00,45.66,0
44.00,45.99,0
39.00,46.08,0
92.00,46.39,0
35.00,47.23,0
87.00,48.35,0
74.00,49.95,0
64.00,51.99,0
58.00,53.96,0
92.00,55.93,0
56.00,58.04,0
118.00,60.39,0
49.00,63.01,0
83.00,65.38,0
44.00,67.16,0
77.00,68.35,0
64.00,69.15,0
84.00,69.87,0
45.00,70.40,0
86.00,70.62,0
42.00,70.59,0
48.00,70.04,0
62.00,68.96,0
32.00,67.55,0
33.00,65.57,0
39.00,63.02,0
52.00,60.34,0
35.00,57.79,0
34.00,55.23,0
32.00,52.56,0
85.00,50.31,0
52.00,49.04,0
47.00,48.41,0
54.00,47.98,0
57.00,47.82,0
42.00,47.85,0
74.00,48.07,0
79.00,48.86,0
73.00,50.37,0
54.00,52.15,0
82.00,53.95,0
55.00,55.79,0
82.00,57.61,0
53.00,59.34,0
54.00,60.69,0
42.00,61.39,0
68.00,61.59,0
46.00,61.56,0
71.00,61.42,0
31.00,61.08,0
32.00,60.18,0
43.00,58.65,0
41.00,56.86,0
40.00,54.98,0
38.00,53.06,0
33.00,51.07,0
32.00,49.00,0
36.00,46.91,0
33.00,44.90,0
33.00,43.00,0
35.00,41.25,0
42.00,39.75,0
50.00,38.70,0
35.00,38.08,0
32.00,37.61,0
43.00,37.18,0
31.00,36.85,0
42.00,36.60,0
31.00,36.41,0
42.00,36.27,0
31.00,36.16,0
45.00,36.12,0
32.00,36.16,0
37.00,36.20,0
31.00,36.17,0
38.00,36.08,0
31.00,35.96,0
39.00,35.83,0
32.00,35.71,0
38.00,35.60,0
33.00,35.51,0
37.00,35.43,0
32.00,35.35,0
35.00,35.25,0
33.00,35.11,0
34.00,34.97,0
34.00,34.82,0
35.00,34.69,0
34.00,34.58,0
34.00,34.49,0
35.00,34.41,0
32.00,34.34,0
37.00,34.27,0
32.00,34.23,0
37.00,34.20,0
32.00,34.19,0
37.00,34.20,0
32.00,34.21,0
40.00,34.26,0
33.00,34.36,0
38.00,34.49,0
31.00,34.60,0
38.00,34.69,0
33.00,34.76,0
40.00,34.86,0
34.00,35.00,0
38.00,35.15,0
34.00,35.29,0
38.00,35.43,0
35.00,35.56,0
36.00,35.67,0
35.00,35.75,0
35.00,35.79,0
34.00,35.79,0
34.00,35.74,0
34.00,35.64,0
34.00,35.51,0
35.00,35.37,0
34.00,35.24,0
35.00,35.11,0
34.00,34.99,0
35.00,34.89,0
35.00,34.81,0
38.00,34.77,0
33.00,34.79,0
37.00,34.82,0
34.00,34.85,0
38.00,34.91,0
32.00,34.97,0
39.00,35.03,0
33.00,35.10,0
39.00,35.18,0
33.00,35.26,0
38.00,35.35,0
32.00,35.41,0
42.00,35.47,0
32.00,35.57,0
37.00,35.66,0
32.00,35.68,0
36.00,35.65,0
34.00,35.59,0
40.00,35.56,0
35.00,35.59,0
37.00,35.65,0
34.00,35.70,0
40.00,35.76,0
35.00,35.85,0
36.00,35.94,0
35.00,36.00,0
32.00,35.99,0
40.00,35.94,0
32.00,35.91,0
36.00,35.85,0
33.00,35.76,0
41.00,35.68,0
31.00,35.66,0
40.00,35.64,0
30.00,35.61,0
44.00,35.60,0
31.00,35.65,0
48.00,35.78,0
32.00,36.01,0
43.00,36.28,0
31.00,36.52,0
52.00,36.78,0
31.00,37.15,0
43.00,37.49,0
32.00,37.75,0
42.00,37.92,0
36.00,38.06,0
42.00,38.19,0
34.00,38.31,0
49.00,38.44,0
41.00,38.70,0
36.00,39.00,0
34.00,39.15,0
36.00,39.13,0
44.00,39.06,0
32.00,39.00,0
43.00,38.92,0
33.00,38.81,0
47.00,38.74,0
32.00,38.72,0
35.00,38.63,0
33.00,38.40,0
56.00,38.26,0
33.00,38.35,0
66.00,38.71,0
47.00,39.46,0
69.00,40.61,0
39.00,41.99,0
74.00,43.47,0
33.00,44.99,0
71.00,46.40,0
32.00,47.64,0
76.00,48.76,0
40.00,49.85,0
62.00,50.83,0
37.00,51.56,0
48.00,51.92,0
35.00,51.87,0
108.00,51.99,0
34.00,52.72,0
34.00,53.27,0
35.00,53.07,0
33.00,52.28,0
46.00,51.17,0
35.00,49.96,0
41.00,48.69,0
49.00,47.49,0
42.00,46.50,0
57.00,45.78,0
54.00,45.46,0
37.00,45.38,0
84.00,45.58,0
36.00,46.21,0
101.00,47.28,0
64.00,49.02,0
79.00,51.27,0
38.00,53.44,0
84.00,55.29,0
128.00,57.63,0
123.00,61.34,0
66.00,65.77,0
82.00,69.76,0
46.00,72.76,0
100.00,74.89,0
46.00,76.45,0
76.00,77.33,0
36.00,77.37,0
54.00,76.51,0
48.00,74.91,0
34.00,72.75,0
33.00,69.93,0
39.00,66.63,0
32.00,63.10,0
32.00,59.45,0
47.00,55.88,0
37.00,52.68,0
45.00,49.87,0
57.00,47.61,0
50.00,46.04,0
59.00,45.12,0
39.00,44.63,0
83.00,44.60,0
57.00,45.28,0
40.00,46.26,0
93.00,47.37,0
67.00,49.08,0
81.00,51.30,0
70.00,53.76,0
71.00,56.26,0
50.00,58.47,0
66.00,60.18,0
77.00,61.62,0
96.00,63.30,0
47.00,65.09,0
113.00,66.80,0
38.00,68.46,0
49.00,69.43,0
32.00,69.26,0
80.00,68.43,0
40.00,67.46,0
47.00,66.20,0
48.00,64.56,0
39.00,62.68,0
37.00,60.51,0
43.00,58.16,0
76.00,56.09,0
34.00,54.56,0
50.00,53.20,0
32.00,51.77,0
53.00,50.36,0
90.00,49.50,0
84.00,49.84,0
38.00,50.90,0
85.00,52.05,0
94.00,53.70,0
80.00,56.10,0
88.00,58.90,0
90.00,61.94,0
58.00,64.90,0
96.00,67.50,0
90.00,70.06,0
79.00,72.62,0
31.00,74.47,0
49.00,74.99,0
38.00,74.29,0
68.00,72.90,0
53.00,71.31,0
66.00,69.73,0
35.00,68.04,0
40.00,65.96,0
37.00,63.45,0
38.00,60.70,0
57.00,58.00,0
38.00,55.61,0
81.00,53.72,0
64.00,52.68,0
32.00,52.15,0
52.00,51.51,0
38.00,50.76,0
83.00,50.26,0
41.00,50.24,0
38.00,50.25,0
75.00,50.18,0
106.00,50.90,0
102.00,52.97,0
101.00,56.18,0
129.00,60.34,0
60.00,64.97,0
91.00,69.14,0
72.00,72.62,0
88.00,75.53,0
34.00,77.58,0
88.00,78.60,0
52.00,78.94,0
60.00,78.66,0
42.00,77.62,0
102.00,76.29,0
42.00,75.14,0
40.00,73.65,0
37.00,71.40,0
56.00,68.74,0
32.00,65.95,0
49.00,63.04,0
33.00,60.10,0
84.00,57.52,0
120.00,56.30,0
43.00,56.55,0
101.00,57.42,0
75.00,58.83,0
59.00,60.51,0
32.00,61.65,0
68.00,62.05,0
96.00,62.49,0
122.00,63.91,0
69.00,66.24,0
87.00,68.70,0
54.00,70.75,0
72.00,72.18,0
52.00,72.95,0
108.00,73.47,0
59.00,74.14,0
77.00,74.70,0
76.00,75.04,0
109.00,75.61,0
45.00,76.35,0
51.00,76.45,0
44.00,75.59,0
85.00,74.29,0
50.00,73.03,0
33.00,71.46,0
72.00,69.46,0
45.00,67.48,0
51.00,65.51,0
35.00,63.35,0
40.00,60.95,0
36.00,58.35,0
31.00,55.63,0
69.00,53.11,0
44.00,51.19,0
95.00,50.12,0
63.00,50.11,0
73.00,50.88,0
52.00,51.93,0
43.00,52.83,0
98.00,53.73,0
78.00,55.24,0
95.00,57.45,0
67.00,60.01,0
86.00,62.58,0
41.00,64.78,0
94.00,66.47,0
44.00,67.81,0
75.00,68.72,0
35.00,69.04,0
61.00,68.70,0
57.00,67.94,0
86.00,67.27,0
68.00,66.99,0
94.00,67.18,0
32.00,67.48,0
47.00,67.18,0
38.00,66.09,0
56.00,64.54,0
33.00,62.74,0
66.00,60.85,0
34.00,59.05,0
61.00,57.33,0
60.00,55.92,0
57.00,54.97,0
99.00,54.68,0
40.00,55.10,0
58.00,55.55,0
40.00,55.68,0
71.00,55.66,0
52.00,55.74,0
74.00,56.02,0
73.00,56.63,0
99.00,57.87,0
48.00,59.54,0
55.00,60.91,0
52.00,61.67,0
55.00,61.97,0
53.00,61.94,0
75.00,61.81,0
46.00,61.73,0
43.00,61.37,0
46.00,60.54,0
65.00,59.56,0
65.00,58.84,0
39.00,58.28,0
54.00,57.56,0
32.00,56.59,0
34.00,55.24,0
41.00,53.55,0
53.00,51.90,0
38.00,50.46,0
50.00,49.17,0
41.00,48.05,0
37.00,47.00,0
36.00,45.91,0
73.00,45.06,0
66.00,44.97,0
99.00,45.93,0
104.00,48.17,0
70.00,51.40,0
59.00,54.65,0
57.00,57.35,0
50.00,59.34,0
97.00,60.99,0
74.00,62.86,0
75.00,64.84,0
31.00,66.30,0
74.00,66.97,0
43.00,67.10,0
93.00,67.07,0
58.00,67.20,0
55.00,67.26,0
85.00,67.17,0
59.00,67.23,0
63.00,67.25,0
59.00,67.06,0
40.00,66.52,0
38.00,65.38,0
49.00,63.73,0
31.00,61.74,0
35.00,59.40,0
48.00,56.89,0
50.00,54.60,0
56.00,52.74,0
87.00,51.64,0
63.00,51.51,0
53.00,51.92,0
48.00,52.31,0
91.00,52.86,0
66.00,53.99,0
80.00,55.57,0
57.00,57.27,0
89.00,59.01,0
50.00,60.74,0
65.00,62.14,0
54.00,63.09,0
103.00,64.00,0
43.00,65.08,0
86.00,66.03,0
44.00,66.71,0
59.00,66.94,0
57.00,66.71,0
61.00,66.27,0
46.00,65.60,0
61.00,64.70,0
37.00,63.57,0
33.00,61.99,0
34.00,59.86,0
37.00,57.41,0
74.00,55.15,0
52.00,53.57,0
54.00,52.52,0
55.00,51.76,0
36.00,51.12,0
42.00,50.35,0
55.00,49.54,0
53.00,48.98,0
71.00,48.85,0
62.00,49.26,0
67.00,50.11,0
42.00,51.06,0
122.00,52.36,0
36.00,54.27,0
92.00,56.29,0
32.00,58.05,0
98.00,59.57,0
39.00,60.96,0
74.00,62.06,0
64.00,62.92,0
93.00,63.94,0
35.00,64.95,0
61.00,65.42,0
34.00,65.20,0
33.00,64.22,0
34.00,62.47,0
51.00,60.33,0
32.00,58.10,0
32.00,55.70,0
38.00,53.15,0
42.00,50.69,0
63.00,48.67,0
36.00,47.21,0
45.00,46.03,0
39.00,44.97,0
66.00,44.25,0
59.00,44.13,0
50.00,44.52,0
46.00,45.04,0
76.00,45.75,0
30.00,46.66,0
87.00,47.65,0
51.00,48.93,0
97.00,50.65,0
47.00,52.70,0
74.00,54.70,0
47.00,56.41,0
78.00,57.88,0
75.00,59.38,0
66.00,60.99,0
79.00,62.55,0
49.00,63.93,0
32.00,64.60,0
71.00,64.49,0
44.00,64.08,0
34.00,63.24,0
65.00,61.97,0
46.00,60.70,0
35.00,59.31,0
33.00,57.52,0
59.00,55.59,0
60.00,54.02,0
35.00,52.82,0
31.00,51.49,0
54.00,50.03,0
46.00,48.79,0
56.00,47.91,0
36.00,47.25,0
72.00,46.85,0
64.00,47.00,0
92.00,47.98,0
68.00,49.75,0
112.00,52.26,0
64.00,55.39,0
69.00,58.48,0
57.00,61.04,0
76.00,63.11,0
62.00,64.83,0
72.00,66.25,0
60.00,67.33,0
81.00,68.18,0
50.00,68.83,0
40.00,68.86,0
42.00,68.03,0
47.00,66.57,0
63.00,64.89,0
65.00,63.44,0
32.00,62.10,0
57.00,60.57,0
56.00,59.08,0
40.00,57.71,0
57.00,56.37,0
41.00,55.09,0
42.00,53.80,0
66.00,52.62,0
38.00,51.73,0
37.00,50.83,0
89.00,50.12,0
49.00,50.11,0
85.00,50.69,0
34.00,51.55,0
68.00,52.33,0
56.00,53.06,0
70.00,53.92,0
77.00,55.05,0
122.00,56.95,0
70.00,59.73,0
73.00,62.64,0
73.00,65.17,0
57.00,67.22,0
55.00,68.55,0
70.00,69.25,0
31.00,69.35,0
44.00,68.59,0
59.00,67.22,0
47.00,65.68,0
54.00,64.06,0
104.00,62.84,0
37.00,62.32,0
32.00,61.59,0
47.00,60.23,0
44.00,58.62,0
33.00,56.84,0
36.00,54.81,0
62.00,52.83,0
53.00,51.34,0
60.00,50.41,0
49.00,49.86,0
48.00,49.51,0
46.00,49.18,0
79.00,49.11,0
64.00,49.65,0
90.00,50.87,0
51.00,52.55,0
84.00,54.38,0
49.00,56.18,0
76.00,57.83,0
45.00,59.20,0
50.00,60.07,0
52.00,60.36,0
106.00,60.74,0
33.00,61.48,0
58.00,61.90,0
42.00,61.76,0
39.00,61.11,0
33.00,59.86,0
36.00,58.11,0
42.00,56.07,0
58.00,54.14,0
33.00,52.46,0
65.00,51.01,0
54.00,50.02,0
54.00,49.49,0
41.00,49.12,0
32.00,48.61,0
67.00,48.04,0
80.00,48.04,0
61.00,48.84,0
52.00,49.94,0
98.00,51.30,0
55.00,53.15,0
133.00,55.61,0
45.00,58.68,0
79.00,61.56,0
38.00,63.71,0
74.00,65.13,0
60.00,66.08,0
98.00,67.04,0
51.00,68.09,0
77.00,68.92,0
46.00,69.35,0
67.00,69.34,0
46.00,68.91,0
79.00,68.27,0
40.00,67.55,0
37.00,66.39,0
39.00,64.57,0
52.00,62.44,0
42.00,60.29,0
37.00,58.09,0
39.00,55.78,0
32.00,53.39,0
53.00,51.10,0
48.00,49.20,0
54.00,47.82,0
46.00,46.85,0
55.00,46.22,0
66.00,46.06,0
93.00,46.73,0
80.00,48.43,0
70.00,50.80,0
52.00,53.16,0
35.00,54.93,0
44.00,55.82,0
78.00,56.32,0
33.00,56.76,0
82.00,57.09,0
43.00,57.43,0
58.00,57.66,0
32.00,57.51,0
74.00,57.11,0
38.00,56.72,0
71.00,56.38,0
51.00,56.16,0
54.00,56.02,0
58.00,55.85,0
39.00,55.60,0
68.00,55.26,0
52.00,55.05,0
38.00,54.81,0
36.00,54.17,0
43.00,53.16,0
58.00,52.12,0
62.00,51.44,0
31.00,50.98,0
34.00,50.25,0
58.00,49.33,0
79.00,48.89,0
41.00,49.07,0
98.00,49.73,0
56.00,51.00,0
53.00,52.45,0
42.00,53.51,0
76.00,54.31,0
86.00,55.43,0
87.00,57.21,0
50.00,59.24,0
84.00,61.06,0
36.00,62.52,0
71.00,63.44,0
31.00,63.77,0
55.00,63.47,0
48.00,62.71,0
56.00,61.77,0
38.00,60.65,0
45.00,59.25,0
46.00,57.67,0
49.00,56.09,0
41.00,54.57,0
52.00,53.13,0
35.00,51.76,0
32.00,50.28,0
34.00,48.59,0
34.00,46.81,0
61.00,45.26,0
34.00,44.15,0
68.00,43.48,0
61.00,43.44,0
50.00,43.96,0
35.00,44.52,0
57.00,44.94,0
42.00,45.35,0
66.00,45.87,0
48.00,46.59,0
84.00,47.63,0
38.00,48.94,0
79.00,50.30,0
54.00,51.74,0
57.00,53.13,0
43.00,54.18,0
42.00,54.71,0
32.00,54.62,0
53.00,54.06,0
42.00,53.34,0
49.00,52.57,0
31.00,51.65,0
51.00,50.59,0
33.00,49.49,0
40.00,48.31,0
33.00,47.03,0
33.00,45.64,0
37.00,44.21,0
31.00,42.80,0
40.00,41.46,0
41.00,40.33,0
37.00,39.45,0
47.00,38.82,0
52.00,38.57,0
36.00,38.65,0
61.00,38.96,0
42.00,39.56,0
58.00,40.39,0
33.00,41.26,0
70.00,42.16,0
38.00,43.20,0
86.00,44.47,0
43.00,46.06,0
73.00,47.76,0
35.00,49.33,0
75.00,50.69,0
36.00,51.88,0
39.00,52.60,0
31.00,52.61,0
43.00,52.06,0
47.00,51.28,0
42.00,50.47,0
35.00,49.56,0
32.00,48.42,0
37.00,47.07,0
32.00,45.64,0
33.00,44.14,0
36.00,42.66,0
33.00,41.26,0
34.00,39.95,0
43.00,38.83,0
44.00,38.05,0
41.00,37.62,0
35.00,37.38,0
49.00,37.28,0
36.00,37.38,0
45.00,37.58,0
36.00,37.84,0
53.00,38.19,0
33.00,38.64,0
66.00,39.23,0
41.00,40.09,0
61.00,41.14,0
31.00,42.18,0
48.00,43.00,0
30.00,43.49,0
40.00,43.65,0
31.00,43.49,0
47.00,43.16,0
33.00,42.79,0
40.00,42.36,0
34.00,41.84,0
37.00,41.27,0
32.00,40.62,0
55.00,40.08,0
40.00,39.84,0
32.00,39.73,0
34.00,39.47,0
32.00,39.06,0
41.00,38.60,0
33.00,38.19,0
44.00,37.87,0
49.00,37.78,0
43.00,37.99,0
34.00,38.30,0
50.00,38.59,0
36.00,38.95,0
52.00,39.37,0
36.00,39.84,0
52.00,40.34,0
31.00,40.80,0
65.00,41.28,0
37.00,41.92,0
58.00,42.64,0
40.00,43.38,0
45.00,44.02,0
41.00,44.47,0
59.00,44.87,0
42.00,45.36,0
46.00,45.79,0
43.00,46.07,0
39.00,46.17,0
40.00,46.05,0
34.00,45.70,0
39.00,45.13,0
38.00,44.45,0
43.00,43.76,0
39.00,43.14,0
41.00,42.59,0
40.00,42.08,0
52.00,41.74,0
44.00,41.66,0
54.00,41.82,0
36.00,42.12,0
46.00,42.37,0
35.00,42.51,0
58.00,42.65,0
31.00,42.85,0
50.00,42.99,0
39.00,43.08,0
51.00,43.20,0
33.00,43.31,0
51.00,43.34,0
34.00,43.33,0
41.00,43.21,0
37.00,42.96,0
44.00,42.66,0
45.00,42.42,0
36.00,42.25,0
40.00,42.02,0
43.00,41.76,0
46.00,41.61,0
38.00,41.55,0
50.00,41.56,0
37.00,41.63,0
50.00,41.75,0
35.00,41.88,0
44.00,41.95,0
36.00,41.93,0
46.00,41.87,0
32.00,41.76,0
48.00,41.60,0
33.00,41.44,0
50.00,41.30,0
31.00,41.18,0
47.00,41.05,0
32.00,40.88,0
37.00,40.63,0
33.00,40.24,0
36.00,39.77,0
33.00,39.23,0
35.00,38.66,0
35.00,38.08,0
35.00,37.55,0
34.00,37.05,0
36.00,36.59,0
36.00,36.21,0
33.00,35.88,0
39.00,35.62,0
32.00,35.42,0
38.00,35.27,0
32.00,35.14,0
36.00,35.02,0
32.00,34.90,0
37.00,34.78,0
31.00,34.68,0
37.00,34.58,0
31.00,34.48,0
36.00,34.38,0
32.00,34.29,0
37.00,34.21,0
32.00,34.17,0
36.00,34.13,0
34.00,34.12,0
38.00,34.16,0
33.00,34.24,0
36.00,34.32,0
34.00,34.40,0
35.00,34.47,0
34.00,34.53,0
35.00,34.57,0
35.00,34.61,0
34.00,34.64,0
34.00,34.65,0
34.00,34.64,0
35.00,34.62,0
34.00,34.60,0
34.00,34.57,0
34.00,34.53,0
34.00,34.48,0
35.00,34.44,0
34.00,34.41,0
35.00,34.39,0
35.00,34.38,0
34.00,34.39,0
36.00,34.41,0
34.00,34.45,0
35.00,34.48,0
34.00,34.51,0
35.00,34.53,0
35.00,34.55,0
35.00,34.59,0
35.00,34.62,0
35.00,34.67,0
35.00,34.71,0
36.00,34.76,0
34.00,34.81,0
36.00,34.86,0
34.00,34.90,0
36.00,34.94,0
34.00,34.96,0
35.00,34.98,0
35.00,34.98,0
36.00,34.99,0
35.00,35.02,0
35.00,35.05,0
34.00,35.06,0
36.00,35.05,0
35.00,35.06,0
36.00,35.08,0
34.00,35.10,0
36.00,35.11,0
35.00,35.12,0
34.00,35.13,0
36.00,35.12,0
35.00,35.12,0
35.00,35.12,0
35.00,35.12,0
36.00,35.12,0
35.00,35.14,0
36.00,35.16,0
35.00,35.19,0
36.00,35.22,0
35.00,35.26,0
36.00,35.29,0
35.00,35.32,0
36.00,35.35,0
34.00,35.37,0
34.00,35.36,0
35.00,35.31,0
36.00,35.26,0
35.00,35.24,0
35.00,35.22,0
34.00,35.19,0
35.00,35.14,0
35.00,35.09,0
35.00,35.05,0
36.00,35.03,0
35.00,35.03,0
35.00,35.03,0
34.00,35.03,0
38.00,35.03,0
33.00,35.06,0
37.00,35.08,0
34.00,35.11,0
37.00,35.14,0
34.00,35.18,0
39.00,35.23,0
34.00,35.32,0
37.00,35.40,0
34.00,35.47,0
37.00,35.52,0
34.00,35.56,0
37.00,35.59,0
35.00,35.62,0
36.00,35.64,0
36.00,35.67,0
36.00,35.69,0
35.00,35.72,0
37.00,35.73,0
36.00,35.77,0
36.00,35.81,0
37.00,35.85,0
34.00,35.89,0
36.00,35.90,0
34.00,35.87,0
38.00,35.84,0
31.00,35.80,0
41.00,35.75,0
34.00,35.74,0
42.00,35.81,0
33.00,35.92,0
40.00,36.04,0
31.00,36.13,0
43.00,36.20,0
32.00,36.29,0
40.00,36.37,0
31.00,36.42,0
38.00,36.40,0
32.00,36.34,0
44.00,36.29,0
32.00,36.31,0
42.00,36.37,0
34.00,36.45,0
40.00,36.54,0
34.00,36.63,0
40.00,36.71,0
34.00,36.78,0
37.00,36.82,0
37.00,36.82,0
36.00,36.83,0
45.00,36.89,0
36.00,37.05,0
35.00,37.21,0
34.00,37.25,0
39.00,37.23,0
36.00,37.21,0
52.00,37.30,0
35.00,37.59,0
50.00,37.99,0
39.00,38.48,0
60.00,39.13,0
46.00,40.03,0
54.00,41.09,0
42.00,42.16,0
58.00,43.20,0
43.00,44.22,0
65.00,45.27,0
33.00,46.26,0
56.00,47.04,0
36.00,47.57,0
80.00,48.12,0
46.00,48.95,0
54.00,49.82,0
41.00,50.45,0
55.00,50.84,0
60.00,51.20,0
59.00,51.71,0
65.00,52.40,0
58.00,53.24,0
61.00,54.11,0
111.00,55.39,0
70.00,57.45,0
82.00,59.87,0
56.00,62.12,0
66.00,63.93,0
68.00,65.31,0
113.00,66.79,0
92.00,68.91,0
183.00,72.20,0
101.00,76.97,0
90.00,81.97,0
84.00,86.08,0
57.00,88.96,0
84.00,90.53,0
73.00,91.20,0
135.00,91.70,0
59.00,92.38,0
62.00,92.44,0
52.00,91.35,0
94.00,89.66,0
145.00,88.59,0
60.00,88.53,0
53.00,88.17,0
68.00,86.92,0
152.00,85.91,0
168.00,86.79,0
69.00,89.20,0
83.00,91.30,0
132.00,92.90,0
108.00,94.81,0
114.00,96.95,0
63.00,98.66,0
84.00,99.38,0
173.00,99.98,0
107.00,101.55,0
114.00,103.54,0
143.00,105.57,0
106.00,107.80,0
95.00,109.65,0
65.00,110.42,0
103.00,110.07,0
63.00,108.91,0
74.00,106.94,0
69.00,104.22,0
50.00,100.87,0
55.00,96.83,0
99.00,92.70,0
64.00,89.12,0
91.00,86.08,0
84.00,83.65,0
119.00,82.17,0
46.00,81.37,0
63.00,80.33,0
108.00,79.21,0
89.00,78.77,0
170.00,79.60,0
212.00,82.93,0
76.00,88.26,0
142.00,93.58,0
113.00,98.44,0
61.00,102.43,0
83.00,104.70,0
114.00,105.77,0
103.00,106.51,0
154.00,107.48,0
123.00,109.07,0
141.00,111.14,0
96.00,113.18,0
61.00,114.24,0
106.00,113.94,0
38.00,112.52,0
98.00,110.03,0
59.00,106.91,0
85.00,103.50,0
49.00,99.79,0
76.00,95.81,0
84.00,91.96,0
170.00,89.42,0
98.00,88.84,0
106.00,89.38,0
56.00,89.85,0
101.00,89.88,0
163.00,90.41,0
61.00,91.87,0
118.00,93.28,0
78.00,94.36,0
127.00,95.38,0
107.00,96.62,0
134.00,98.30,0
127.00,100.49,0
100.00,102.86,0
75.00,104.58,0
84.00,105.20,0
136.00,105.32,0
185.00,106.41,0
122.00,108.90,0
97.00,111.54,0
78.00,113.10,0
75.00,113.26,0
82.00,112.21,0
46.00,110.04,0
84.00,106.89,0
109.00,103.63,0
92.00,100.98,0
68.00,98.61,0
72.00,96.03,0
84.00,93.34,0
61.00,90.69,0
129.00,88.45,0
104.00,87.33,0
116.00,87.33,0
96.00,88.02,0
143.00,89.37,0
61.00,91.10,0
142.00,92.77,0
66.00,94.36,0
120.00,95.71,0
76.00,96.73,0
140.00,97.72,0
102.00,99.01,0
86.00,100.28,0
89.00,100.93,0
97.00,101.07,0
144.00,101.37,0
143.00,102.61,0
111.00,104.63,0
121.00,106.72,0
57.00,108.17,0
90.00,108.37,0
100.00,107.72,0
62.00,106.58,0
128.00,105.09,0
60.00,103.62,0
69.00,101.69,0
68.00,99.06,0
99.00,96.29,0
50.00,93.62,0
160.00,91.47,0
94.00,90.66,0
90.00,90.67,0
76.00,90.58,0
73.00,90.11,0
104.00,89.46,0
67.00,88.89,0
160.00,88.82,0
117.00,89.98,0
112.00,92.06,0
92.00,94.18,0
107.00,96.00,0
74.00,97.36,0
88.00,98.00,0
127.00,98.36,0
86.00,98.92,0
151.00,99.80,0
127.00,101.42,0
128.00,103.70,0
106.00,106.05,0
93.00,107.91,0
96.00,108.97,0
94.00,109.29,0
71.00,108.86,0
40.00,107.22,0
95.00,104.46,0
110.00,101.71,0
58.00,99.34,0
68.00,96.69,0
52.00,93.49,0
161.00,90.73,0
110.00,89.62,0
114.00,89.90,0
76.00,90.56,0
62.00,90.78,0
170.00,91.01,0
91.00,92.25,0
110.00,93.96,0
180.00,96.22,0
97.00,99.43,0
128.00,102.74,0
81.00,105.45,0
95.00,107.20,0
92.00,107.97,0
112.00,108.22,0
190.00,109.02,0
110.00,111.03,0
154.00,113.55,0
66.00,115.72,0
55.00,116.33,0
94.00,115.17,0
87.00,113.21,0
85.00,110.89,0
65.00,108.12,0
70.00,104.78,0
66.00,101.01,0
55.00,96.94,0
53.00,92.53,0
202.00,89.13,0
84.00,88.06,0
93.00,88.17,0
92.00,88.33,0
169.00,89.22,0
113.00,91.42,0
91.00,94.11,0
115.00,96.43,0
107.00,98.54,0
153.00,100.88,0
163.00,104.08,0
106.00,107.91,0
69.00,110.92,0
149.00,112.79,0
114.00,114.47,0
158.00,116.37,0
131.00,118.61,0
122.00,120.87,0
97.00,122.50,0
69.00,122.87,0
76.00,121.67,0
92.00,119.33,0
59.00,116.24,0
55.00,112.26,0
66.00,107.47,0
73.00,102.42,0
80.00,97.60,0
85.00,93.34,0
57.00,89.55,0
131.00,86.44,0
69.00,84.42,0
137.00,83.45,0
60.00,83.28,0
74.00,83.13,0
60.00,82.48,0
114.00,81.81,0
99.00,81.79,0
72.00,82.25,0
114.00,82.82,0
163.00,84.35,0
114.00,87.29,0
65.00,90.41,0
63.00,92.32,0
104.00,93.15,0
98.00,93.76,0
126.00,94.64,0
124.00,96.11,0
175.00,98.58,0
71.00,101.70,0
66.00,103.87,0
96.00,104.56,0
56.00,104.23,0
40.00,102.58,0
75.00,99.66,0
92.00,96.49,0
67.00,93.58,0
63.00,90.66,0
59.00,87.53,0
103.00,84.60,0
100.00,82.60,0
116.00,81.81,0
64.00,81.78,0
88.00,81.79,0
75.00,81.71,0
72.00,81.50,0
76.00,81.09,0
90.00,80.69,0
66.00,80.38,0
82.00,80.00,0
146.00,80.17,0
51.00,81.17,0
86.00,82.00,0
69.00,82.35,0
155.00,83.01,0
125.00,84.94,0
166.00,88.31,0
172.00,93.18,0
78.00,98.67,0
68.00,102.85,0
97.00,105.21,0
67.00,106.25,0
66.00,105.97,0
85.00,104.61,0
108.00,102.97,0
43.00,101.15,0
73.00,98.62,0
50.00,95.38,0
86.00,91.91,0
149.00,89.30,0
128.00,88.62,0
66.00,89.06,0
54.00,89.05,0
117.00,88.51,0
110.00,88.47,0
155.00,89.58,0
123.00,91.96,0
89.00,94.78,0
57.00,96.76,0
94.00,97.51,0
75.00,97.50,0
72.00,96.87,0
87.00,95.72,0
91.00,94.48,0
136.00,93.76,0
109.00,94.01,0
80.00,94.68,0
75.00,94.89,0
90.00,94.56,0
58.00,93.76,0
126.00,92.80,0
64.00,92.09,0
57.00,91.08,0
66.00,89.30,0
72.00,87.16,0
83.00,85.08,0
61.00,83.15,0
79.00,81.29,0
148.00,80.21,0
91.00,80.60,0
111.00,81.87,0
90.00,83.46,0
74.00,84.93,0
114.00,86.14,0
66.00,87.26,0
67.00,87.81,0
100.00,87.80,0
109.00,88.00,0
118.00,88.85,0
70.00,89.99,0
88.00,90.74,0
110.00,91.25,0
150.00,92.40,0
85.00,94.32,0
112.00,96.24,0
116.00,98.02,0
85.00,99.69,0
77.00,100.66,0
99.00,100.86,0
58.00,100.43,0
80.00,99.22,0
63.00,97.33,0
68.00,94.94,0
54.00,92.08,0
68.00,88.87,0
57.00,85.53,0
91.00,82.42,0
110.00,80.22,0
98.00,79.29,0
90.00,79.24,0
114.00,79.82,0
121.00,81.27,0
69.00,83.20,0
114.00,85.00,0
108.00,86.91,0
70.00,88.79,0
97.00,90.13,0
66.00,90.90,0
74.00,90.98,0
47.00,90.18,0
65.00,88.52,0
148.00,87.01,0
77.00,86.61,0
121.00,86.94,0
62.00,87.47,0
93.00,87.77,0
78.00,87.79,0
73.00,87.56,0
41.00,86.69,0
62.00,84.95,0
75.00,82.81,0
103.00,81.04,0
38.00,79.66,0
104.00,78.31,0
66.00,77.28,0
147.00,77.11,0
59.00,77.89,0
90.00,78.85,0
67.00,79.50,0
104.00,80.07,0
91.00,80.89,0
148.00,82.42,0
74.00,84.66,0
91.00,86.77,0
58.00,88.10,0
123.00,88.92,0
94.00,89.90,0
58.00,90.72,0
50.00,90.48,0
122.00,89.62,0
76.00,89.06,0
117.00,88.93,0
125.00,89.48,0
115.00,90.92,0
73.00,92.54,0
49.00,93.26,0
115.00,93.09,0
51.00,92.61,0
95.00,91.76,0
51.00,90.49,0
58.00,88.64,0
38.00,85.98,0
83.00,82.91,0
92.00,80.28,0
103.00,78.69,0
102.00,78.19,0
70.00,78.34,0
108.00,78.77,0
74.00,79.46,0
140.00,80.64,0
136.00,82.93,0
79.00,85.99,0
165.00,89.26,0
79.00,92.82,0
81.00,95.81,0
85.00,97.60,0
60.00,98.31,0
78.00,97.92,0
109.00,97.07,0
135.00,96.78,0
153.00,97.77,0
61.00,99.44,0
40.00,100.03,0
98.00,99.14,0
72.00,97.73,0
78.00,96.07,0
48.00,93.91,0
96.00,91.38,0
83.00,89.11,0
84.00,87.30,0
48.00,85.50,0
111.00,83.72,0
60.00,82.32,0
73.00,81.05,0
70.00,79.69,0
56.00,78.24,0
54.00,76.50,0
92.00,74.76,0
51.00,73.36,0
39.00,71.79,0
98.00,70.10,0
65.00,68.98,0
76.00,68.35,0
45.00,67.78,0
54.00,66.93,0
138.00,66.47,0
92.00,67.43,0
50.00,69.00,0
60.00,70.01,0
84.00,70.56,0
87.00,71.24,0
70.00,72.12,0
87.00,72.99,0
67.00,73.82,0
51.00,74.25,0
84.00,74.22,0
66.00,74.10,0
38.00,73.65,0
41.00,72.38,0
66.00,70.56,0
75.00,68.90,0
43.00,67.49,0
71.00,66.12,0
33.00,64.68,0
58.00,63.06,0
42.00,61.33,0
45.00,59.52,0
43.00,57.63,0
53.00,55.81,0
36.00,54.11,0
48.00,52.46,0
79.00,51.22,0
66.00,50.83,0
78.00,51.24,0
47.00,52.10,0
68.00,53.00,0
35.00,53.74,0
64.00,54.20,0
60.00,54.59,0
118.00,55.59,0
86.00,57.66,0
96.00,60.53,0
69.00,63.57,0
119.00,66.70,0
54.00,69.85,0
66.00,72.36,0
36.00,73.70,0
62.00,73.94,0
65.00,73.53,0
33.00,72.64,0
40.00,70.99,0
52.00,68.74,0
32.00,66.21,0
72.00,63.65,0
41.00,61.40,0
48.00,59.33,0
40.00,57.26,0
79.00,55.50,0
43.00,54.33,0
36.00,53.30,0
43.00,52.05,0
41.00,50.74,0
54.00,49.54,0
61.00,48.73,0
59.00,48.44,0
34.00,48.39,0
52.00,48.22,0
63.00,48.16,0
62.00,48.51,0
71.00,49.31,0
61.00,50.48,0
44.00,51.66,0
63.00,52.60,0
37.00,53.28,0
107.00,54.06,0
58.00,55.41,0
52.00,56.89,0
35.00,57.76,0
60.00,58.02,0
47.00,57.97,0
73.00,57.89,0
47.00,57.89,0
69.00,57.94,0
51.00,58.00,0
48.00,57.95,0
38.00,57.52,0
39.00,56.64,0
53.00,55.49,0
47.00,54.37,0
52.00,53.37,0
51.00,52.51,0
80.00,52.05,0
37.00,52.04,0
86.00,52.29,0
39.00,52.80,0
53.00,53.24,0
75.00,53.63,0
46.00,54.21,0
44.00,54.61,0
70.00,54.79,0
34.00,54.92,0
64.00,54.87,0
74.00,54.97,0
84.00,55.68,0
68.00,56.94,0
71.00,58.43,0
34.00,59.64,0
62.00,60.25,0
36.00,60.32,0
76.00,60.12,0
65.00,60.07,0
55.00,60.21,0
58.00,60.25,0
44.00,60.06,0
45.00,59.51,0
54.00,58.68,0
76.00,58.00,0
44.00,57.64,0
64.00,57.34,0
58.00,57.12,0
46.00,56.93,0
38.00,56.46,0
73.00,55.84,0
66.00,55.59,0
71.00,55.85,0
62.00,56.44,0
60.00,57.12,0
46.00,57.64,0
61.00,57.88,0
64.00,58.07,0
92.00,58.62,0
75.00,59.76,0
46.00,61.04,0
33.00,61.64,0
64.00,61.50,0
54.00,61.14,0
92.00,61.03,0
32.00,61.16,0
69.00,61.09,0
39.00,60.75,0
61.00,60.20,0
42.00,59.47,0
37.00,58.45,0
32.00,56.97,0
43.00,55.14,0
41.00,53.24,0
38.00,51.38,0
51.00,49.66,0
34.00,48.15,0
53.00,46.83,0
36.00,45.74,0
49.00,44.83,0
52.00,44.20,0
56.00,43.98,0
67.00,44.27,0
60.00,45.08,0
60.00,46.26,0
79.00,47.75,0
80.00,49.77,0
123.00,52.66,0
55.00,56.25,0
82.00,59.73,0
41.00,62.54,0
62.00,64.48,0
46.00,65.57,0
125.00,66.54,0
51.00,67.94,0
60.00,69.13,0
35.00,69.45,0
38.00,68.78,0
38.00,67.23,0
39.00,65.09,0
36.00,62.57,0
38.00,59.81,0
76.00,57.29,0
33.00,55.33,0
60.00,53.68,0
45.00,52.28,0
45.00,51.11,0
40.00,49.97,0
80.00,49.15,0
52.00,48.99,0
84.00,49.47,0
42.00,50.37,0
62.00,51.29,0
41.00,52.01,0
62.00,52.53,0
34.00,52.84,0
84.00,53.10,0
48.00,53.61,0
75.00,54.33,0
42.00,55.06,0
55.00,55.57,0
45.00,55.75,0
63.00,55.77,0
37.00,55.65,0
45.00,55.23,0
32.00,54.39,0
58.00,53.33,0
40.00,52.32,0
38.00,51.28,0
37.00,50.05,0
33.00,48.66,0
38.00,47.16,0
36.00,45.66,0
46.00,44.30,0
37.00,43.16,0
35.00,42.15,0
40.00,41.21,0
65.00,40.62,0
39.00,40.55,0
55.00,40.79,0
59.00,41.35,0
78.00,42.47,0
40.00,44.04,0
76.00,45.70,0
49.00,47.45,0
56.00,49.12,0
55.00,50.54,0
80.00,51.99,0
34.00,53.42,0
58.00,54.45,0
40.00,55.00,0
52.00,55.17,0
35.00,54.96,0
53.00,54.42,0
33.00,53.65,0
36.00,52.58,0
33.00,51.17,0
69.00,49.82,0
48.00,48.95,0
36.00,48.34,0
37.00,47.57,0
32.00,46.59,0
61.00,45.64,0
49.00,45.09,0
35.00,44.78,0
40.00,44.38,0
41.00,43.90,0
32.00,43.36,0
61.00,42.89,0
51.00,42.80,0
48.00,43.07,0
43.00,43.42,0
55.00,43.81,0
57.00,44.39,0
56.00,45.24,0
39.00,46.10,0
77.00,46.98,0
43.00,48.04,0
66.00,49.15,0
36.00,50.11,0
89.00,51.07,0
44.00,52.23,0
79.00,53.51,0
47.00,54.77,0
56.00,55.81,0
37.00,56.37,0
44.00,56.38,0
32.00,55.81,0
39.00,54.74,0
36.00,53.33,0
40.00,51.74,0
32.00,50.05,0
49.00,48.38,0
31.00,46.84,0
35.00,45.33,0
32.00,43.78,0
38.00,42.29,0
48.00,41.05,0
55.00,40.31,0
40.00,40.06,0
40.00,39.99,0
44.00,39.97,0
37.00,39.99,0
51.00,40.09,0
46.00,40.36,0
71.00,41.01,0
42.00,42.03,0
50.00,43.12,0
38.00,44.01,0
48.00,44.67,0
47.00,45.19,0
86.00,45.98,0
42.00,47.22,0
72.00,48.60,0
33.00,49.85,0
62.00,50.81,0
32.00,51.42,0
45.00,51.60,0
32.00,51.30,0
45.00,50.66,0
32.00,49.76,0
38.00,48.66,0
33.00,47.37,0
35.00,45.98,0
33.00,44.53,0
37.00,43.10,0
31.00,41.72,0
35.00,40.41,0
32.00,39.17,0
46.00,38.14,0
38.00,37.43,0
45.00,37.03,0
48.00,36.97,0
50.00,37.27,0
45.00,37.87,0
32.00,38.50,0
60.00,39.10,0
34.00,39.80,0
63.00,40.59,0
45.00,41.56,0
45.00,42.55,0
44.00,43.38,0
51.00,44.10,0
32.00,44.65,0
50.00,44.97,0
33.00,45.08,0
60.00,45.12,0
34.00,45.22,0
54.00,45.29,0
35.00,45.32,0
49.00,45.27,0
34.00,45.11,0
44.00,44.83,0
33.00,44.42,0
34.00,43.82,0
39.00,43.07,0
38.00,42.32,0
69.00,41.87,0
32.00,41.87,0
49.00,41.99,0
44.00,42.13,0
50.00,42.39,0
44.00,42.74,0
53.00,43.17,0
36.00,43.61,0
60.00,44.03,0
41.00,44.53,0
77.00,45.24,0
38.00,46.21,0
59.00,47.18,0
35.00,47.93,0
44.00,48.34,0
57.00,48.55,0
46.00,48.78,0
41.00,48.92,0
42.00,48.81,0
34.00,48.43,0
49.00,47.86,0
39.00,47.25,0
46.00,46.65,0
40.00,46.07,0
46.00,45.53,0
32.00,44.97,0
61.00,44.47,0
33.00,44.17,0
43.00,43.88,0
47.00,43.58,0
33.00,43.32,0
58.00,43.10,0
34.00,43.02,0
31.00,42.84,0
39.00,42.40,0
53.00,42.01,0
42.00,41.86,0
45.00,41.87,0
34.00,41.87,0
64.00,41.94,0
62.00,42.46,0
58.00,43.49,0
38.00,44.62,0
73.00,45.71,0
37.00,46.86,0
47.00,47.78,0
31.00,48.24,0
76.00,48.52,0
38.00,48.96,0
69.00,49.50,0
40.00,50.06,0
44.00,50.42,0
41.00,50.42,0
33.00,50.07,0
41.00,49.37,0
31.00,48.41,0
38.00,47.25,0
33.00,45.96,0
34.00,44.60,0
33.00,43.20,0
50.00,41.95,0
40.00,41.05,0
71.00,40.67,0
53.00,40.98,0
52.00,41.76,0
55.00,42.73,0
52.00,43.82,0
38.00,44.83,0
84.00,45.87,0
39.00,47.17,0
43.00,48.30,0
37.00,48.90,0
65.00,49.23,0
33.00,49.52,0
56.00,49.64,0
32.00,49.55,0
51.00,49.26,0
32.00,48.78,0
38.00,48.06,0
36.00,47.13,0
56.00,46.23,0
33.00,45.51,0
32.00,44.74,0
31.00,43.73,0
32.00,42.56,0
36.00,41.35,0
39.00,40.25,0
38.00,39.33,0
34.00,38.57,0
32.00,37.85,0
37.00,37.17,0
48.00,36.70,0
42.00,36.57,0
48.00,36.76,0
37.00,37.13,0
54.00,37.64,0
41.00,38.32,0
73.00,39.30,0
36.00,40.59,0
63.00,41.94,0
33.00,43.20,0
56.00,44.25,0
35.00,45.08,0
49.00,45.66,0
36.00,45.99,0
35.00,46.01,0
36.00,45.69,0
43.00,45.16,0
31.00,44.54,0
33.00,43.73,0
36.00,42.77,0
31.00,41.75,0
36.00,40.70,0
34.00,39.69,0
36.00,38.77,0
42.00,38.01,0
47.00,37.55,0
55.00,37.54,0
44.00,37.95,0
52.00,38.62,0
43.00,39.43,0
43.00,40.24,0
51.00,41.01,0
53.00,41.88,0
86.00,43.16,0
39.00,44.89,0
60.00,46.56,0
36.00,47.91,0
47.00,48.83,0
38.00,49.30,0
57.00,49.52,0
44.00,49.67,0
63.00,49.86,0
32.00,50.03,0
45.00,49.92,0
35.00,49.49,0
47.00,48.87,0
32.00,48.11,0
61.00,47.37,0
31.00,46.76,0
41.00,46.12,0
36.00,45.33,0
32.00,44.44,0
42.00,43.46,0
34.00,42.53,0
69.00,41.89,0
31.00,41.69,0
52.00,41.68,0
31.00,41.66,0
49.00,41.61,0
31.00,41.53,0
42.00,41.35,0
42.00,41.15,0
35.00,40.97,0
36.00,40.69,0
54.00,40.47,0
42.00,40.50,0
51.00,40.75,0
42.00,41.13,0
48.00,41.57,0
40.00,42.00,0
54.00,42.44,0
41.00,42.94,0
41.00,43.36,0
32.00,43.52,0
46.00,43.46,0
39.00,43.32,0
48.00,43.20,0
35.00,43.09,0
54.00,43.00,0
31.00,42.95,0
41.00,42.79,0
42.00,42.54,0
42.00,42.32,0
47.00,42.18,0
32.00,42.07,0
47.00,41.90,0
46.00,41.81,0
45.00,41.88,0
57.00,42.14,0
45.00,42.64,0
36.00,43.11,0
62.00,43.53,0
45.00,44.11,0
54.00,44.79,0
44.00,45.45,0
71.00,46.21,0
32.00,47.06,0
55.00,47.73,0
36.00,48.12,0
62.00,48.40,0
35.00,48.61,0
58.00,48.74,0
36.00,48.78,0
43.00,48.62,0
46.00,48.28,0
44.00,47.90,0
39.00,47.46,0
37.00,46.87,0
34.00,46.09,0
37.00,45.14,0
37.00,44.13,0
50.00,43.24,0
40.00,42.59,0
37.00,42.07,0
36.00,41.52,0
39.00,40.96,0
32.00,40.38,0
34.00,39.74,0
43.00,39.12,0
32.00,38.61,0
59.00,38.32,0
34.00,38.36,0
50.00,38.58,0
33.00,38.85,0
58.00,39.21,0
37.00,39.73,0
50.00,40.31,0
37.00,40.86,0
66.00,41.49,0
32.00,42.26,0
49.00,42.93,0
31.00,43.35,0
60.00,43.65,0
31.00,43.93,0
48.00,44.11,0
31.00,44.08,0
43.00,43.87,0
33.00,43.50,0
31.00,42.94,0
33.00,42.15,0
32.00,41.22,0
40.00,40.28,0
37.00,39.47,0
43.00,38.84,0
30.00,38.35,0
55.00,38.01,0
34.00,37.94,0
53.00,38.08,0
42.00,38.43,0
62.00,39.07,0
43.00,39.99,0
59.00,41.08,0
37.00,42.18,0
49.00,43.13,0
31.00,43.80,0
67.00,44.33,0
39.00,44.95,0
58.00,45.61,0
32.00,46.16,0
50.00,46.46,0
43.00,46.61,0
45.00,46.67,0
32.00,46.54,0
45.00,46.18,0
37.00,45.69,0
39.00,45.11,0
35.00,44.42,0
42.00,43.68,0
36.00,42.95,0
31.00,42.18,0
50.00,41.42,0
41.00,40.89,0
36.00,40.53,0
36.00,40.14,0
46.00,39.80,0
32.00,39.54,0
54.00,39.39,0
39.00,39.46,0
48.00,39.69,0
36.00,39.97,0
60.00,40.34,0
34.00,40.86,0
65.00,41.50,0
44.00,42.34,0
54.00,43.28,0
32.00,44.09,0
51.00,44.64,0
32.00,44.96,0
58.00,45.14,0
38.00,45.32,0
42.00,45.42,0
32.00,45.26,0
36.00,44.81,0
34.00,44.13,0
32.00,43.28,0
39.00,42.33,0
41.00,41.46,0
42.00,40.77,0
45.00,40.31,0
49.00,40.12,0
40.00,40.17,0
36.00,40.24,0
35.00,40.17,0
39.00,40.00,0
35.00,39.77,0
37.00,39.48,0
44.00,39.22,0
50.00,39.18,0
38.00,39.35,0
55.00,39.68,0
34.00,40.12,0
52.00,40.58,0
39.00,41.04,0
52.00,41.55,0
36.00,42.03,0
68.00,42.60,0
35.00,43.34,0
51.00,44.03,0
34.00,44.51,0
60.00,44.88,0
32.00,45.22,0
42.00,45.35,0
31.00,45.17,0
38.00,44.71,0
31.00,44.03,0
36.00,43.18,0
42.00,42.31,0
38.00,41.55,0
44.00,40.94,0
42.00,40.51,0
45.00,40.27,0
33.00,40.13,0
40.00,39.94,0
42.00,39.75,0
64.00,39.85,0
31.00,40.28,0
64.00,40.84,0
50.00,41.64,0
72.00,42.83,0
50.00,44.32,0
58.00,45.90,0
41.00,47.29,0
72.00,48.53,0
42.00,49.75,0
50.00,50.73,0
38.00,51.28,0
89.00,51.79,0
32.00,52.51,0
44.00,52.95,0
45.00,52.90,0
44.00,52.58,0
32.00,51.96,0
37.00,50.97,0
33.00,49.68,0
38.00,48.22,0
44.00,46.79,0
33.00,45.46,0
38.00,44.18,0
37.00,42.95,0
35.00,41.81,0
32.00,40.71,0
44.00,39.71,0
32.00,38.89,0
38.00,38.19,0
39.00,37.62,0
31.00,37.15,0
50.00,36.81,0
57.00,36.89,0
40.00,37.42,0
69.00,38.29,0
58.00,39.63,0
59.00,41.35,0
41.00,43.09,0
72.00,44.75,0
40.00,46.39,0
70.00,47.93,0
37.00,49.32,0
57.00,50.40,0
32.00,51.07,0
71.00,51.47,0
33.00,51.79,0
57.00,51.93,0
37.00,51.83,0
54.00,51.57,0
36.00,51.17,0
44.00,50.57,0
35.00,49.77,0
38.00,48.76,0
37.00,47.62,0
31.00,46.35,0
46.00,45.06,0
33.00,43.88,0
54.00,42.90,0
31.00,42.16,0
56.00,41.63,0
47.00,41.41,0
51.00,41.55,0
51.00,41.93,0
68.00,42.66,0
42.00,43.70,0
69.00,44.86,0
39.00,46.08,0
65.00,47.23,0
42.00,48.29,0
79.00,49.38,0
43.00,50.58,0
62.00,51.70,0
33.00,52.49,0
58.00,52.90,0
32.00,52.95,0
71.00,52.84,0
35.00,52.73,0
41.00,52.41,0
34.00,51.69,0
32.00,50.60,0
43.00,49.26,0
38.00,47.91,0
33.00,46.55,0
32.00,45.11,0
47.00,43.71,0
31.00,42.50,0
49.00,41.49,0
32.00,40.67,0
40.00,39.97,0
37.00,39.35,0
77.00,39.16,0
46.00,39.68,0
50.00,40.57,0
39.00,41.44,0
45.00,42.16,0
45.00,42.75,0
57.00,43.37,0
38.00,44.04,0
42.00,44.54,0
33.00,44.72,0
53.00,44.72,0
40.00,44.71,0
59.00,44.82,0
34.00,45.01,0
44.00,45.07,0
39.00,44.97,0
42.00,44.75,0
34.00,44.41,0
56.00,44.05,0
32.00,43.80,0
54.00,43.59,0
36.00,43.45,0
42.00,43.29,0
31.00,42.99,0
33.00,42.47,0
37.00,41.78,0
76.00,41.38,0
34.00,41.56,0
31.00,41.77,0
34.00,41.62,0
38.00,41.26,0
38.00,40.84,0
36.00,40.42,0
60.00,40.17,0
40.00,40.27,0
81.00,40.85,0
36.00,41.90,0
78.00,43.23,0
32.00,44.66,0
49.00,45.85,0
33.00,46.59,0
43.00,46.91,0
30.00,46.83,0
36.00,46.37,0
39.00,45.66,0
44.00,44.90,0
39.00,44.22,0
45.00,43.62,0
42.00,43.13,0
32.00,42.67,0
40.00,42.11,0
32.00,41.48,0
40.00,40.82,0
38.00,40.21,0
50.00,39.79,0
44.00,39.66,0
53.00,39.83,0
33.00,40.15,0
73.00,40.66,0
32.00,41.45,0
51.00,42.24,0
34.00,42.82,0
55.00,43.29,0
36.00,43.70,0
69.00,44.19,0
31.00,44.79,0
55.00,45.31,0
32.00,45.63,0
48.00,45.75,0
45.00,45.76,0
45.00,45.76,0
33.00,45.64,0
47.00,45.34,0
31.00,44.92,0
36.00,44.31,0
41.00,43.57,0
39.00,42.87,0
42.00,42.24,0
34.00,41.67,0
50.00,41.18,0
37.00,40.86,0
48.00,40.69,0
31.00,40.57,0
34.00,40.33,0
37.00,39.94,0
35.00,39.50,0
36.00,39.05,0
44.00,38.66,0
37.00,38.42,0
43.00,38.29,0
40.00,38.28,0
39.00,38.34,0
37.00,38.41,0
52.00,38.55,0
36.00,38.84,0
63.00,39.32,0
36.00,40.03,0
55.00,40.81,0
33.00,41.53,0
47.00,42.10,0
39.00,42.51,0
61.00,42.95,0
33.00,43.47,0
45.00,43.85,0
35.00,43.99,0
32.00,43.86,0
37.00,43.43,0
32.00,42.80,0
44.00,42.11,0
32.00,41.45,0
38.00,40.78,0
34.00,40.10,0
48.00,39.53,0
32.00,39.13,0
36.00,38.75,0
38.00,38.36,0
42.00,38.06,0
49.00,37.99,0
51.00,38.26,0
34.00,38.73,0
47.00,39.17,0
34.00,39.56,0
48.00,39.89,0
45.00,40.27,0
63.00,40.89,0
34.00,41.70,0
57.00,42.50,0
40.00,43.25,0
52.00,43.95,0
32.00,44.49,0
39.00,44.70,0
31.00,44.56,0
40.00,44.14,0
33.00,43.55,0
38.00,42.85,0
31.00,42.07,0
32.00,41.17,0
34.00,40.19,0
38.00,39.26,0
39.00,38.49,0
33.00,37.86,0
35.00,37.29,0
32.00,36.74,0
31.00,36.18,0
32.00,35.60,0
36.00,35.06,0
31.00,34.61,0
36.00,34.23,0
30.00,33.91,0
52.00,33.77,0
31.00,33.91,0
37.00,34.15,0
32.00,34.33,0
40.00,34.50,0
31.00,34.67,0
41.00,34.84,0
32.00,35.01,0
39.00,35.17,0
31.00,35.30,0
38.00,35.38,0
32.00,35.42,0
35.00,35.41,0
32.00,35.34,0
34.00,35.22,0
33.00,35.06,0
33.00,34.88,0
33.00,34.68,0
34.00,34.48,0
37.00,34.33,0
33.00,34.25,0
34.00,34.18,0
34.00,34.12,0
35.00,34.08,0
33.00,34.05,0
36.00,34.04,0
33.00,34.04,0
35.00,34.05,0
33.00,34.06,0
37.00,34.08,0
33.00,34.12,0
36.00,34.18,0
34.00,34.24,0
36.00,34.31,0
35.00,34.40,0
35.00,34.49,0
34.00,34.57,0
36.00,34.64,0
34.00,34.70,0
35.00,34.75,0
35.00,34.79,0
35.00,34.82,0
35.00,34.85,0
36.00,34.89,0
34.00,34.93,0
35.00,34.96,0
34.00,34.96,0
36.00,34.96,0
34.00,34.96,0
35.00,34.95,0
34.00,34.93,0
36.00,34.90,0
35.00,34.90,0
36.00,34.92,0
35.00,34.95,0
35.00,34.98,0
35.00,35.01,0
36.00,35.04,0
35.00,35.07,0
35.00,35.11,0
35.00,35.13,0
35.00,35.14,0
35.00,35.15,0
35.00,35.15,0
35.00,35.14,0
35.00,35.13,0
35.00,35.12,0
35.00,35.11,0
35.00,35.09,0
34.00,35.07,0
35.00,35.04,0
34.00,34.99,0
36.00,34.95,0
35.00,34.93,0
36.00,34.93,0
34.00,34.94,0
36.00,34.95,0
35.00,34.97,0
36.00,35.00,0
34.00,35.04,0
36.00,35.06,0
34.00,35.08,0
36.00,35.08,0
35.00,35.10,0
35.00,35.11,0
35.00,35.12,0
35.00,35.12,0
35.00,35.12,0
35.00,35.11,0
35.00,35.10,0
35.00,35.09,0
35.00,35.08,0
35.00,35.07,0
35.00,35.06,0
34.00,35.04,0
36.00,35.02,0
35.00,35.01,0
35.00,35.01,0
35.00,35.01,0
36.00,35.02,0
35.00,35.04,0
36.00,35.07,0
34.00,35.10,0
36.00,35.12,0
34.00,35.13,0
34.00,35.12,0
35.00,35.08,0
36.00,35.05,0
35.00,35.04,0
35.00,35.04,0
34.00,35.03,0
35.00,35.00,0
34.00,34.97,0
34.00,34.92,0
35.00,34.86,0
35.00,34.81,0
36.00,34.78,0
34.00,34.78,0
36.00,34.79,0
34.00,34.80,0
36.00,34.81,0
34.00,34.83,0
36.00,34.85,0
34.00,34.87,0
36.00,34.89,0
35.00,34.92,0
36.00,34.96,0
35.00,35.00,0
36.00,35.06,0
36.00,35.12,0
36.00,35.20,0
35.00,35.27,0
36.00,35.34,0
36.00,35.40,0
35.00,35.46,0
35.00,35.50,0
36.00,35.52,0
36.00,35.55,0
34.00,35.56,0
36.00,35.56,0
34.00,35.53,0
36.00,35.50,0
34.00,35.45,0
36.00,35.41,0
34.00,35.36,0
37.00,35.31,0
34.00,35.29,0
37.00,35.28,0
34.00,35.27,0
37.00,35.28,0
35.00,35.30,0
36.00,35.33,0
36.00,35.37,0
37.00,35.42,0
34.00,35.49,0
37.00,35.54,0
35.00,35.58,0
37.00,35.63,0
35.00,35.67,0
37.00,35.72,0
35.00,35.77,0
34.00,35.78,0
38.00,35.78,0
33.00,35.77,0
36.00,35.75,0
34.00,35.69,0
36.00,35.62,0
34.00,35.55,0
39.00,35.51,0
32.00,35.49,0
40.00,35.48,0
32.00,35.50,0
38.00,35.51,0
32.00,35.50,0
39.00,35.48,0
34.00,35.49,0
40.00,35.53,0
33.00,35.61,0
41.00,35.70,0
34.00,35.83,0
40.00,35.97,0
33.00,36.10,0
38.00,36.20,0
34.00,36.26,0
36.00,36.28,0
35.00,36.26,0
38.00,36.24,0
34.00,36.22,0
34.00,36.17,0
36.00,36.07,0
34.00,35.96,0
34.00,35.83,0
32.00,35.65,0
38.00,35.47,0
40.00,35.37,0
42.00,35.45,0
32.00,35.63,0
39.00,35.79,0
33.00,35.91,0
44.00,36.04,0
31.00,36.21,0
78.00,36.66,0
51.00,37.76,0
32.00,39.10,0
31.00,40.04,0
35.00,40.49,0
36.00,40.62,0
38.00,40.58,0
34.00,40.41,0
49.00,40.23,0
35.00,40.14,0
52.00,40.16,0
31.00,40.25,0
44.00,40.30,0
37.00,40.29,0
56.00,40.39,0
35.00,40.65,0
50.00,40.96,0
40.00,41.29,0
40.00,41.58,0
35.00,41.71,0
32.00,41.60,0
38.00,41.27,0
34.00,40.84,0
49.00,40.44,0
35.00,40.18,0
46.00,40.02,0
32.00,39.88,0
39.00,39.70,0
33.00,39.42,0
42.00,39.13,0
33.00,38.85,0
52.00,38.67,0
39.00,38.72,0
66.00,39.09,0
31.00,39.75,0
45.00,40.36,0
33.00,40.77,0
52.00,41.07,0
42.00,41.43,0
53.00,41.89,0
34.00,42.36,0
47.00,42.71,0
38.00,42.93,0
36.00,42.99,0
53.00,42.97,0
50.00,43.11,0
35.00,43.36,0
78.00,43.74,0
36.00,44.47,0
37.00,45.09,0
40.00,45.32,0
36.00,45.25,0
67.00,45.18,0
39.00,45.37,0
52.00,45.63,0
42.00,45.86,0
44.00,46.00,0
41.00,46.00,0
58.00,46.00,0
48.00,46.17,0
54.00,46.49,0
49.00,46.90,0
64.00,47.44,0
35.00,48.04,0
55.00,48.46,0
32.00,48.65,0
58.00,48.64,0
46.00,48.64,0
64.00,48.79,0
37.00,49.04,0
52.00,49.18,0
44.00,49.19,0
56.00,49.19,0
63.00,49.37,0
77.00,50.02,0
43.00,51.01,0
48.00,51.81,0
56.00,52.32,0
51.00,52.73,0
41.00,52.93,0
42.00,52.79,0
54.00,52.42,0
70.00,52.22,0
69.00,52.52,0
58.00,53.21,0
74.00,54.12,0
49.00,55.12,0
49.00,55.89,0
57.00,56.31,0
45.00,56.49,0
53.00,56.42,0
45.00,56.11,0
72.00,55.80,0
69.00,55.85,0
41.00,56.12,0
56.00,56.18,0
43.00,55.99,0
67.00,55.72,0
70.00,55.72,0
71.00,56.17,0
45.00,56.78,0
63.00,57.22,0
44.00,57.44,0
43.00,57.31,0
60.00,56.89,0
84.00,56.73,0
54.00,57.07,0
50.00,57.44,0
71.00,57.68,0
49.00,57.95,0
54.00,58.08,0
60.00,58.05,0
58.00,58.03,0
76.00,58.18,0
61.00,58.61,0
78.00,59.28,0
82.00,60.30,0
47.00,61.47,0
45.00,62.16,0
56.00,62.22,0
58.00,61.99,0
51.00,61.61,0
54.00,61.05,0
41.00,60.26,0
42.00,59.14,0
32.00,57.63,0
70.00,56.03,0
55.00,54.83,0
74.00,54.22,0
57.00,54.10,0
38.00,54.10,0
51.00,53.83,0
95.00,53.78,0
69.00,54.53,0
74.00,55.83,0
59.00,57.26,0
81.00,58.70,0
61.00,60.19,0
73.00,61.61,0
69.00,62.94,0
48.00,64.00,0
58.00,64.54,0
61.00,64.68,0
60.00,64.63,0
93.00,64.72,0
74.00,65.30,0
69.00,66.14,0
41.00,66.68,0
59.00,66.62,0
90.00,66.43,0
38.00,66.38,0
45.00,65.89,0
44.00,64.76,0
97.00,63.66,0
34.00,62.97,0
88.00,62.46,0
41.00,62.08,0
58.00,61.62,0
40.00,60.86,0
68.00,59.97,0
31.00,59.02,0
78.00,58.07,0
34.00,57.25,0
54.00,56.39,0
42.00,55.39,0
41.00,54.27,0
34.00,52.93,0
34.00,51.35,0
44.00,49.65,0
38.00,48.03,0
42.00,46.56,0
57.00,45.38,0
48.00,44.67,0
32.00,44.18,0
45.00,43.64,0
43.00,43.16,0
54.00,42.89,0
55.00,42.98,0
99.00,43.80,0
46.00,45.47,0
92.00,47.58,0
41.00,49.85,0
80.00,52.03,0
34.00,53.91,0
112.00,55.71,0
37.00,57.68,0
33.00,59.07,0
32.00,59.29,0
66.00,58.84,0
36.00,58.20,0
40.00,57.26,0
33.00,55.88,0
40.00,54.19,0
43.00,52.40,0
37.00,50.65,0
35.00,48.90,0
48.00,47.23,0
38.00,45.80,0
50.00,44.64,0
70.00,44.00,0
59.00,44.13,0
62.00,44.85,0
50.00,45.83,0
51.00,46.82,0
36.00,47.58,0
59.00,48.09,0
36.00,48.46,0
75.00,48.84,0
49.00,49.46,0
61.00,50.23,0
33.00,50.84,0
43.00,51.02,0
37.00,50.76,0
72.00,50.45,0
38.00,50.36,0
39.00,50.17,0
32.00,49.59,0
46.00,48.74,0
33.00,47.78,0
66.00,46.95,0
38.00,46.44,0
38.00,46.01,0
33.00,45.37,0
32.00,44.51,0
36.00,43.49,0
34.00,42.41,0
35.00,41.34,0
31.00,40.28,0
42.00,39.28,0
39.00,38.51,0
46.00,38.01,0
42.00,37.81,0
48.00,37.88,0
44.00,38.19,0
94.00,39.07,0
46.00,40.76,0
67.00,42.78,0
52.00,44.82,0
49.00,46.71,0
35.00,48.13,0
95.00,49.39,0
38.00,50.89,0
67.00,52.31,0
32.00,53.35,0
80.00,54.11,0
35.00,54.79,0
34.00,55.00,0
36.00,54.49,0
33.00,53.44,0
31.00,51.98,0
33.00,50.21,0
31.00,48.27,0
37.00,46.28,0
32.00,44.38,0
40.00,42.63,0
59.00,41.30,0
46.00,40.61,0
64.00,40.51,0
31.00,40.80,0
48.00,41.10,0
53.00,41.46,0
60.00,42.13,0
38.00,42.99,0
50.00,43.76,0
61.00,44.55,0
72.00,45.69,0
43.00,47.09,0
54.00,48.36,0
35.00,49.26,0
68.00,49.90,0
32.00,50.41,0
55.00,50.68,0
47.00,50.78,0
45.00,50.77,0
34.00,50.50,0
36.00,49.86,0
34.00,48.88,0
80.00,48.04,0
32.00,47.68,0
34.00,47.30,0
35.00,46.57,0
35.00,45.61,0
53.00,44.69,0
35.00,43.96,0
34.00,43.25,0
38.00,42.45,0
58.00,41.82,0
38.00,41.55,0
48.00,41.47,0
37.00,41.46,0
54.00,41.53,0
44.00,41.77,0
65.00,42.29,0
46.00,43.11,0
64.00,44.13,0
51.00,45.31,0
77.00,46.72,0
40.00,48.27,0
51.00,49.58,0
32.00,50.36,0
41.00,50.58,0
40.00,50.35,0
44.00,49.87,0
46.00,49.30,0
53.00,48.80,0
35.00,48.35,0
34.00,47.71,0
30.00,46.74,0
37.00,45.53,0
42.00,44.32,0
32.00,43.20,0
43.00,42.15,0
39.00,41.25,0
33.00,40.48,0
41.00,39.76,0
60.00,39.35,0
40.00,39.40,0
44.00,39.65,0
32.00,39.86,0
40.00,39.92,0
50.00,39.98,0
52.00,40.30,0
50.00,40.89,0
57.00,41.71,0
43.00,42.67,0
57.00,43.64,0
33.00,44.50,0
41.00,45.05,0
33.00,45.19,0
74.00,45.30,0
32.00,45.65,0
34.00,45.82,0
51.00,45.69,0
31.00,45.46,0
48.00,45.11,0
32.00,44.67,0
32.00,44.05,0
31.00,43.17,0
33.00,42.12,0
36.00,41.03,0
34.00,39.99,0
37.00,39.04,0
42.00,38.27,0
33.00,37.70,0
52.00,37.34,0
37.00,37.27,0
44.00,37.39,0
36.00,37.58,0
46.00,37.82,0
33.00,38.09,0
48.00,38.35,0
32.00,38.61,0
42.00,38.81,0
30.00,38.88,0
48.00,38.89,0
31.00,38.91,0
44.00,38.91,0
35.00,38.89,0
42.00,38.89,0
31.00,38.84,0
45.00,38.75,0
39.00,38.72,0
34.00,38.72,0
32.00,38.58,0
34.00,38.29,0
31.00,37.89,0
32.00,37.38,0
33.00,36.83,0
31.00,36.25,0
42.00,35.74,0
31.00,35.39,0
41.00,35.14,0
31.00,34.99,0
40.00,34.89,0
30.00,34.83,0
47.00,34.85,0
31.00,34.99,0
52.00,35.28,0
33.00,35.72,0
42.00,36.20,0
29.00,36.57,0
40.00,36.80,0
32.00,36.92,0
41.00,36.99,0
34.00,37.05,0
37.00,37.07,0
38.00,37.07,0
35.00,37.07,0
37.00,37.04,0
35.00,36.98,0
38.00,36.91,0
35.00,36.85,0
33.00,36.75,0
34.00,36.57,0
35.00,36.35,0
33.00,36.11,0
36.00,35.87,0
32.00,35.64,0
41.00,35.44,0
32.00,35.33,0
40.00,35.28,0
31.00,35.25,0
39.00,35.23,0
31.00,35.21,0
40.00,35.19,0
33.00,35.21,0
41.00,35.27,0
31.00,35.36,0
40.00,35.44,0
32.00,35.51,0
40.00,35.58,0
32.00,35.65,0
42.00,35.73,0
33.00,35.84,0
38.00,35.94,0
32.00,36.00,0
37.00,36.00,0
35.00,35.98,0
36.00,35.96,0
34.00,35.92,0
38.00,35.87,0
34.00,35.84,0
34.00,35.79,0
36.00,35.71,0
32.00,35.60,0
36.00,35.47,0
35.00,35.35,0
36.00,35.26,0
31.00,35.17,0
37.00,35.05,0
33.00,34.95,0
41.00,34.90,0
32.00,34.93,0
39.00,34.98,0
32.00,35.04,0
42.00,35.12,0
31.00,35.24,0
39.00,35.35,0
31.00,35.42,0
36.00,35.43,0
32.00,35.39,0
40.00,35.34,0
32.00,35.33,0
38.00,35.32,0
34.00,35.32,0
32.00,35.30,0
34.00,35.20,0
38.00,35.11,0
34.00,35.07,0
34.00,35.03,0
35.00,34.98,0
36.00,34.94,0
37.00,34.94,0
32.00,34.97,0
36.00,34.96,0
32.00,34.92,0
34.00,34.85,0
31.00,34.72,0
39.00,34.60,0
32.00,34.52,0
37.00,34.48,0
31.00,34.44,0
39.00,34.41,0
31.00,34.41,0
38.00,34.42,0
31.00,34.43,0
39.00,34.45,0
32.00,34.49,0
40.00,34.56,0
33.00,34.67,0
42.00,34.83,0
33.00,35.04,0
39.00,35.26,0
34.00,35.46,0
43.00,35.68,0
35.00,35.94,0
33.00,36.17,0
35.00,36.26,0
37.00,36.29,0
31.00,36.27,0
32.00,36.14,0
32.00,35.89,0
31.00,35.57,0
36.00,35.22,0
32.00,34.91,0
35.00,34.63,0
31.00,34.38,0
42.00,34.19,0
30.00,34.12,0
40.00,34.12,0
31.00,34.15,0
42.00,34.23,0
31.00,34.38,0
42.00,34.55,0
33.00,34.77,0
43.00,35.03,0
31.00,35.31,0
45.00,35.60,0
32.00,35.90,0
41.00,36.19,0
33.00,36.42,0
44.00,36.64,0
31.00,36.86,0
36.00,36.98,0
32.00,36.96,0
35.00,36.84,0
36.00,36.67,0
44.00,36.58,0
37.00,36.63,0
42.00,36.78,0
37.00,36.98,0
32.00,37.14,0
48.00,37.26,0
32.00,37.45,0
38.00,37.59,0
33.00,37.62,0
39.00,37.58,0
33.00,37.50,0
38.00,37.38,0
31.00,37.21,0
41.00,37.01,0
32.00,36.84,0
42.00,36.71,0
31.00,36.61,0
37.00,36.49,0
31.00,36.31,0
40.00,36.13,0
32.00,35.98,0
48.00,35.93,0
33.00,36.03,0
43.00,36.22,0
35.00,36.44,0
41.00,36.67,0
34.00,36.88,0
43.00,37.08,0
35.00,37.29,0
43.00,37.50,0
38.00,37.74,0
37.00,37.96,0
34.00,38.08,0
34.00,38.06,0
33.00,37.90,0
34.00,37.64,0
35.00,37.32,0
31.00,36.95,0
41.00,36.60,0
32.00,36.31,0
39.00,36.09,0
31.00,35.89,0
40.00,35.72,0
34.00,35.60,0
47.00,35.62,0
31.00,35.77,0
42.00,35.95,0
32.00,36.12,0
41.00,36.26,0
32.00,36.38,0
40.00,36.47,0
33.00,36.52,0
47.00,36.63,0
32.00,36.81,0
36.00,36.94,0
34.00,36.96,0
46.00,37.00,0
33.00,37.11,0
38.00,37.22,0
34.00,37.25,0
44.00,37.28,0
35.00,37.36,0
35.00,37.43,0
36.00,37.41,0
33.00,37.31,0
43.00,37.20,0
36.00,37.17,0
34.00,37.15,0
36.00,37.06,0
43.00,37.00,0
33.00,37.01,0
42.00,37.05,0
32.00,37.08,0
43.00,37.11,0
30.00,37.13,0
44.00,37.13,0
32.00,37.15,0
43.00,37.18,0
32.00,37.21,0
51.00,37.31,0
36.00,37.56,0
50.00,37.94,0
38.00,38.40,0
39.00,38.86,0
38.00,39.18,0
46.00,39.47,0
32.00,39.72,0
36.00,39.81,0
37.00,39.72,0
33.00,39.52,0
34.00,39.19,0
33.00,38.76,0
36.00,38.27,0
33.00,37.77,0
44.00,37.35,0
36.00,37.09,0
42.00,36.98,0
37.00,36.96,0
43.00,37.04,0
36.00,37.20,0
46.00,37.41,0
34.00,37.68,0
47.00,37.96,0
32.00,38.25,0
42.00,38.46,0
33.00,38.59,0
48.00,38.69,0
30.00,38.81,0
43.00,38.87,0
32.00,38.84,0
50.00,38.84,0
34.00,38.93,0
51.00,39.10,0
32.00,39.33,0
52.00,39.58,0
38.00,39.91,0
45.00,40.26,0
36.00,40.56,0
44.00,40.77,0
34.00,40.89,0
37.00,40.86,0
34.00,40.66,0
34.00,40.32,0
37.00,39.87,0
35.00,39.39,0
37.00,38.91,0
36.00,38.46,0
45.00,38.12,0
36.00,37.94,0
35.00,37.81,0
34.00,37.61,0
45.00,37.44,0
34.00,37.38,0
50.00,37.45,0
34.00,37.65,0
55.00,37.99,0
31.00,38.44,0
44.00,38.84,0
34.00,39.12,0
48.00,39.37,0
41.00,39.66,0
63.00,40.18,0
33.00,40.89,0
36.00,41.44,0
34.00,41.65,0
49.00,41.69,0
38.00,41.74,0
45.00,41.81,0
41.00,41.88,0
37.00,41.90,0
41.00,41.82,0
38.00,41.68,0
39.00,41.48,0
34.00,41.20,0
38.00,40.82,0
47.00,40.48,0
41.00,40.32,0
34.00,40.21,0
51.00,40.11,0
34.00,40.12,0
36.00,40.08,0
36.00,39.90,0
43.00,39.69,0
36.00,39.53,0
48.00,39.44,0
34.00,39.45,0
52.00,39.53,0
34.00,39.71,0
45.00,39.90,0
36.00,40.04,0
66.00,40.34,0
39.00,40.95,0
41.00,41.59,0
33.00,41.97,0
45.00,42.13,0
33.00,42.15,0
55.00,42.14,0
47.00,42.31,0
64.00,42.81,0
40.00,43.54,0
69.00,44.43,0
37.00,45.40,0
50.00,46.24,0
35.00,46.77,0
39.00,46.94,0
40.00,46.78,0
50.00,46.51,0
41.00,46.27,0
37.00,45.95,0
40.00,45.47,0
41.00,44.91,0
45.00,44.37,0
35.00,43.88,0
45.00,43.37,0
39.00,42.91,0
49.00,42.56,0
34.00,42.30,0
50.00,42.08,0
34.00,41.92,0
45.00,41.75,0
33.00,41.55,0
54.00,41.38,0
42.00,41.40,0
41.00,41.52,0
41.00,41.60,0
36.00,41.61,0
43.00,41.52,0
47.00,41.48,0
42.00,41.56,0
39.00,41.65,0
36.00,41.63,0
41.00,41.50,0
50.00,41.41,0
37.00,41.45,0
40.00,41.46,0
38.00,41.38,0
60.00,41.41,0
52.00,41.80,0
43.00,42.42,0
36.00,42.93,0
49.00,43.26,0
41.00,43.52,0
59.00,43.85,0
33.00,44.24,0
40.00,44.43,0
38.00,44.36,0
57.00,44.26,0
45.00,44.36,0
64.00,44.71,0
31.00,45.19,0
50.00,45.51,0
35.00,45.62,0
54.00,45.63,0
37.00,45.62,0
51.00,45.59,0
37.00,45.51,0
56.00,45.44,0
37.00,45.42,0
51.00,45.40,0
37.00,45.34,0
49.00,45.23,0
40.00,45.10,0
45.00,44.95,0
36.00,44.72,0
46.00,44.42,0
42.00,44.12,0
36.00,43.81,0
42.00,43.42,0
44.00,43.04,0
48.00,42.80,0
43.00,42.71,0
36.00,42.64,0
36.00,42.43,0
45.00,42.13,0
35.00,41.83,0
48.00,41.58,0
37.00,41.40,0
41.00,41.24,0
33.00,41.01,0
52.00,40.79,0
38.00,40.73,0
76.00,41.02,0
36.00,41.75,0
40.00,42.49,0
34.00,42.88,0
50.00,43.07,0
39.00,43.21,0
50.00,43.37,0
45.00,43.57,0
43.00,43.80,0
38.00,43.92,0
40.00,43.87,0
44.00,43.73,0
38.00,43.54,0
33.00,43.23,0
47.00,42.81,0
64.00,42.66,0
48.00,42.97,0
48.00,43.50,0
39.00,43.99,0
43.00,44.29,0
34.00,44.37,0
50.00,44.30,0
38.00,44.20,0
43.00,44.05,0
31.00,43.77,0
59.00,43.46,0
34.00,43.30,0
48.00,43.20,0
45.00,43.14,0
44.00,43.17,0
33.00,43.14,0
40.00,42.92,0
42.00,42.62,0
41.00,42.35,0
44.00,42.13,0
52.00,42.07,0
36.00,42.15,0
48.00,42.24,0
36.00,42.30,0
43.00,42.29,0
36.00,42.20,0
36.00,41.98,0
39.00,41.64,0
46.00,41.32,0
44.00,41.17,0
40.00,41.12,0
43.00,41.11,0
35.00,41.07,0
38.00,40.93,0
34.00,40.67,0
39.00,40.33,0
33.00,39.93,0
54.00,39.62,0
31.00,39.50,0
36.00,39.36,0
31.00,39.05,0
46.00,38.72,0
36.00,38.51,0
49.00,38.45,0
33.00,38.52,0
37.00,38.55,0
34.00,38.47,0
41.00,38.34,0
44.00,38.30,0
43.00,38.42,0
36.00,38.62,0
35.00,38.73,0
38.00,38.72,0
32.00,38.62,0
35.00,38.40,0
31.00,38.07,0
40.00,37.68,0
35.00,37.35,0
39.00,37.10,0
33.00,36.89,0
40.00,36.70,0
31.00,36.54,0
36.00,36.35,0
31.00,36.11,0
48.00,35.94,0
32.00,35.94,0
43.00,36.03,0
31.00,36.14,0
36.00,36.20,0
31.00,36.15,0
44.00,36.09,0
35.00,36.13,0
44.00,36.27,0
32.00,36.45,0
36.00,36.58,0
37.00,36.63,0
36.00,36.67,0
37.00,36.69,0
36.00,36.70,0
35.00,36.68,0
33.00,36.61,0
36.00,36.47,0
32.00,36.30,0
37.00,36.09,0
33.00,35.90,0
38.00,35.72,0
32.00,35.58,0
46.00,35.51,0
33.00,35.59,0
36.00,35.69,0
31.00,35.71,0
39.00,35.68,0
30.00,35.63,0
40.00,35.56,0
31.00,35.50,0
39.00,35.44,0
32.00,35.39,0
40.00,35.37,0
29.00,35.34,0
42.00,35.31,0
31.00,35.31,0
46.00,35.39,0
35.00,35.58,0
42.00,35.85,0
35.00,36.15,0
36.00,36.40,0
35.00,36.56,0
37.00,36.66,0
36.00,36.72,0
36.00,36.75,0
35.00,36.74,0
40.00,36.72,0
35.00,36.73,0
34.00,36.72,0
36.00,36.64,0
32.00,36.52,0
38.00,36.35,0
33.00,36.19,0
37.00,36.04,0
32.00,35.88,0
36.00,35.70,0
31.00,35.50,0
37.00,35.29,0
32.00,35.10,0
36.00,34.93,0
35.00,34.79,0
38.00,34.72,0
32.00,34.71,0
39.00,34.71,0
34.00,34.76,0
36.00,34.83,0
33.00,34.88,0
37.00,34.91,0
34.00,34.95,0
37.00,34.99,0
35.00,35.05,0
37.00,35.13,0
34.00,35.21,0
35.00,35.26,0
36.00,35.29,0
35.00,35.32,0
35.00,35.34,0
36.00,35.36,0
35.00,35.37,0
36.00,35.39,0
35.00,35.40,0
34.00,35.40,0
37.00,35.39,0
33.00,35.37,0
36.00,35.34,0
32.00,35.28,0
36.00,35.19,0
33.00,35.09,0
39.00,35.02,0
33.00,35.00,0
39.00,35.02,0
33.00,35.06,0
38.00,35.12,0
33.00,35.18,0
36.00,35.21,0
34.00,35.23,0
36.00,35.23,0
34.00,35.22,0
36.00,35.21,0
34.00,35.19,0
36.00,35.17,0
35.00,35.16,0
35.00,35.16,0
36.00,35.16,0
35.00,35.17,0
36.00,35.19,0
33.00,35.19,0
37.00,35.18,0
33.00,35.17,0
36.00,35.15,0
32.00,35.10,0
40.00,35.06,0
33.00,35.07,0
40.00,35.13,0
32.00,35.20,0
40.00,35.29,0
32.00,35.38,0
39.00,35.46,0
32.00,35.52,0
39.00,35.57,0
32.00,35.60,0
39.00,35.62,0
33.00,35.64,0
37.00,35.65,0
33.00,35.64,0
38.00,35.62,0
35.00,35.61,0
36.00,35.62,0
37.00,35.64,0
34.00,35.67,0
37.00,35.68,0
35.00,35.70,0
42.00,35.76,0
36.00,35.90,0
39.00,36.09,0
33.00,36.26,0
40.00,36.38,0
32.00,36.47,0
39.00,36.52,0
34.00,36.53,0
41.00,36.56,0
31.00,36.59,0
41.00,36.59,0
31.00,36.57,0
42.00,36.55,0
31.00,36.53,0
40.00,36.50,0
32.00,36.45,0
38.00,36.38,0
31.00,36.27,0
40.00,36.15,0
32.00,36.04,0
39.00,35.95,0
33.00,35.88,0
39.00,35.82,0
35.00,35.81,0
36.00,35.81,0
32.00,35.77,0
39.00,35.71,0
35.00,35.69,0
37.00,35.69,0
37.00,35.72,0
36.00,35.78,0
39.00,35.87,0
31.00,35.94,0
40.00,35.98,0
32.00,36.00,0
42.00,36.03,0
31.00,36.08,0
43.00,36.13,0
33.00,36.22,0
48.00,36.39,0
32.00,36.65,0
56.00,37.02,0
32.00,37.54,0
52.00,38.11,0
32.00,38.67,0
51.00,39.20,0
32.00,39.68,0
52.00,40.12,0
32.00,40.51,0
52.00,40.85,0
29.00,41.13,0
47.00,41.28,0
31.00,41.30,0
55.00,41.31,0
33.00,41.38,0
44.00,41.44,0
36.00,41.40,0
42.00,41.32,0
44.00,41.24,0
38.00,41.21,0
41.00,41.15,0
36.00,41.04,0
49.00,40.93,0
43.00,40.96,0
45.00,41.12,0
43.00,41.33,0
45.00,41.59,0
45.00,41.87,0
51.00,42.24,0
52.00,42.77,0
74.00,43.66,0
45.00,44.92,0
64.00,46.28,0
47.00,47.60,0
69.00,48.91,0
49.00,50.22,0
82.00,51.61,0
55.00,53.17,0
82.00,54.87,0
43.00,56.51,0
88.00,58.00,0
41.00,59.37,0
67.00,60.41,0
43.00,61.00,0
58.00,61.18,0
37.00,60.92,0
43.00,60.15,0
36.00,58.90,0
70.00,57.53,0
51.00,56.46,0
50.00,55.62,0
59.00,54.88,0
65.00,54.42,0
50.00,54.26,0
74.00,54.31,0
44.00,54.55,0
48.00,54.67,0
64.00,54.64,0
78.00,54.91,0
57.00,55.59,0
68.00,56.42,0
50.00,57.19,0
33.00,57.55,0
48.00,57.27,0
34.00,56.51,0
48.00,55.42,0
48.00,54.23,0
63.00,53.24,0
37.00,52.48,0
62.00,51.80,0
36.00,51.21,0
58.00,50.65,0
56.00,50.27,0
67.00,50.28,0
56.00,50.65,0
73.00,51.34,0
57.00,52.31,0
53.00,53.30,0
59.00,54.12,0
114.00,55.31,0
75.00,57.39,0
50.00,59.68,0
62.00,61.39,0
76.00,62.74,0
49.00,63.86,0
52.00,64.46,0
41.00,64.40,0
72.00,63.92,0
71.00,63.57,0
88.00,63.68,0
97.00,64.51,0
115.00,66.30,0
62.00,68.68,0
38.00,70.51,0
51.00,71.11,0
51.00,70.80,0
81.00,70.16,0
36.00,69.41,0
48.00,68.20,0
40.00,66.46,0
54.00,64.45,0
32.00,62.28,0
80.00,60.20,0
61.00,58.73,0
70.00,57.92,0
70.00,57.64,0
73.00,57.85,0
43.00,58.25,0
71.00,58.52,0
91.00,59.07,0
55.00,60.09,0
123.00,61.56,0
54.00,63.59,0
79.00,65.59,0
42.00,67.04,0
50.00,67.68,0
110.00,68.01,0
73.00,68.85,0
74.00,69.95,0
96.00,71.09,0
88.00,72.53,0
66.00,74.02,0
60.00,75.02,0
54.00,75.28,0
49.00,74.78,0
62.00,73.69,0
37.00,72.15,0
66.00,70.27,0
33.00,68.18,0
50.00,65.84,0
41.00,63.33,0
74.00,61.02,0
67.00,59.37,0
44.00,58.24,0
41.00,57.07,0
51.00,55.75,0
55.00,54.54,0
47.00,53.54,0
67.00,52.80,0
87.00,52.70,0
59.00,53.38,0
48.00,54.23,0
34.00,54.64,0
49.00,54.50,0
52.00,54.11,0
92.00,54.05,0
63.00,54.69,0
35.00,55.47,0
53.00,55.76,0
58.00,55.77,0
50.00,55.75,0
43.00,55.55,0
76.00,55.32,0
49.00,55.32,0
82.00,55.62,0
62.00,56.27,0
70.00,57.19,0
38.00,57.99,0
60.00,58.37,0
38.00,58.35,0
70.00,58.11,0
47.00,57.87,0
38.00,57.43,0
48.00,56.62,0
56.00,55.69,0
63.00,54.99,0
48.00,54.55,0
54.00,54.16,0
48.00,53.77,0
42.00,53.27,0
57.00,52.70,0
83.00,52.49,0
46.00,52.83,0
55.00,53.24,0
46.00,53.47,0
66.00,53.63,0
36.00,53.75,0
59.00,53.69,0
68.00,53.71,0
58.00,54.03,0
32.00,54.28,0
44.00,54.04,0
53.00,53.51,0
71.00,53.16,0
41.00,53.08,0
49.00,52.94,0
68.00,52.79,0
46.00,52.85,0
48.00,52.86,0
33.00,52.57,0
50.00,51.96,0
59.00,51.37,0
32.00,50.87,0
42.00,50.18,0
47.00,49.34,0
45.00,48.56,0
41.00,47.84,0
48.00,47.16,0
57.00,46.68,0
39.00,46.43,0
47.00,46.22,0
37.00,45.93,0
57.00,45.67,0
37.00,45.51,0
76.00,45.60,0
61.00,46.22,0
50.00,47.23,0
32.00,48.03,0
55.00,48.44,0
45.00,48.70,0
79.00,49.14,0
38.00,49.84,0
77.00,50.65,0
49.00,51.58,0
39.00,52.35,0
34.00,52.53,0
58.00,52.29,0
45.00,52.00,0
34.00,51.55,0
32.00,50.71,0
46.00,49.58,0
39.00,48.42,0
51.00,47.39,0
47.00,46.60,0
60.00,46.15,0
73.00,46.26,0
58.00,47.00,0
43.00,47.93,0
51.00,48.66,0
41.00,49.14,0
58.00,49.46,0
59.00,49.85,0
36.00,50.26,0
71.00,50.57,0
40.00,50.94,0
40.00,51.11,0
51.00,50.97,0
78.00,50.99,0
34.00,51.31,0
71.00,51.65,0
51.00,52.08,0
56.00,52.58,0
49.00,52.97,0
59.00,53.27,0
39.00,53.45,0
50.00,53.36,0
50.00,53.09,0
56.00,52.83,0
40.00,52.56,0
48.00,52.13,0
33.00,51.48,0
35.00,50.52,0
56.00,49.43,0
46.00,48.57,0
42.00,47.87,0
40.00,47.17,0
46.00,46.46,0
36.00,45.78,0
48.00,45.12,0
55.00,44.67,0
39.00,44.48,0
44.00,44.33,0
47.00,44.19,0
42.00,44.11,0
74.00,44.28,0
47.00,44.90,0
93.00,46.05,0
42.00,47.67,0
48.00,49.19,0
32.00,50.13,0
38.00,50.41,0
40.00,50.19,0
54.00,49.78,0
44.00,49.42,0
33.00,48.95,0
45.00,48.26,0
40.00,47.49,0
36.00,46.67,0
55.00,45.88,0
36.00,45.26,0
49.00,44.76,0
40.00,44.33,0
39.00,43.93,0
35.00,43.43,0
35.00,42.81,0
41.00,42.13,0
46.00,41.57,0
43.00,41.23,0
40.00,41.02,0
44.00,40.89,0
47.00,40.88,0
42.00,41.01,0
51.00,41.26,0
64.00,41.80,0
47.00,42.70,0
64.00,43.80,0
59.00,45.13,0
87.00,46.86,0
35.00,48.84,0
105.00,50.91,0
35.00,53.11,0
44.00,54.84,0
42.00,55.70,0
40.00,55.90,0
48.00,55.62,0
33.00,54.95,0
39.00,53.89,0
57.00,52.69,0
41.00,51.64,0
36.00,50.59,0
35.00,49.33,0
45.00,47.99,0
39.00,46.74,0
33.00,45.53,0
38.00,44.29,0
39.00,43.11,0
59.00,42.23,0
45.00,41.84,0
50.00,41.81,0
42.00,41.95,0
65.00,42.31,0
45.00,42.98,0
72.00,43.95,0
34.00,45.08,0
43.00,45.96,0
35.00,46.39,0
50.00,46.52,0
38.00,46.52,0
56.00,46.48,0
31.00,46.41,0
33.00,46.07,0
49.00,45.50,0
33.00,44.91,0
33.00,44.21,0
46.00,43.41,0
52.00,42.83,0
32.00,42.48,0
44.00,42.13,0
55.00,41.92,0
31.00,41.90,0
33.00,41.74,0
38.00,41.36,0
31.00,40.86,0
43.00,40.30,0
41.00,39.86,0
43.00,39.59,0
34.00,39.41,0
49.00,39.29,0
33.00,39.27,0
50.00,39.31,0
39.00,39.47,0
45.00,39.72,0
39.00,39.98,0
63.00,40.39,0
42.00,41.08,0
54.00,41.91,0
32.00,42.65,0
50.00,43.20,0
33.00,43.55,0
39.00,43.65,0
40.00,43.54,0
44.00,43.36,0
32.00,43.11,0
38.00,42.70,0
49.00,42.28,0
34.00,41.97,0
43.00,41.66,0
32.00,41.31,0
35.00,40.85,0
34.00,40.27,0
38.00,39.67,0
35.00,39.09,0
56.00,38.72,0
41.00,38.72,0
62.00,39.08,0
31.00,39.69,0
68.00,40.43,0
35.00,41.32,0
41.00,42.12,0
41.00,42.63,0
56.00,43.09,0
32.00,43.55,0
42.00,43.79,0
36.00,43.78,0
47.00,43.66,0
31.00,43.45,0
39.00,43.08,0
31.00,42.53,0
32.00,41.81,0
31.00,40.91,0
31.00,39.91,0
36.00,38.90,0
31.00,37.95,0
38.00,37.10,0
32.00,36.38,0
42.00,35.81,0
36.00,35.46,0
42.00,35.31,0
32.00,35.28,0
41.00,35.31,0
42.00,35.46,0
42.00,35.78,0
40.00,36.21,0
56.00,36.81,0
53.00,37.74,0
52.00,38.98,0
34.00,40.20,0
49.00,41.20,0
32.00,41.96,0
46.00,42.45,0
32.00,42.72,0
50.00,42.83,0
32.00,42.85,0
52.00,42.82,0
33.00,42.78,0
46.00,42.69,0
54.00,42.69,0
49.00,42.95,0
33.00,43.26,0
42.00,43.37,0
42.00,43.33,0
36.00,43.20,0
34.00,42.90,0
34.00,42.39,0
38.00,41.76,0
38.00,41.13,0
37.00,40.53,0
32.00,39.93,0
40.00,39.31,0
34.00,38.75,0
37.00,38.25,0
39.00,37.81,0
36.00,37.48,0
33.00,37.18,0
41.00,36.90,0
40.00,36.75,0
46.00,36.80,0
36.00,37.02,0
36.00,37.23,0
32.00,37.31,0
52.00,37.40,0
32.00,37.62,0
60.00,38.00,0
34.00,38.57,0
41.00,39.12,0
48.00,39.60,0
31.00,40.05,0
40.00,40.30,0
33.00,40.35,0
59.00,40.42,0
32.00,40.65,0
51.00,40.91,0
31.00,41.13,0
48.00,41.26,0
36.00,41.34,0
45.00,41.40,0
36.00,41.42,0
39.00,41.35,0
40.00,41.21,0
81.00,41.39,0
33.00,42.11,0
43.00,42.84,0
41.00,43.29,0
46.00,43.62,0
32.00,43.79,0
51.00,43.80,0
36.00,43.77,0
54.00,43.76,0
33.00,43.77,0
54.00,43.77,0
33.00,43.76,0
63.00,43.81,0
33.00,44.00,0
43.00,44.10,0
31.00,43.96,0
42.00,43.62,0
38.00,43.18,0
41.00,42.73,0
49.00,42.37,0
47.00,42.24,0
43.00,42.28,0
33.00,42.28,0
54.00,42.23,0
32.00,42.23,0
38.00,42.12,0
36.00,41.83,0
44.00,41.50,0
48.00,41.30,0
49.00,41.34,0
39.00,41.54,0
50.00,41.78,0
41.00,42.07,0
69.00,42.56,0
44.00,43.37,0
61.00,44.36,0
33.00,45.28,0
52.00,45.97,0
42.00,46.45,0
42.00,46.75,0
33.00,46.74,0
56.00,46.54,0
33.00,46.33,0
32.00,45.90,0
46.00,45.24,0
37.00,44.58,0
31.00,43.85,0
44.00,43.02,0
30.00,42.21,0
39.00,41.37,0
45.00,40.64,0
32.00,40.06,0
41.00,39.54,0
37.00,39.09,0
50.00,38.82,0
32.00,38.72,0
65.00,38.85,0
46.00,39.39,0
43.00,40.15,0
35.00,40.79,0
66.00,41.40,0
40.00,42.21,0
57.00,43.11,0
36.00,43.93,0
38.00,44.49,0
32.00,44.63,0
47.00,44.49,0
37.00,44.27,0
55.00,44.08,0
32.00,43.97,0
59.00,43.90,0
32.00,43.90,0
55.00,43.92,0
32.00,43.92,0
33.00,43.72,0
37.00,43.25,0
45.00,42.71,0
34.00,42.23,0
32.00,41.66,0
35.00,40.95,0
34.00,40.18,0
40.00,39.45,0
36.00,38.83,0
63.00,38.53,0
40.00,38.68,0
54.00,39.16,0
40.00,39.78,0
53.00,40.48,0
32.00,41.14,0
60.00,41.75,0
42.00,42.43,0
46.00,43.12,0
41.00,43.66,0
67.00,44.24,0
42.00,45.02,0
43.00,45.72,0
31.00,46.06,0
52.00,46.09,0
36.00,46.00,0
47.00,45.83,0
32.00,45.52,0
40.00,45.03,0
34.00,44.37,0
48.00,43.70,0
33.00,43.09,0
53.00,42.58,0
32.00,42.20,0
46.00,41.86,0
34.00,41.53,0
43.00,41.20,0
40.00,40.91,0
39.00,40.67,0
40.00,40.46,0
37.00,40.25,0
31.00,39.95,0
45.00,39.60,0
60.00,39.51,0
39.00,39.83,0
62.00,40.41,0
35.00,41.15,0
42.00,41.79,0
38.00,42.19,0
100.00,42.90,0
47.00,44.37,0
48.00,46.03,0
50.00,47.36,0
52.00,48.46,0
32.00,49.24,0
70.00,49.73,0
37.00,50.19,0
53.00,50.51,0
36.00,50.56,0
48.00,50.36,0
37.00,49.94,0
31.00,49.24,0
42.00,48.24,0
33.00,47.11,0
45.00,45.96,0
34.00,44.87,0
32.00,43.75,0
30.00,42.51,0
45.00,41.30,0
32.00,40.27,0
46.00,39.44,0
34.00,38.81,0
51.00,38.41,0
32.00,38.22,0
44.00,38.13,0
37.00,38.10,0
40.00,38.12,0
36.00,38.14,0
48.00,38.22,0
31.00,38.36,0
76.00,38.73,0
39.00,39.57,0
54.00,40.61,0
43.00,41.64,0
67.00,42.75,0
39.00,43.96,0
56.00,45.09,0
31.00,45.97,0
44.00,46.45,0
32.00,46.53,0
52.00,46.37,0
30.00,46.08,0
34.00,45.55,0
35.00,44.74,0
37.00,43.80,0
36.00,42.84,0
42.00,41.94,0
48.00,41.26,0
33.00,40.79,0
40.00,40.36,0
37.00,39.94,0
46.00,39.62,0
32.00,39.40,0
56.00,39.30,0
34.00,39.40,0
54.00,39.65,0
55.00,40.16,0
50.00,40.99,0
38.00,41.86,0
45.00,42.55,0
37.00,43.03,0
