0,320,446.33
1,364,443.85
2,356,438.95
3,413,433.04
4,516,428.27
5,484,426.39
6,476,427.03
7,514,429.48
8,540,433.99
9,551,440.75
10,383,448.04
11,361,452.67
12,345,453.25
13,439,451.06
14,394,447.88
15,314,443.4
16,346,436.69
17,330,428.25
18,372,419.1
19,393,410.42
20,379,402.96
21,496,397.57
22,402,394.94
23,447,394.3
24,649,396.8
25,573,404.68
26,409,415.43
27,372,424.45
28,396,430.12
29,383,433.02
30,291,432.95
31,351,429.51
32,375,424.05
33,386,418.19
34,334,412.16
35,392,405.92
36,436,400.6
37,367,396.78
38,416,393.86
39,304,391.05
40,272,386.72
41,215,379.49
42,238,369.27
43,258,357.2
44,289,344.87
45,573,335.72
46,397,332.71
47,407,334.03
48,352,336.88
49,367,340.11
50,496,344.37
51,524,351.74
52,464,362.24
53,384,373.4
54,415,383.14
55,334,390.69
56,304,395.01
57,309,395.62
58,344,393.51
59,309,389.73
60,398,385.22
61,456,381.95
62,450,381.36
63,450,383.18
64,603,387.98
65,461,396.25
66,520,406.29
67,373,415.95
68,362,423.03
69,352,426.44
70,313,426.38
71,343,423.21
72,553,419.65
73,537,419.43
74,558,423.39
75,371,429.11
76,447,433.71
77,417,436.79
78,535,439.69
79,642,444.91
80,412,452.58
81,352,458.49
82,350,460.0
83,379,457.83
84,471,454.13
85,474,451.13
86,615,450.72
87,618,454.62
88,631,462.97
89,676,475.05
90,564,489.53
91,542,503.71
92,401,514.78
93,436,520.96
94,381,522.18
95,301,518.27
96,286,508.76
97,286,494.41
98,308,476.88
99,333,458.06
100,375,439.78
101,439,423.93
102,512,412.42
103,482,406.05
104,466,403.79
105,540,404.82
106,626,410.1
107,759,421.52
108,621,438.99
109,567,458.9
110,404,476.69
111,335,488.63
112,359,493.5
113,411,493.05
114,484,490.22
115,389,486.48
116,383,481.19
117,395,474.11
118,374,465.88
119,370,456.76
120,443,447.61
121,395,439.51
122,352,431.94
123,341,423.83
124,336,415.0
125,336,405.74
126,376,396.75
127,471,389.67
128,555,386.83
129,496,388.96
130,471,394.36
131,498,401.38
132,557,410.13
133,482,420.48
134,396,430.27
135,416,437.47
136,399,441.95
137,331,443.56
138,374,442.03
139,387,438.41
140,421,434.15
141,362,429.72
142,440,425.26
143,379,421.21
144,491,418.16
145,414,416.66
146,503,416.79
147,578,419.57
148,762,427.73
149,565,441.71
150,562,457.94
151,523,473.39
152,448,486.49
153,474,496.03
154,576,503.2
155,425,508.98
156,684,513.98
157,633,520.79
158,603,529.8
159,371,537.4
160,242,538.61
161,641,534.18
162,701,531.51
163,315,531.36
164,258,526.89
165,522,517.33
166,484,507.74
167,550,500.52
168,722,497.48
169,774,501.48
170,783,513.03
171,733,530.14
172,795,550.69
173,712,573.09
174,529,593.86
175,532,609.08
176,505,617.92
177,422,620.52
178,397,616.54
179,344,606.14
180,332,590.04
181,353,569.61
182,376,547.02
183,424,524.47
184,419,503.59
185,344,484.37
186,400,466.22
187,440,450.11
188,450,437.27
189,500,428.23
190,446,422.82
191,303,418.73
192,221,412.35
193,218,401.9
194,168,387.57
195,411,371.89
196,600,360.78
197,699,359.37
198,574,367.51
199,695,382.42
200,538,401.7
201,519,421.95
202,527,440.75
203,618,458.55
204,454,475.23
205,446,488.51
206,371,496.69
207,360,499.35
208,440,497.59
209,505,494.25
210,520,491.65
211,516,490.44
212,498,490.24
213,526,490.71
214,597,492.56
215,420,495.35
216,450,496.7
217,444,495.92
218,427,493.55
219,307,488.75
220,423,481.1
221,385,472.12
222,336,462.36
223,362,451.43
224,418,440.44
225,476,431.35
226,349,424.38
227,339,417.58
228,381,410.26
229,466,404.08
230,572,401.56
231,429,403.17
232,478,406.79
233,364,410.54
234,334,412.57
235,379,412.17
236,340,410.11
237,491,407.79
238,489,407.5
239,486,409.91
240,475,414.16
241,367,418.59
242,398,421.42
243,440,422.91
244,422,424.11
245,362,424.62
246,248,422.51
247,250,416.18
248,266,406.06
249,273,393.72
250,322,380.74
251,639,371.12
252,522,368.97
253,551,373.5
254,562,382.58
255,614,395.66
256,358,410.23
257,404,422.1
258,354,429.77
259,355,433.56
260,281,433.29
261,282,428.71
262,326,420.8
263,275,410.92
264,247,399.16
265,296,385.89
266,349,372.89
267,290,361.29
268,201,349.9
269,275,337.7
270,307,326.03
271,206,315.43
272,306,305.44
273,168,295.91
274,233,286.14
275,173,275.95
276,166,265.26
277,200,254.22
278,188,243.67
279,168,233.76
280,72,223.44
281,84,211.54
282,153,198.79
283,79,186.43
284,294,175.86
285,121,168.5
286,247,163.79
287,195,161.45
288,155,160.86
289,301,161.74
290,141,164.46
291,189,167.45
292,294,170.9
293,188,175.82
294,236,181.21
295,240,186.75
296,229,192.58
297,225,198.26
298,193,203.23
299,284,207.69
300,231,212.39
301,230,217.0
302,236,220.99
303,271,224.76
304,254,228.71
305,284,232.92
306,243,237.22
307,192,240.6
308,304,242.91
309,314,245.85
310,417,251.06
311,381,259.32
312,422,270.2
313,298,282.09
314,385,293.39
315,254,303.21
316,147,309.27
317,244,310.27
318,462,309.86
319,384,312.09
320,393,316.84
321,291,322.03
322,380,326.53
323,412,331.24
324,402,337.11
325,564,345.09
326,394,355.58
327,338,365.75
328,311,372.81
329,273,376.1
330,460,377.09
331,726,381.18
332,529,391.74
333,366,404.55
334,464,415.18
335,386,423.43
336,393,429.19
337,470,432.97
338,343,435.38
339,348,435.29
340,424,432.97
341,396,430.07
342,375,426.8
343,324,422.38
344,384,416.72
345,388,410.89
346,396,405.73
347,423,401.64
348,332,398.26
349,378,394.65
350,394,391.11
351,283,387.48
352,548,384.37
353,406,384.02
354,417,385.71
355,450,388.19
356,248,390.18
357,296,389.11
358,328,385.14
359,422,380.76
360,364,377.52
361,391,375.31
362,432,374.25
363,392,374.67
364,332,375.39
365,422,375.74
366,496,377.38
367,538,382.23
368,358,389.22
369,299,394.51
370,421,396.91
371,450,398.76
372,457,401.66
373,347,404.73
374,448,406.9
375,496,409.46
376,508,413.93
377,454,419.85
378,492,426.22
379,458,432.63
380,421,438.32
381,383,442.08
382,423,443.65
383,330,443.11
384,394,440.28
385,293,435.29
386,327,427.96
387,355,419.05
388,332,409.76
389,298,400.07
390,324,389.86
391,498,381.14
392,663,378.21
393,448,382.15
394,443,389.03
395,369,395.46
396,502,401.18
397,501,407.73
398,584,416.43
399,721,428.96
400,638,446.21
401,629,466.17
402,682,487.18
403,609,508.48
404,689,529.23
405,720,549.83
406,747,571.02
407,829,593.33
408,714,616.38
409,676,637.75
410,538,654.46
411,608,665.09
412,688,671.42
413,664,675.94
414,706,679.53
415,580,681.75
416,590,681.25
417,524,677.28
418,438,669.12
419,490,656.5
420,376,640.13
421,383,620.06
422,437,597.45
423,407,574.31
424,298,550.58
425,299,525.2
426,288,498.41
427,329,471.59
428,351,446.38
429,308,423.54
430,365,403.19
431,314,385.58
432,281,369.97
433,378,356.25
434,589,347.44
435,277,344.34
436,214,341.8
437,200,336.11
438,284,328.16
439,313,320.22
440,352,314.02
441,452,311.02
442,344,311.63
443,475,315.09
444,414,321.35
445,372,329.31
446,385,337.2
447,656,346.87
448,553,361.24
449,396,377.98
450,383,392.49
451,455,403.92
452,352,412.88
453,336,418.42
454,446,420.99
455,383,422.35
456,482,423.43
457,434,424.96
458,703,428.99
459,417,436.46
460,384,443.58
461,241,446.16
462,420,444.06
463,303,439.28
464,280,431.96
465,288,421.68
466,337,409.83
467,294,397.7
468,324,385.67
469,487,375.59
470,308,368.76
471,254,362.6
472,353,355.63
473,314,349.1
474,354,343.64
475,400,339.86
476,328,337.98
477,249,336.16
478,309,333.08
479,401,330.2
480,186,327.82
481,227,323.48
482,284,317.16
483,490,312.48
484,318,311.62
485,373,313.02
486,344,315.35
487,410,318.83
488,338,323.32
489,440,328.63
490,372,334.92
491,484,342.38
492,298,350.24
493,255,355.69
494,348,357.67
495,702,361.0
496,577,370.71
497,564,385.72
498,420,401.89
499,398,415.79
500,338,425.48
501,415,431.13
502,308,433.41
503,382,432.54
504,305,429.02
505,321,423.05
506,262,414.58
507,290,403.88
508,295,391.83
509,253,379.13
510,276,365.86
511,325,353.05
512,365,342.31
513,238,333.5
514,201,324.42
515,276,314.39
516,230,304.52
517,285,295.41
518,220,287.15
519,244,279.39
520,200,271.78
521,251,264.42
522,393,259.12
523,252,257.14
524,679,260.07
525,305,269.44
526,697,283.95
527,241,301.55
528,520,318.95
529,280,334.53
530,401,347.56
531,296,357.38
532,402,364.59
533,365,370.13
534,331,374.21
535,292,375.87
536,361,375.28
537,371,373.9
538,367,372.63
539,294,370.93
540,329,368.0
541,300,363.98
542,300,359.08
543,240,352.93
544,381,346.21
545,275,340.21
546,383,335.26
547,266,331.21
548,310,327.31
549,232,322.79
550,278,317.4
551,290,311.74
552,260,306.38
553,142,300.07
554,195,291.52
555,172,281.25
556,151,269.87
557,53,256.72
558,122,241.43
559,304,226.83
560,273,216.48
561,234,210.37
562,189,206.43
563,277,203.96
564,62,201.98
565,304,199.64
566,417,200.2
567,485,207.3
568,1023,225.58
569,282,255.04
570,463,285.85
571,419,313.25
572,260,336.63
573,120,352.1
574,562,361.07
575,250,368.31
576,103,371.31
577,166,366.56
578,758,360.73
579,187,359.76
580,499,360.58
581,338,361.85
582,408,363.93
583,115,364.0
584,1010,365.6
585,343,375.08
586,331,386.59
587,1023,399.27
588,477,419.14
589,322,439.34
590,127,450.59
591,242,451.13
592,825,448.55
593,176,448.8
594,194,445.55
595,195,434.75
596,225,418.95
597,1023,406.85
598,133,403.95
599,198,400.69
600,287,391.81
601,364,381.54
602,930,377.12
603,301,382.03
604,420,389.21
605,140,392.44
606,138,388.94
607,652,382.31
608,412,379.89
609,313,380.24
610,706,382.31
611,184,386.99
612,206,388.38
613,194,383.24
614,389,374.85
615,681,369.7
616,178,369.44
617,459,369.4
618,739,372.26
619,448,381.75
620,472,393.67
621,277,403.53
622,208,407.93
623,113,404.6
624,268,394.61
625,237,381.38
626,444,368.55
627,246,357.93
628,200,347.44
629,178,334.86
630,343,321.69
631,264,310.37
632,156,300.0
633,248,289.04
634,204,278.26
635,210,268.04
636,247,258.62
637,186,250.27
638,88,241.51
639,251,231.98
640,215,223.71
641,211,217.39
642,530,215.0
643,612,221.5
644,362,236.41
645,102,251.78
646,247,261.91
647,121,266.92
648,320,268.64
649,108,268.28
650,294,266.03
651,138,262.45
652,302,258.27
653,77,253.35
654,171,246.46
655,252,238.66
656,290,232.8
657,449,231.19
658,301,234.55
659,387,241.18
660,332,249.82
661,383,259.94
662,393,271.31
663,202,282.31
664,154,289.23
665,226,291.09
666,276,290.2
667,216,288.17
668,264,285.16
669,247,281.65
670,384,279.1
671,217,278.09
672,296,277.35
673,328,277.0
674,227,277.31
675,357,277.79
676,188,278.3
677,183,277.08
678,93,272.4
679,162,264.3
680,70,253.5
681,199,241.11
682,160,228.93
683,127,217.46
684,388,208.17
685,173,203.07
686,304,201.02
687,130,200.32
688,179,199.32
689,110,196.94
690,324,194.6
691,302,195.1
692,190,198.22
693,150,200.92
694,143,201.58
695,313,201.63
696,206,203.03
697,232,205.27
698,162,207.07
699,297,208.64
700,260,211.31
701,240,215.06
702,208,218.64
703,140,220.72
704,224,220.91
705,208,220.35
706,272,220.17
707,236,220.9
708,238,222.26
709,222,223.67
710,246,225.01
711,276,226.76
712,177,228.64
713,284,230.07
714,278,232.0
715,232,234.64
716,211,236.76
717,255,238.08
718,230,239.07
719,197,239.46
720,131,238.11
721,113,234.0
722,120,227.14
723,73,217.98
724,398,209.31
725,127,203.99
726,497,202.64
727,204,205.79
728,447,212.49
729,310,222.13
730,308,233.42
731,393,245.15
732,316,257.57
733,163,268.32
734,234,274.9
735,567,280.71
736,144,288.3
737,136,292.76
738,169,291.39
739,596,289.58
740,222,291.65
741,631,297.32
742,320,306.64
743,382,317.21
744,258,325.85
745,206,330.81
746,419,332.69
747,245,333.78
748,274,333.38
749,225,330.48
750,227,325.26
751,295,318.62
752,202,311.49
753,383,304.73
754,405,300.83
755,370,300.79
756,313,302.82
757,246,304.62
758,220,304.42
759,224,301.74
760,147,296.52
761,219,288.9
762,139,279.59
763,110,268.34
764,167,255.31
765,109,241.58
766,278,228.65
767,187,218.3
768,316,211.19
769,230,207.44
770,324,206.77
771,147,207.87
772,372,210.0
773,106,212.89
774,195,214.51
775,190,214.34
776,298,214.34
777,211,215.47
778,100,215.99
779,156,213.97
780,387,211.98
781,289,213.47
782,278,217.77
783,329,223.5
784,355,231.09
785,1023,246.15
786,148,270.33
787,603,295.57
788,328,318.86
789,505,340.57
790,149,358.12
791,328,369.04
792,953,379.65
793,360,396.47
794,838,416.8
795,502,439.4
796,391,460.48
797,471,475.83
798,131,483.95
799,360,483.29
800,329,476.65
801,380,467.46
802,248,456.12
803,1023,448.1
804,345,448.86
805,173,450.18
806,167,443.53
807,265,430.31
808,474,415.77
809,320,403.64
810,1023,398.66
811,389,404.3
812,562,414.65
813,170,422.74
814,496,426.52
815,91,425.72
816,356,419.68
817,794,414.42
818,200,414.36
819,567,415.16
820,325,415.75
821,78,413.2
822,191,403.29
823,76,387.01
824,675,370.3
825,181,358.59
826,640,351.64
827,149,348.0
828,636,346.7
829,536,350.35
830,269,357.8
831,280,362.85
832,404,364.92
833,1023,371.77
834,406,388.12
835,480,406.77
836,278,421.11
837,316,429.34
838,281,431.32
839,444,429.57
840,396,426.98
841,325,423.82
842,578,420.83
843,1023,425.22
844,277,438.3
845,301,449.27
846,300,452.59
847,98,448.52
848,280,437.17
849,176,421.1
850,545,404.72
851,344,392.18
852,556,384.41
853,393,381.03
854,680,382.49
855,366,388.39
856,922,399.26
857,330,415.2
858,633,431.84
859,1023,451.76
860,242,475.99
861,106,492.07
862,202,493.66
863,472,486.8
864,242,477.03
865,328,464.51
866,206,448.84
867,1023,436.64
868,745,437.51
869,383,447.45
870,94,453.52
871,197,449.57
872,642,441.1
873,176,433.77
874,179,423.64
875,262,408.61
876,458,393.29
877,461,382.16
878,269,374.65
879,252,366.92
880,122,356.39
881,127,341.83
882,103,323.49
883,290,304.07
884,173,286.35
885,132,269.79
886,122,252.94
887,179,236.39
888,164,221.33
889,90,207.52
890,327,195.71
891,205,188.06
892,251,184.15
893,158,182.21
894,288,181.76
895,171,182.86
896,246,184.88
897,126,186.82
898,254,188.34
899,113,189.44
900,164,189.36
901,138,187.84
902,212,185.87
903,134,183.99
904,206,182.15
905,306,181.75
906,228,184.04
907,402,189.26
908,214,197.2
909,308,206.09
910,150,214.13
911,279,220.5
912,267,226.11
913,209,231.34
914,195,234.95
915,274,237.16
916,322,239.79
917,285,243.78
918,206,247.82
919,275,250.75
920,315,253.53
921,299,257.19
922,273,261.26
923,275,264.97
924,307,268.37
925,271,271.66
926,233,274.13
927,179,274.54
928,105,271.58
929,134,264.76
930,110,254.88
931,61,242.44
932,333,229.68
933,204,220.05
934,507,215.7
935,397,218.49
936,452,227.77
937,301,240.46
938,331,253.57
939,152,264.38
940,350,272.02
941,188,277.45
942,282,280.76
943,201,281.89
944,222,280.95
945,322,278.97
946,256,277.5
947,292,276.52
948,422,277.04
949,324,280.29
950,284,284.66
951,255,288.06
952,291,290.1
953,289,291.37
954,265,292.08
955,235,291.69
956,256,289.97
957,306,287.78
958,266,285.98
959,206,283.79
960,281,280.7
961,279,277.72
962,284,275.56
963,163,273.16
964,190,268.95
965,176,262.85
966,200,255.69
967,151,247.83
968,149,239.07
969,96,229.05
970,79,217.38
971,76,204.1
972,72,189.8
973,65,175.06
974,98,160.58
975,232,148.33
976,114,139.68
977,231,134.16
978,148,131.48
979,187,130.97
980,139,131.69
981,174,133.16
982,218,135.67
983,148,139.34
984,227,143.63
985,148,148.33
986,627,156.42
987,588,173.72
988,508,200.04
989,526,230.88
990,506,263.65
991,663,297.93
992,441,332.87
993,767,367.46
994,439,401.48
995,791,434.16
996,348,464.19
997,536,488.42
998,353,505.4
999,332,514.72
1000,345,516.15
1001,369,511.77
1002,287,502.92
1003,401,490.76
1004,302,476.85
1005,440,462.49
1006,289,448.48
1007,427,434.96
1008,287,422.14
1009,292,409.17
1010,299,395.49
1011,307,381.94
1012,259,368.73
1013,388,356.53
1014,422,347.49
1015,384,342.46
1016,647,342.42
1017,354,347.79
1018,433,355.1
1019,332,361.74
1020,332,366.66
1021,435,370.11
1022,350,373.33
1023,654,378.17
1024,402,386.32
1025,383,394.92
1026,406,401.43
1027,446,406.68
1028,560,412.56
1029,395,419.56
1030,607,427.15
1031,406,435.43
1032,401,442.37
1033,681,448.63
1034,447,456.77
1035,368,463.91
1036,586,468.65
1037,367,472.52
1038,556,475.35
1039,407,477.39
1040,392,477.74
1041,438,475.72
1042,433,472.54
1043,328,468.01
1044,400,461.45
1045,258,452.73
1046,367,441.79
1047,361,430.1
1048,397,419.28
1049,345,409.6
1050,304,400.22
1051,314,390.36
1052,272,379.95
1053,231,368.51
1054,424,357.23
1055,555,350.29
1056,614,351.07
1057,714,360.53
1058,592,377.44
1059,597,398.33
1060,687,421.39
1061,788,447.69
1062,666,476.95
1063,550,505.46
1064,771,531.37
1065,518,555.04
1066,581,574.44
1067,656,589.53
1068,595,602.08
1069,830,613.82
1070,798,627.61
1071,1023,645.74
1072,789,668.09
1073,889,691.77
1074,643,713.41
1075,1023,732.69
1076,694,751.05
1077,850,767.13
1078,701,779.59
1079,979,790.0
1080,650,799.14
1081,496,802.69
1082,374,795.66
1083,534,778.88
1084,358,755.39
1085,499,727.13
1086,382,696.1
1087,443,663.71
1088,322,630.39
1089,418,596.72
1090,313,563.62
1091,376,531.63
1092,269,500.82
1093,378,471.56
1094,296,444.68
1095,326,420.28
1096,206,397.39
1097,232,374.93
1098,338,353.83
1099,352,336.49
1100,277,323.06
1101,395,312.91
1102,762,309.86
1103,305,315.52
1104,647,326.03
1105,654,341.74
1106,601,363.38
1107,625,388.21
1108,526,413.82
1109,897,440.8
1110,694,471.52
1111,669,503.6
1112,610,533.14
1113,398,556.9
1114,782,574.66
1115,597,590.31
1116,488,603.07
1117,880,613.12
1118,736,625.09
1119,635,638.18
1120,536,648.06
1121,332,651.1
1122,437,645.56
1123,362,633.12
1124,473,616.29
1125,446,597.69
1126,428,578.67
1127,279,558.22
1128,383,535.62
1129,486,513.43
1130,394,494.05
1131,394,476.79
1132,460,461.48
1133,410,448.82
1134,290,437.35
1135,294,424.83
1136,319,411.2
1137,301,397.48
1138,343,384.38
1139,241,371.88
1140,307,359.47
1141,480,349.18
1142,315,342.84
1143,534,340.25
1144,516,342.7
1145,533,350.48
1146,544,362.29
1147,677,378.17
1148,646,398.65
1149,526,421.59
1150,605,444.06
1151,677,466.36
1152,699,489.78
1153,895,515.85
1154,599,544.06
1155,565,569.46
1156,540,588.74
1157,540,602.05
1158,503,609.87
1159,419,611.96
1160,523,608.8
1161,510,602.66
1162,430,594.43
1163,531,584.29
1164,299,572.12
1165,348,556.25
1166,332,536.86
1167,362,515.81
1168,356,494.47
1169,426,474.34
1170,340,456.17
1171,297,438.9
1172,214,420.79
1173,238,401.15
1174,249,380.78
1175,373,361.9
1176,255,345.91
1177,229,331.52
1178,199,317.2
1179,232,302.96
1180,195,289.23
1181,248,276.44
1182,197,264.93
1183,507,256.89
1184,231,254.13
1185,396,254.88
1186,210,257.18
1187,301,259.65
1188,230,261.56
1189,271,262.9
1190,198,263.26
1191,225,262.22
1192,256,260.25
1193,304,258.76
1194,329,258.9
1195,576,263.1
1196,323,272.4
1197,441,284.14
1198,263,295.78
1199,355,305.77
1200,320,313.95
1201,294,320.45
1202,281,324.65
1203,235,326.17
1204,312,325.36
1205,212,322.86
1206,217,318.22
1207,192,311.14
1208,330,303.21
1209,275,296.47
1210,279,291.12
1211,285,286.67
1212,338,283.6
1213,219,281.64
1214,256,279.37
1215,190,276.05
1216,260,271.83
1217,216,267.3
1218,181,262.26
1219,197,256.19
1220,242,249.88
1221,280,244.76
1222,398,242.65
1223,308,244.41
1224,251,248.08
1225,519,253.61
1226,283,262.37
1227,334,272.04
1228,370,281.3
1229,470,291.76
1230,366,303.86
1231,259,315.07
1232,523,324.81
1233,279,334.54
1234,342,342.64
1235,486,349.45
1236,362,356.91
1237,582,365.54
1238,377,375.7
1239,523,386.34
1240,405,396.74
1241,509,406.74
1242,335,415.42
1243,498,422.16
1244,353,427.26
1245,456,430.74
1246,341,432.44
1247,291,431.3
1248,205,425.57
1249,300,415.51
1250,228,402.73
1251,300,388.45
1252,257,373.76
1253,321,359.64
1254,216,346.25
1255,312,333.45
1256,200,321.3
1257,251,309.43
1258,145,297.21
1259,208,284.33
1260,134,270.92
1261,140,256.89
1262,482,245.14
1263,451,240.87
1264,639,246.26
1265,441,260.09
1266,461,278.28
1267,376,297.24
1268,363,314.83
1269,404,330.23
1270,185,342.24
1271,223,348.36
1272,318,349.41
1273,353,348.7
1274,576,349.83
1275,589,356.36
1276,749,370.08
1277,836,392.26
1278,996,424.18
1279,740,463.7
1280,710,504.64
1281,719,542.83
1282,922,579.23
1283,576,613.63
1284,595,641.59
1285,365,659.25
1286,441,665.61
1287,397,662.17
1288,386,651.22
1289,366,634.17
1290,337,612.34
1291,358,587.16
1292,347,560.26
1293,417,533.49
1294,390,508.51
1295,411,486.01
1296,450,466.58
1297,372,450.29
1298,366,435.92
1299,369,422.77
1300,588,412.76
1301,674,409.75
1302,708,415.6
1303,609,428.5
1304,543,444.48
1305,576,460.66
1306,472,475.62
1307,649,489.18
1308,786,504.39
1309,650,522.92
1310,567,541.59
1311,631,557.84
1312,672,572.41
1313,629,586.07
1314,621,598.15
1315,871,610.19
1316,743,624.77
1317,1023,643.03
1318,898,666.01
1319,749,690.87
1320,737,712.82
1321,804,730.96
1322,684,745.64
1323,884,757.41
1324,637,766.87
1325,666,772.09
1326,533,771.28
1327,571,764.33
1328,572,752.45
1329,499,736.92
1330,537,718.26
1331,533,697.79
1332,489,676.53
1333,465,654.4
1334,473,631.63
1335,397,608.45
1336,428,584.79
1337,443,561.54
1338,488,540.22
1339,383,521.06
1340,377,502.78
1341,371,484.77
1342,372,467.4
1343,401,451.3
1344,633,439.07
1345,777,435.34
1346,632,441.26
1347,837,454.79
1348,736,475.03
1349,686,499.39
1350,651,524.13
1351,728,548.01
1352,742,571.53
1353,684,594.41
1354,556,614.19
1355,574,628.54
1356,765,639.1
1357,924,650.97
1358,880,667.25
1359,937,687.36
1360,795,709.19
1361,816,729.94
1362,735,747.72
1363,856,762.48
1364,549,773.3
1365,845,779.13
1366,691,782.06
1367,797,783.45
1368,668,783.03
1369,516,778.79
1370,419,767.44
1371,427,748.35
1372,558,724.34
1373,369,698.05
1374,494,669.88
1375,481,641.57
1376,442,614.58
1377,434,588.66
1378,472,564.26
1379,332,541.22
1380,434,518.83
1381,329,497.34
1382,400,476.92
1383,388,458.19
1384,487,442.55
1385,323,429.94
1386,381,418.66
1387,410,408.61
1388,463,401.19
1389,394,396.56
1390,621,395.36
1391,465,398.67
1392,305,403.32
1393,287,404.82
1394,358,402.86
1395,715,402.23
1396,923,410.69
1397,536,428.95
1398,398,448.37
1399,465,463.19
1400,529,474.52
1401,1023,488.42
1402,659,509.42
1403,854,534.82
1404,628,561.12
1405,765,586.29
1406,956,611.71
1407,637,638.11
1408,569,660.23
1409,412,673.39
1410,455,676.52
1411,474,671.53
1412,333,660.0
1413,446,642.66
1414,317,621.09
1415,609,598.18
1416,486,577.71
1417,505,560.28
1418,349,543.79
1419,384,526.45
1420,342,507.95
1421,313,488.57
1422,362,468.73
1423,346,449.63
1424,547,433.46
1425,348,421.6
1426,382,412.06
1427,618,405.45
1428,602,405.28
1429,588,411.55
1430,463,421.15
1431,458,430.81
1432,405,438.66
1433,387,443.82
1434,534,447.26
1435,355,450.05
1436,413,451.0
1437,393,449.86
1438,384,447.24
1439,413,443.49
1440,655,441.38
1441,542,443.84
1442,505,449.51
1443,687,457.42
1444,377,466.9
1445,533,475.0
1446,587,482.22
1447,483,489.84
1448,573,497.0
1449,435,503.07
1450,627,508.16
1451,278,511.51
1452,385,510.17
1453,240,503.02
1454,611,493.22
1455,378,484.68
1456,472,477.36
1457,308,469.52
1458,442,460.71
1459,459,452.44
1460,462,446.24
1461,332,440.95
1462,302,434.19
1463,384,425.65
1464,421,417.43
1465,460,411.3
1466,421,407.58
1467,324,404.72
1468,657,403.42
1469,491,406.61
1470,652,414.44
1471,587,426.3
1472,414,439.71
1473,409,450.45
1474,407,457.31
1475,403,460.88
1476,268,460.62
1477,500,457.16
1478,332,452.66
1479,405,447.27
1480,313,440.45
1481,507,433.42
1482,446,428.39
1483,453,425.68
1484,447,424.4
1485,413,423.93
1486,446,423.76
1487,408,423.78
1488,325,422.91
1489,409,420.43
1490,464,417.93
1491,395,416.52
1492,343,414.88
1493,390,412.1
1494,357,408.61
1495,314,404.2
1496,408,399.01
1497,383,394.39
1498,408,390.91
1499,428,388.77
1500,274,387.0
1501,355,383.88
1502,339,379.78
1503,314,375.26
1504,326,370.12
1505,213,363.77
1506,255,355.27
1507,383,346.24
1508,403,339.68
1509,278,335.56
1510,546,333.74
1511,660,338.04
1512,408,348.8
1513,512,361.81
1514,362,374.53
1515,396,385.32
1516,354,393.26
1517,418,398.89
1518,380,402.98
1519,389,405.72
1520,342,406.82
1521,425,406.6
1522,458,406.62
1523,461,408.07
1524,765,413.34
1525,672,425.54
1526,701,443.83
1527,559,464.74
1528,617,485.36
1529,598,504.72
1530,617,522.8
1531,537,538.84
1532,636,552.45
1533,401,562.82
1534,467,567.91
1535,370,567.18
1536,398,561.25
1537,429,551.43
1538,540,540.62
1539,484,531.01
1540,463,522.45
1541,403,513.68
1542,463,504.35
1543,327,494.32
1544,366,482.65
1545,171,468.06
1546,161,448.79
1547,129,424.47
1548,94,396.34
1549,140,365.74
1550,107,334.44
1551,200,304.23
1552,109,276.32
1553,512,253.63
1554,118,238.27
1555,250,226.93
1556,80,216.58
1557,126,206.01
1558,96,194.74
1559,154,183.66
1560,146,173.71
1561,210,165.82
1562,141,160.17
1563,305,157.13
1564,208,157.49
1565,467,162.3
1566,241,171.92
1567,409,184.71
1568,212,198.78
1569,339,212.56
1570,230,225.25
1571,250,236.12
1572,223,244.46
1573,234,250.43
1574,233,254.35
1575,287,257.08
1576,240,259.32
1577,293,261.2
1578,250,262.89
1579,332,264.78
1580,228,266.89
1581,264,268.37
1582,203,268.56
1583,325,268.07
1584,196,267.5
1585,226,266.04
1586,227,263.39
1587,144,259.5
1588,136,253.39
1589,128,244.93
1590,236,235.62
1591,158,227.02
1592,318,220.17
1593,210,215.95
1594,191,213.27
1595,307,211.6
1596,153,211.23
1597,194,210.64
1598,127,208.77
1599,170,205.59
1600,158,201.56
1601,198,197.49
1602,210,194.19
1603,180,191.85
1604,271,190.66
1605,265,191.57
1606,365,195.53
1607,504,204.37
1608,332,218.33
1609,532,235.67
1610,232,254.45
1611,368,271.57
1612,236,285.57
1613,250,295.8
1614,286,302.28
1615,295,306.48
1616,261,308.95
1617,252,309.48
1618,271,308.24
1619,405,307.01
1620,326,307.54
1621,227,308.38
1622,300,307.77
1623,276,306.26
1624,240,304.03
1625,172,300.0
1626,221,293.7
1627,197,285.94
1628,203,277.39
1629,128,267.79
1630,114,256.44
1631,117,243.3
1632,120,229.19
1633,104,214.73
1634,105,200.25
1635,267,187.44
1636,111,177.67
1637,263,170.57
1638,85,165.48
1639,255,161.82
1640,124,159.61
1641,111,157.73
1642,118,154.94
1643,139,151.73
1644,205,149.23
1645,291,149.3
1646,160,152.19
1647,412,157.76
1648,438,168.45
1649,453,185.33
1650,249,205.1
1651,522,225.47
1652,252,246.21
1653,254,264.4
1654,209,277.55
1655,313,286.55
1656,228,292.73
1657,248,296.19
1658,231,296.95
1659,257,295.74
1660,223,293.06
1661,273,289.43
1662,257,285.59
1663,310,282.3
1664,215,279.49
1665,230,276.15
1666,201,271.75
1667,263,266.83
1668,161,261.63
1669,137,255.02
1670,148,246.44
1671,212,237.14
1672,139,228.12
1673,96,218.58
1674,94,207.67
1675,283,197.21
1676,179,189.65
1677,158,184.22
1678,129,179.16
1679,145,174.04
1680,116,168.84
1681,151,163.67
1682,148,159.02
1683,113,154.85
1684,181,151.16
1685,175,148.71
1686,193,147.9
1687,228,148.88
1688,262,152.2
1689,301,158.34
1690,245,166.87
1691,410,177.71
1692,179,190.3
1693,409,203.27
1694,317,217.22
1695,244,231.25
1696,298,243.38
1697,297,253.96
1698,231,262.88
1699,236,269.22
1700,286,273.33
1701,236,276.06
1702,328,277.99
1703,277,279.93
1704,314,282.02
1705,218,283.58
1706,189,283.18
1707,195,280.1
1708,243,275.34
1709,167,269.63
1710,124,262.22
1711,145,252.61
1712,144,241.61
1713,125,229.91
1714,204,218.39
1715,120,207.81
1716,102,197.44
1717,163,187.07
1718,220,178.36
1719,73,171.42
1720,140,164.67
1721,100,157.86
1722,258,152.41
1723,144,149.46
1724,110,147.7
1725,184,146.0
1726,133,144.93
1727,512,147.21
1728,182,155.07
1729,309,165.67
1730,223,176.67
1731,326,188.1
1732,243,199.77
1733,389,211.93
1734,204,224.27
1735,425,236.3
1736,224,248.17
1737,298,258.67
1738,247,266.92
1739,188,272.49
1740,244,274.93
1741,262,275.47
1742,261,275.29
1743,270,274.77
1744,232,273.84
1745,279,272.46
1746,240,270.92
1747,248,269.12
1748,212,266.71
1749,277,263.91
1750,163,260.75
1751,165,256.11
1752,149,249.46
1753,189,241.59
1754,150,233.23
1755,121,224.24
1756,120,214.27
1757,230,204.51
1758,132,196.21
1759,168,188.89
1760,97,181.77
1761,73,173.97
1762,96,165.13
1763,92,155.93
1764,94,146.88
1765,141,138.64
1766,243,132.89
1767,170,130.66
1768,161,130.76
1769,321,133.21
1770,232,139.16
1771,414,148.9
1772,175,161.51
1773,259,174.18
1774,264,185.95
1775,286,197.59
1776,252,208.88
1777,287,219.44
1778,335,229.79
1779,253,240.03
1780,324,249.5
1781,271,258.13
1782,355,266.24
1783,285,274.04
1784,432,282.11
1785,303,290.88
1786,339,299.3
1787,247,305.96
1788,308,310.37
1789,287,312.98
1790,170,313.34
1791,149,309.74
1792,178,302.17
1793,189,292.23
1794,128,280.72
1795,128,267.45
1796,143,252.93
1797,139,238.14
1798,108,223.42
1799,262,209.95
1800,84,198.69
1801,96,187.92
1802,90,176.59
1803,124,165.47
1804,112,155.27
1805,258,147.38
1806,289,144.03
1807,400,146.83
1808,185,154.54
1809,260,163.76
1810,164,172.53
1811,448,182.02
1812,208,193.63
1813,416,206.58
1814,252,220.23
1815,380,234.03
1816,292,247.53
1817,380,260.69
1818,235,272.71
1819,294,282.29
1820,249,289.13
1821,241,293.33
1822,335,295.66
1823,235,297.14
1824,270,297.34
1825,238,296.06
1826,303,293.99
1827,312,292.24
1828,222,290.75
1829,245,288.3
1830,237,284.77
1831,242,280.63
1832,177,275.65
1833,214,269.48
1834,189,262.48
1835,134,254.5
1836,178,245.32
1837,159,235.62
1838,148,225.81
1839,190,216.24
1840,149,207.42
1841,229,199.78
1842,73,193.0
1843,155,185.86
1844,175,178.92
1845,78,172.55
1846,165,166.13
1847,183,160.63
1848,363,158.49
1849,142,160.25
1850,277,163.89
1851,286,169.32
1852,330,177.54
1853,244,187.68
1854,295,198.36
1855,269,209.01
1856,322,219.72
1857,339,230.91
1858,333,242.75
1859,383,255.16
1860,378,268.33
1861,298,281.32
1862,307,292.48
1863,243,300.87
1864,252,305.97
1865,264,308.12
1866,262,308.22
1867,284,306.98
1868,231,304.69
1869,236,301.01
1870,239,296.08
1871,204,290.15
1872,171,282.86
1873,183,274.03
1874,199,264.39
1875,157,254.45
1876,122,243.75
1877,170,232.32
1878,172,221.22
1879,100,210.56
1880,153,199.87
1881,214,190.26
1882,150,182.69
1883,104,176.02
1884,187,169.64
1885,135,164.24
1886,120,159.48
1887,103,154.56
1888,148,149.64
1889,134,145.35
1890,200,142.37
1891,208,141.51
1892,198,142.86
1893,333,146.86
1894,234,154.05
1895,357,163.93
1896,231,175.74
1897,287,188.02
1898,220,199.59
1899,305,210.3
1900,274,220.59
1901,343,230.99
1902,347,242.03
1903,320,253.59
1904,252,264.23
1905,302,272.9
1906,276,279.82
1907,342,285.72
1908,270,290.93
1909,289,294.95
1910,242,297.29
1911,274,297.91
1912,229,296.98
1913,281,294.85
1914,242,292.04
1915,226,288.46
1916,189,283.53
1917,200,277.09
1918,295,270.37
1919,311,265.4
1920,452,264.11
1921,353,267.28
1922,508,274.57
1923,307,284.82
1924,365,295.45
1925,218,304.14
1926,381,310.48
1927,311,315.71
1928,363,320.54
1929,364,325.18
1930,370,330.01
1931,400,335.19
1932,390,340.92
1933,374,346.83
1934,525,353.57
1935,413,362.15
1936,484,371.82
1937,458,382.05
1938,410,392.13
1939,411,400.79
1940,422,407.8
1941,460,413.82
1942,489,419.84
1943,482,426.38
1944,415,432.68
1945,321,436.69
1946,323,436.76
1947,332,433.15
1948,352,427.2
1949,299,419.63
1950,354,410.82
1951,258,401.04
1952,293,389.99
1953,252,377.8
1954,398,365.95
1955,350,356.39
1956,344,349.23
1957,300,343.3
1958,287,337.63
1959,356,332.33
1960,491,329.59
1961,532,331.98
1962,488,339.64
1963,365,349.67
1964,356,358.73
1965,272,364.94
1966,275,367.36
1967,301,366.37
1968,382,363.94
1969,411,362.26
1970,367,361.96
1971,371,362.29
1972,344,362.57
1973,403,362.88
1974,400,363.92
1975,466,366.44
1976,419,370.67
1977,444,376.06
1978,337,381.3
1979,372,385.01
1980,354,386.98
1981,479,388.57
1982,512,391.98
1983,425,397.5
1984,395,403.07
1985,510,408.22
1986,354,413.25
1987,444,417.16
1988,377,419.73
1989,428,421.26
1990,386,421.89
1991,363,421.36
1992,306,418.78
1993,334,413.83
1994,269,406.7
1995,374,398.16
1996,308,389.49
1997,229,380.13
1998,291,369.2
1999,431,358.97
2000,335,351.6
2001,515,347.69
2002,378,347.57
2003,383,349.62
2004,378,352.19
2005,239,353.89
2006,286,352.97
2007,229,349.24
2008,360,344.02
2009,385,339.69
2010,342,337.32
2011,487,337.19
2012,390,339.99
2013,344,344.17
2014,378,348.0
2015,408,351.86
2016,437,356.61
2017,403,362.34
2018,377,368.09
2019,432,373.41
2020,391,378.6
2021,429,383.59
2022,476,388.94
2023,416,394.99
2024,402,400.66
2025,361,404.8
2026,394,407.13
2027,308,407.52
2028,456,406.46
2029,423,405.8
2030,350,405.52
2031,396,404.48
2032,427,403.28
2033,278,401.68
2034,308,397.89
2035,330,392.02
2036,354,385.55
2037,344,379.31
2038,225,372.52
2039,271,363.89
2040,292,354.1
2041,228,343.93
2042,250,333.11
2043,458,323.68
2044,182,316.93
2045,208,309.86
2046,172,300.65
2047,162,289.67
2048,308,278.4
2049,520,271.32
2050,542,272.44
2051,573,282.13
2052,695,299.74
2053,674,324.86
2054,433,353.56
2055,398,379.68
2056,453,400.91
2057,422,418.07
2058,297,430.5
2059,335,436.96
2060,386,438.67
2061,485,438.65
2062,442,438.98
2063,483,440.02
2064,422,441.38
2065,470,442.68
2066,417,443.73
2067,439,444.27
2068,295,443.16
2069,301,438.71
2070,273,430.58
2071,247,419.27
2072,254,405.32
2073,320,390.25
2074,253,375.41
2075,232,360.5
2076,247,345.26
2077,290,330.68
2078,246,317.54
2079,243,305.54
2080,251,294.46
2081,293,284.88
2082,237,277.05
2083,546,272.76
2084,402,274.7
2085,301,280.67
2086,154,285.5
2087,161,286.17
2088,358,284.14
2089,469,284.29
2090,362,288.64
2091,214,294.0
2092,227,296.8
2093,226,296.54
2094,275,294.46
2095,261,291.73
2096,272,288.85
2097,212,285.54
2098,542,283.79
2099,470,287.62
2100,480,297.13
2101,531,310.64
2102,523,327.63
2103,623,347.8
2104,635,371.4
2105,600,397.57
2106,733,425.45
2107,693,455.28
2108,663,485.82
2109,343,512.49
2110,372,530.13
2111,311,537.72
2112,342,536.88
2113,333,529.6
2114,317,517.59
2115,277,501.72
2116,365,483.37
2117,384,464.99
2118,331,447.77
2119,457,432.31
2120,383,419.71
2121,421,409.83
2122,302,401.39
2123,230,392.12
2124,432,382.0
2125,432,374.27
2126,335,369.47
2127,324,365.39
2128,305,360.87
2129,288,355.62
2130,290,349.59
2131,537,345.04
2132,483,345.37
2133,385,349.73
2134,405,355.16
2135,402,360.73
2136,326,365.73
2137,514,370.38
2138,680,378.41
2139,450,391.13
2140,405,404.23
2141,337,414.05
2142,423,420.28
2143,642,426.19
2144,651,436.01
2145,628,450.21
2146,668,467.31
2147,780,487.45
2148,692,510.65
2149,728,535.24
2150,476,557.9
2151,380,573.77
2152,351,580.1
2153,469,578.7
2154,315,571.85
2155,351,559.81
2156,300,543.14
2157,355,523.4
2158,272,501.78
2159,388,479.46
2160,298,457.8
2161,252,436.46
2162,324,415.17
2163,290,395.12
2164,259,376.46
2165,317,359.14
2166,259,343.64
2167,441,331.03
2168,69,320.49
2169,146,307.95
2170,50,291.68
2171,188,273.33
2172,186,255.43
2173,69,238.61
2174,153,221.91
2175,118,205.98
2176,203,191.97
2177,125,180.32
2178,167,170.63
2179,178,162.87
2180,114,156.85
2181,153,151.71
2182,119,147.24
2183,214,143.96
2184,200,142.86
2185,149,143.58
2186,108,144.38
2187,314,145.82
2188,184,149.65
2189,181,154.71
2190,274,160.21
2191,289,167.45
2192,196,176.05
2193,238,184.34
2194,313,192.67
2195,266,201.95
2196,216,211.07
2197,174,218.24
2198,298,223.62
2199,192,228.26
2200,274,232.15
2201,280,235.85
2202,270,239.98
2203,242,243.96
2204,198,246.79
2205,80,246.76
2206,364,244.58
2207,191,243.08
2208,237,242.03
2209,252,240.81
2210,232,239.97
2211,153,238.58
2212,188,235.66
2213,207,231.77
2214,303,228.62
2215,316,227.96
2216,261,229.78
2217,259,232.61
2218,309,236.05
2219,286,240.45
2220,342,245.92
2221,284,252.29
2222,291,258.7
2223,279,264.47
2224,343,269.97
2225,333,275.92
2226,368,282.68
2227,422,290.76
2228,474,301.17
2229,522,314.69
2230,359,330.03
2231,388,344.22
2232,338,355.81
2233,234,363.63
2234,171,365.7
2235,277,362.31
2236,239,355.78
2237,277,347.62
2238,260,338.66
2239,264,329.45
2240,185,319.64
2241,265,309.06
2242,268,298.95
2243,253,290.09
2244,214,281.95
2245,222,273.91
2246,233,266.13
2247,311,259.66
2248,299,255.68
2249,295,254.12
2250,269,254.08
2251,254,254.62
2252,188,254.6
2253,218,253.2
2254,272,251.19
2255,441,251.26
2256,357,255.46
2257,383,262.84
2258,299,271.48
2259,350,280.05
2260,358,288.51
2261,388,297.39
2262,390,306.88
2263,367,316.61
2264,322,325.48
2265,292,332.25
2266,272,336.17
2267,215,336.76
2268,310,334.49
2269,324,331.31
2270,347,328.72
2271,318,326.92
2272,427,326.38
2273,262,327.01
2274,307,327.09
2275,246,325.63
2276,328,323.09
2277,213,319.72
2278,278,315.14
2279,241,309.61
2280,303,303.98
2281,297,299.1
2282,344,295.75
2283,239,293.53
2284,335,291.7
2285,274,290.43
2286,304,289.68
2287,308,289.36
2288,356,290.07
2289,305,291.96
2290,265,293.92
2291,202,294.27
2292,184,291.91
2293,209,286.96
2294,180,280.21
2295,189,272.12
2296,190,263.18
2297,215,254.18
2298,248,246.12
2299,266,239.92
2300,285,236.05
2301,225,234.05
2302,373,233.93
2303,332,236.82
2304,240,241.7
2305,278,246.42
2306,240,250.42
2307,309,254.0
2308,283,257.75
2309,429,262.81
2310,386,270.54
2311,445,281.02
2312,381,293.34
2313,468,306.79
2314,414,321.13
2315,470,335.97
2316,336,350.09
2317,354,361.62
2318,285,369.45
2319,326,373.56
2320,310,374.69
2321,274,373.28
2322,274,369.26
2323,232,362.74
2324,284,354.3
2325,288,345.2
2326,221,335.82
2327,339,326.45
2328,423,319.44
2329,380,316.43
2330,337,316.2
2331,163,315.63
2332,231,312.21
2333,155,305.79
2334,166,296.71
2335,165,285.45
2336,220,273.41
2337,216,262.02
2338,268,252.31
2339,255,244.89
2340,346,240.41
2341,252,238.92
2342,288,239.28
2343,316,241.06
2344,380,245.15
2345,304,251.5
2346,206,257.88
2347,250,262.2
2348,271,264.92
2349,334,267.52
2350,460,272.18
2351,352,279.95
2352,440,289.8
2353,399,301.14
2354,490,314.03
2355,374,327.88
2356,384,340.95
2357,371,352.12
2358,413,361.7
2359,254,369.02
2360,280,372.38
2361,252,371.49
2362,274,367.33
2363,189,360.26
2364,318,351.04
2365,266,341.47
2366,337,332.73
2367,369,325.9
2368,363,321.78
2369,350,319.93
2370,550,321.23
2371,592,328.36
2372,559,341.79
2373,414,358.16
2374,412,373.61
2375,424,386.74
2376,268,396.59
2377,520,403.22
2378,577,410.49
2379,629,421.41
2380,539,435.31
2381,454,449.31
2382,604,462.04
2383,575,474.9
2384,590,488.31
2385,392,500.09
2386,583,508.71
2387,467,515.2
2388,426,519.18
2389,463,519.81
2390,516,518.58
2391,657,518.27
2392,403,519.35
2393,378,518.24
2394,377,513.03
2395,500,505.65
2396,347,497.6
2397,444,488.58
2398,421,479.28
2399,282,469.37
2400,279,456.82
2401,260,441.35
2402,329,424.37
2403,298,407.53
2404,329,391.64
2405,306,377.07
2406,322,363.97
2407,370,352.89
2408,366,344.58
2409,290,338.36
2410,378,333.39
2411,310,329.78
2412,385,327.55
2413,308,326.48
2414,265,325.35
2415,252,322.76
2416,233,318.45
2417,223,312.46
2418,282,305.54
2419,395,299.95
2420,330,297.33
2421,376,297.3
2422,336,299.14
2423,360,302.26
2424,346,306.21
2425,360,310.73
2426,407,316.05
2427,289,321.72
2428,352,326.45
2429,268,329.69
2430,356,331.54
2431,292,332.52
2432,415,333.46
2433,353,335.33
2434,488,338.93
2435,394,344.64
2436,420,351.57
2437,369,358.46
2438,460,365.19
2439,269,371.12
2440,234,373.58
2441,238,371.23
2442,262,365.26
2443,249,357.06
2444,284,347.69
2445,220,337.68
2446,230,326.82
2447,326,316.1
2448,387,307.98
2449,367,303.69
2450,339,302.42
2451,323,302.74
2452,610,306.11
2453,652,316.56
2454,630,334.91
2455,463,357.29
2456,221,377.16
2457,188,388.92
2458,299,392.52
2459,209,390.58
2460,212,383.97
2461,243,373.56
2462,481,363.07
2463,620,358.1
2464,426,360.13
2465,284,364.24
2466,108,364.48
2467,128,357.92
2468,142,345.38
2469,73,328.55
2470,164,308.73
2471,218,288.62
2472,148,269.99
2473,103,252.03
2474,226,234.87
2475,145,219.85
2476,194,207.03
2477,170,196.25
2478,183,187.48
2479,178,180.51
2480,211,175.43
2481,193,172.29
2482,237,171.09
2483,206,171.71
2484,190,173.41
2485,216,175.59
2486,181,178.07
2487,170,180.25
2488,149,181.49
2489,124,181.35
2490,160,179.87
2491,133,177.59
2492,103,174.38
2493,90,169.75
2494,155,164.27
2495,79,158.64
2496,61,152.24
2497,63,144.56
2498,58,136.0
2499,50,126.91
2500,52,117.57
2501,53,108.31
2502,60,99.51
2503,78,91.61
2504,66,84.91
2505,93,79.5
2506,54,75.29
2507,147,72.46
2508,119,71.74
2509,119,72.97
2510,182,75.9
2511,161,80.91
2512,155,87.44
2513,147,94.61
2514,135,101.74
2515,219,109.03
2516,219,117.47
2517,220,127.21
2518,195,137.43
2519,247,147.71
2520,212,158.07
2521,202,167.91
2522,189,176.5
2523,218,183.78
2524,159,189.73
2525,185,193.95
2526,160,196.47
2527,197,197.7
2528,158,198.0
2529,182,197.44
2530,127,195.86
2531,127,192.88
2532,112,188.34
2533,128,182.66
2534,98,176.17
2535,62,168.64
2536,78,159.87
2537,52,150.18
2538,60,139.89
2539,53,129.32
2540,95,119.19
2541,36,109.87
2542,75,101.16
2543,82,93.42
2544,118,87.38
2545,74,83.13
2546,107,80.22
2547,98,78.53
2548,113,78.07
2549,112,78.72
2550,156,80.67
2551,133,84.06
2552,138,88.46
2553,127,93.29
2554,200,98.75
2555,171,105.37
2556,174,112.81
2557,135,120.12
2558,214,127.14
2559,185,134.42
2560,180,141.81
2561,141,148.41
2562,206,154.04
2563,212,159.54
2564,186,165.17
2565,184,170.34
2566,203,174.89
2567,175,178.88
2568,200,182.23
2569,198,185.14
2570,195,187.77
2571,127,189.48
2572,129,189.32
2573,116,187.12
2574,161,183.59
2575,106,179.35
2576,96,174.09
2577,67,167.41
2578,74,159.34
2579,93,150.51
2580,46,141.37
2581,32,131.59
2582,63,121.26
2583,75,111.34
2584,88,102.62
2585,84,95.36
2586,445,92.43
2587,233,96.98
2588,232,106.58
2589,256,118.18
2590,445,132.85
2591,383,152.12
2592,302,174.14
2593,534,197.64
2594,352,223.1
2595,467,249.12
2596,604,276.19
2597,567,306.09
2598,651,338.31
2599,599,371.93
2600,444,404.13
2601,422,431.04
2602,410,451.33
2603,388,465.36
2604,410,473.89
2605,365,477.74
2606,287,476.76
2607,331,470.83
2608,316,461.29
2609,358,449.78
2610,312,437.3
2611,335,424.28
2612,350,411.39
2613,376,399.67
2614,338,389.45
2615,369,380.55
2616,372,373.17
2617,505,368.57
2618,677,369.81
2619,620,378.87
2620,379,392.15
2621,289,403.06
2622,314,408.61
2623,342,409.79
2624,422,408.91
2625,352,407.43
2626,414,405.58
2627,372,403.6
2628,391,401.56
2629,334,399.04
2630,430,396.25
2631,396,394.17
2632,458,393.42
2633,420,394.14
2634,328,395.08
2635,326,394.35
2636,353,391.8
2637,396,388.73
2638,416,386.44
2639,484,386.04
2640,440,388.01
2641,404,391.28
2642,456,394.89
2643,497,399.55
2644,401,405.14
2645,345,409.59
2646,376,411.59
2647,389,411.81
2648,321,410.58
2649,292,407.04
2650,287,400.8
2651,331,392.74
2652,370,384.54
2653,380,377.59
2654,383,372.32
2655,390,368.69
2656,366,366.36
2657,401,365.05
2658,533,366.01
2659,616,371.76
2660,327,381.06
2661,558,390.61
2662,458,400.64
2663,449,410.89
2664,359,419.27
2665,425,424.97
2666,592,430.13
2667,631,438.29
2668,597,450.18
2669,623,464.51
2670,525,479.57
2671,454,492.74
2672,416,501.78
2673,490,506.78
2674,440,509.05
2675,422,508.79
2676,356,505.37
2677,354,498.42
2678,343,488.36
2679,459,477.0
2680,527,467.37
2681,492,461.14
2682,443,457.29
2683,448,454.33
2684,416,451.56
2685,367,448.17
2686,464,444.12
2687,379,440.21
2688,313,435.39
2689,257,427.84
2690,280,417.17
2691,272,404.32
2692,291,390.44
2693,290,376.48
2694,260,362.8
2695,244,349.14
2696,373,336.5
2697,335,326.7
2698,395,320.29
2699,486,318.09
2700,570,321.83
2701,348,330.32
2702,304,338.81
2703,244,344.02
2704,254,345.31
2705,252,343.22
2706,271,338.83
2707,364,333.89
2708,401,330.64
2709,422,330.32
2710,399,332.71
2711,256,335.72
2712,285,336.82
2713,269,335.61
2714,324,333.1
2715,282,330.11
2716,308,326.81
2717,239,322.92
2718,305,318.32
2719,299,313.81
2720,332,310.2
2721,716,311.06
2722,727,321.85
2723,724,343.12
2724,700,371.54
2725,650,403.65
2726,426,434.73
2727,353,459.36
2728,302,474.82
2729,344,481.72
2730,296,481.76
2731,377,476.8
2732,311,468.57
2733,308,457.71
2734,260,444.2
2735,260,428.31
2736,398,411.85
2737,409,397.83
2738,380,387.18
2739,409,379.31
2740,528,375.01
2741,683,377.02
2742,598,386.52
2743,508,400.6
2744,380,414.5
2745,175,423.35
2746,470,426.06
2747,524,427.59
2748,280,429.48
2749,649,431.03
2750,606,435.96
2751,401,443.96
2752,334,449.78
2753,377,451.35
2754,387,449.86
2755,496,447.49
2756,434,445.87
2757,312,443.77
2758,342,439.12
2759,414,432.76
2760,436,426.91
2761,470,422.84
2762,468,420.98
2763,517,421.51
2764,482,424.34
2765,497,428.78
2766,401,433.48
2767,439,437.09
2768,417,439.42
2769,370,440.26
2770,351,438.85
2771,263,434.34
2772,292,426.29
2773,310,415.71
2774,272,403.75
2775,286,390.78
2776,285,377.37
2777,307,364.33
2778,355,352.75
2779,391,343.91
2780,363,338.17
2781,332,334.6
2782,478,333.23
2783,425,335.28
2784,375,339.78
2785,244,343.69
2786,214,344.23
2787,217,340.67
2788,270,334.35
2789,300,327.26
2790,342,321.06
2791,230,315.78
2792,370,311.01
2793,306,307.63
2794,340,305.81
2795,328,305.15
2796,358,305.74
2797,270,306.93
2798,252,307.2
2799,269,305.9
2800,289,303.73
2801,286,301.41
2802,269,299.03
2803,340,296.96
2804,329,296.1
2805,313,296.49
2806,416,298.28
2807,362,302.2
2808,315,307.19
2809,316,311.63
2810,350,315.43
2811,216,318.08
2812,268,318.29
2813,304,316.68
2814,265,314.44
2815,216,311.04
2816,210,305.7
2817,194,298.45
2818,221,289.87
2819,288,281.43
2820,273,274.55
2821,229,269.02
2822,312,264.54
2823,437,263.0
2824,291,265.32
2825,292,269.12
2826,152,271.6
2827,457,273.21
2828,490,278.21
2829,454,288.32
2830,197,299.62
2831,526,309.65
2832,382,320.47
2833,296,331.19
2834,192,338.06
2835,575,342.51
2836,496,349.72
2837,632,361.72
2838,341,376.18
2839,370,388.65
2840,408,397.61
2841,374,404.19
2842,408,408.77
2843,490,412.63
2844,554,417.93
2845,492,425.37
2846,414,433.08
2847,428,439.08
2848,424,443.14
2849,326,444.86
2850,332,443.15
2851,334,438.16
2852,241,430.18
2853,252,418.8
2854,213,404.3
2855,250,387.66
2856,244,370.16
2857,257,352.87
2858,269,336.58
2859,301,322.14
2860,254,309.81
2861,277,299.17
2862,300,290.34
2863,445,284.91
2864,508,285.33
2865,455,291.95
2866,303,301.49
2867,286,309.91
2868,314,315.91
2869,362,320.58
2870,523,326.41
2871,526,335.96
2872,428,348.6
2873,351,360.98
2874,406,371.16
2875,396,379.52
2876,392,386.48
2877,354,391.67
2878,397,395.07
2879,338,396.89
2880,300,396.53
2881,342,393.76
2882,319,389.44
2883,405,384.75
2884,450,381.5
2885,514,381.4
2886,351,383.81
2887,384,386.17
2888,367,387.49
2889,366,387.96
2890,351,387.49
2891,372,386.24
2892,310,384.15
2893,311,380.65
2894,334,375.91
2895,338,370.78
2896,300,365.47
2897,330,359.85
2898,294,354.05
2899,402,348.86
2900,349,345.32
2901,286,342.67
2902,284,339.29
2903,335,335.35
2904,529,333.5
2905,617,337.58
2906,559,348.59
2907,391,362.94
2908,409,376.29
2909,386,387.19
2910,384,395.63
2911,376,401.62
2912,357,405.26
2913,355,406.6
2914,376,406.13
2915,359,404.49
2916,369,401.98
2917,331,398.6
2918,365,394.41
2919,418,390.42
2920,392,387.64
2921,370,385.69
2922,312,383.39
2923,275,379.5
2924,300,373.64
2925,377,367.21
2926,487,362.89
2927,392,361.98
2928,418,363.25
2929,413,365.74
2930,483,369.78
2931,372,375.07
2932,375,379.93
2933,330,383.09
2934,308,383.95
2935,277,382.07
2936,349,378.05
2937,308,373.13
2938,313,367.63
2939,267,361.26
2940,321,354.14
2941,271,346.8
2942,309,339.46
2943,232,331.94
2944,309,324.22
2945,360,317.63
2946,430,314.14
2947,225,313.04
2948,179,310.63
2949,168,304.8
2950,159,295.93
2951,134,284.58
2952,518,274.36
2953,597,272.01
2954,604,280.21
2955,643,297.23
2956,599,320.77
2957,532,347.58
2958,554,374.72
2959,532,400.87
2960,526,425.18
2961,488,446.72
2962,388,463.96
2963,436,475.82
2964,521,483.88
2965,564,490.88
2966,726,499.55
2967,640,511.52
2968,590,525.11
2969,632,538.31
2970,609,550.89
2971,497,561.64
2972,374,567.62
2973,422,567.28
2974,383,561.6
2975,332,551.37
2976,330,536.85
2977,343,519.17
2978,315,499.64
2979,309,478.95
2980,334,457.91
2981,328,437.61
2982,383,419.07
2983,361,403.15
2984,361,389.83
2985,283,378.11
2986,311,366.96
2987,395,357.1
2988,357,349.83
2989,294,344.32
2990,249,338.63
2991,213,331.46
2992,261,322.84
2993,274,313.97
2994,340,306.34
2995,422,301.76
2996,398,301.31
2997,410,304.41
2998,307,309.27
2999,361,314.18
3000,434,319.59
3001,407,326.63
3002,364,334.48
3003,304,341.28
3004,304,345.75
3005,284,347.63
3006,375,347.89
3007,442,348.77
3008,448,351.99
3009,434,357.4
3010,473,364.44
3011,486,373.11
3012,514,383.51
3013,355,394.16
3014,372,402.42
3015,339,407.32
3016,338,409.1
3017,243,407.39
3018,291,401.86
3019,332,393.98
3020,308,385.43
3021,235,376.01
3022,365,365.89
3023,325,356.77
3024,315,349.04
3025,271,341.76
3026,239,334.02
3027,263,325.49
3028,211,316.33
3029,295,307.04
3030,197,298.09
3031,164,288.51
3032,167,277.47
3033,107,264.94
3034,209,251.58
3035,228,239.35
3036,166,229.0
3037,192,219.79
3038,159,211.38
3039,198,203.86
3040,200,197.64
3041,157,192.62
3042,231,188.58
3043,221,186.2
3044,210,185.51
3045,237,186.09
3046,160,187.34
3047,275,188.96
3048,248,191.84
3049,228,195.92
3050,236,200.3
3051,230,204.68
3052,248,209.04
3053,191,213.01
3054,185,215.74
3055,196,216.95
3056,177,216.96
3057,190,215.92
3058,229,214.5
3059,255,213.78
3060,214,214.03
3061,236,214.73
3062,165,215.2
3063,216,214.92
3064,169,213.94
3065,123,211.74
3066,114,207.48
3067,116,201.28
3068,111,193.73
3069,102,185.25
3070,277,177.58
3071,72,171.88
3072,277,167.63
3073,100,164.83
3074,159,162.52
3075,43,159.22
3076,204,155.18
3077,61,151.21
3078,186,147.44
3079,99,144.1
3080,209,141.69
3081,180,140.91
3082,111,141.26
3083,134,141.29
3084,178,141.25
3085,290,142.96
3086,144,146.95
3087,172,151.31
3088,137,154.79
3089,218,157.81
3090,312,162.17
3091,184,168.56
3092,202,175.12
3093,204,180.86
3094,127,185.34
3095,205,188.12
3096,231,190.36
3097,163,192.62
3098,219,194.39
3099,186,195.82
3100,190,196.88
3101,175,197.32
3102,185,197.13
3103,122,195.99
3104,142,193.38
3105,174,189.82
3106,128,185.96
3107,130,181.52
3108,147,176.6
3109,94,171.31
3110,86,165.13
3111,134,158.31
3112,343,153.64
3113,362,154.67
3114,133,160.21
3115,73,164.92
3116,38,165.71
3117,78,162.78
3118,77,157.46
3119,69,150.73
3120,179,143.91
3121,134,138.59
3122,203,135.32
3123,202,134.46
3124,229,136.24
3125,163,139.84
3126,97,143.34
3127,85,144.95
3128,129,144.67
3129,162,143.86
3130,128,143.29
3131,234,143.5
3132,252,145.88
3133,174,150.37
3134,219,155.55
3135,185,160.92
3136,199,166.19
3137,201,171.17
3138,197,175.88
3139,142,179.74
3140,246,182.75
3141,243,186.23
3142,171,190.16
3143,185,193.24
3144,209,195.39
3145,163,196.91
3146,84,196.69
3147,158,194.11
3148,181,190.56
3149,116,186.82
3150,139,182.39
3151,74,176.88
3152,100,170.08
3153,92,162.35
3154,36,153.79
3155,60,144.07
3156,70,133.84
3157,74,123.91
3158,118,115.05
3159,183,108.58
3160,127,105.09
3161,96,103.35
3162,79,101.9
3163,104,100.39
3164,153,99.55
3165,147,100.21
3166,149,102.29
3167,131,105.24
3168,139,108.53
3169,238,112.76
3170,159,118.62
3171,145,124.92
3172,270,131.51
3173,280,140.08
3174,173,150.22
3175,198,159.77
3176,184,167.96
3177,290,175.7
3178,183,183.58
3179,173,190.35
3180,203,195.27
3181,238,199.31
3182,198,203.03
3183,168,205.79
3184,196,207.13
3185,175,207.39
3186,177,206.72
3187,154,205.04
3188,151,202.27
3189,156,198.56
3190,120,194.01
3191,94,188.22
3192,158,181.47
3193,84,174.45
3194,161,167.39
3195,177,161.31
3196,46,155.99
3197,73,149.64
3198,91,142.25
3199,61,134.55
3200,287,128.38
3201,62,125.16
3202,160,123.29
3203,113,121.87
3204,99,120.78
3205,343,121.33
3206,128,125.23
3207,149,130.21
3208,165,134.58
3209,239,139.36
3210,183,145.19
3211,103,150.68
3212,173,154.52
3213,151,157.3
3214,237,160.1
3215,122,163.09
3216,132,165.05
3217,202,165.95
3218,226,167.44
3219,154,169.7
3220,166,171.59
3221,253,173.46
3222,196,176.3
3223,228,179.82
3224,118,182.92
3225,281,185.39
3226,196,188.36
3227,184,191.47
3228,141,193.34
3229,105,193.12
3230,389,192.68
3231,251,195.31
3232,536,202.57
3233,597,217.14
3234,140,236.38
3235,1015,258.79
3236,1023,293.4
3237,91,335.87
3238,706,372.84
3239,238,403.04
3240,868,429.6
3241,507,456.04
3242,803,483.19
3243,266,507.5
3244,411,523.67
3245,1023,536.11
3246,409,551.47
3247,522,564.45
3248,230,569.64
3249,257,565.13
3250,143,550.5
3251,978,533.82
3252,469,524.61
3253,907,523.49
3254,1023,532.51
3255,1023,554.39
3256,488,581.94
3257,323,602.87
3258,153,609.61
3259,259,602.11
3260,92,582.99
3261,265,555.16
3262,275,523.21
3263,744,494.53
3264,128,471.98
3265,380,450.67
3266,429,430.5
3267,284,413.5
3268,150,396.44
3269,414,378.66
3270,292,363.13
3271,181,349.07
3272,103,333.14
3273,519,317.54
3274,144,305.79
3275,736,299.42
3276,48,298.36
3277,227,296.47
3278,1023,297.77
3279,403,310.89
3280,428,329.15
3281,124,343.59
3282,94,349.68
3283,126,346.54
3284,458,339.4
3285,497,335.44
3286,410,336.65
3287,547,341.78
3288,440,350.37
3289,206,358.8
3290,300,362.93
3291,164,362.16
3292,372,357.93
3293,102,351.28
3294,395,342.67
3295,1023,340.53
3296,546,352.1
3297,235,368.57
3298,141,378.53
3299,94,378.69
3300,592,374.0
3301,365,371.63
3302,430,371.99
3303,833,376.91
3304,345,388.26
3305,176,398.1
3306,225,400.16
3307,360,396.73
3308,393,392.1
3309,268,387.31
3310,426,382.08
3311,206,376.46
3312,127,367.79
3313,155,354.23
3314,135,337.02
3315,418,319.8
3316,337,306.91
3317,168,297.36
3318,711,291.66
3319,148,292.01
3320,663,296.35
3321,104,302.85
3322,455,308.73
3323,49,311.82
3324,624,313.59
3325,60,315.78
3326,547,317.67
3327,314,320.71
3328,379,325.23
3329,164,328.13
3330,640,330.63
3331,205,335.18
3332,447,339.92
3333,134,342.49
3334,403,342.4
3335,394,342.04
3336,707,346.07
3337,219,354.36
3338,279,360.74
3339,188,361.7
3340,257,358.08
3341,311,351.92
3342,416,346.31
3343,369,343.06
3344,146,340.0
3345,112,332.92
3346,164,321.03
3347,284,307.43
3348,151,294.25
3349,283,281.7
3350,88,269.53
3351,535,259.58
3352,119,253.93
3353,407,250.96
3354,622,253.21
3355,175,261.52
3356,262,269.39
3357,734,278.26
3358,249,292.06
3359,652,308.38
3360,79,324.05
3361,105,332.88
3362,519,335.37
3363,300,338.09
3364,103,339.1
3365,408,336.27
3366,502,334.74
3367,305,336.64
3368,529,340.48
3369,474,347.26
3370,281,355.43
3371,253,360.57
3372,172,360.57
3373,251,355.73
3374,985,353.96
3375,51,359.6
3376,490,365.01
3377,46,366.02
3378,533,363.97
3379,1023,367.92
3380,562,384.53
3381,298,404.56
3382,118,417.05
3383,280,419.62
3384,1023,421.76
3385,151,429.83
3386,195,434.36
3387,336,430.82
3388,294,423.56
3389,695,417.41
3390,1023,421.19
3391,114,433.6
3392,467,442.92
3393,246,446.14
3394,140,443.01
3395,127,431.48
3396,288,414.21
3397,1023,401.62
3398,204,399.65
3399,164,398.11
3400,239,390.25
3401,148,378.0
3402,95,361.5
3403,406,343.22
3404,254,327.57
3405,328,315.11
3406,283,305.06
3407,367,297.74
3408,95,291.53
3409,396,285.06
3410,73,278.67
3411,455,272.84
3412,108,268.4
3413,294,264.14
3414,68,258.51
3415,162,250.63
3416,215,241.41
3417,324,233.98
3418,466,231.52
3419,1023,240.61
3420,64,260.68
3421,512,281.01
3422,1023,304.51
3423,419,336.71
3424,528,369.7
3425,335,397.53
3426,232,417.42
3427,175,426.93
3428,553,429.51
3429,1023,436.24
3430,974,456.19
3431,713,486.53
3432,351,516.17
3433,105,534.33
3434,152,536.62
3435,687,529.81
3436,122,520.78
3437,71,505.14
3438,1023,487.26
3439,1023,483.28
3440,279,491.76
3441,456,498.78
3442,324,500.23
3443,475,497.91
3444,394,493.51
3445,291,486.75
3446,1023,482.02
3447,220,483.53
3448,592,485.66
3449,245,484.9
3450,616,482.35
3451,320,479.33
3452,297,474.06
3453,539,466.46
3454,50,457.08
3455,548,444.72
3456,52,430.57
3457,527,415.38
3458,209,400.99
3459,511,388.83
3460,544,381.35
3461,955,384.04
3462,988,401.57
3463,229,427.56
3464,357,448.1
3465,298,459.28
3466,763,466.79
3467,383,475.28
3468,388,481.87
3469,899,487.96
3470,144,495.67
3471,541,499.47
3472,301,498.53
3473,267,493.06
3474,114,480.61
3475,226,461.35
3476,964,444.12
3477,1023,442.41
3478,349,453.99
3479,333,464.75
3480,170,467.48
3481,179,461.29
3482,63,446.36
3483,161,424.23
3484,272,398.93
3485,182,373.89
3486,430,351.32
3487,294,333.58
3488,131,318.55
3489,158,302.55
3490,271,286.37
3491,147,271.61
3492,214,257.87
3493,580,248.4
3494,280,246.54
3495,303,248.83
3496,199,251.31
3497,195,252.3
3498,205,251.31
3499,227,249.15
3500,376,247.81
3501,131,247.76
3502,195,246.43
3503,236,243.56
3504,154,240.13
3505,268,236.31
3506,317,233.9
3507,344,234.6
3508,146,236.87
3509,220,237.85
3510,116,236.57
3511,247,233.59
3512,106,229.54
3513,146,223.9
3514,133,216.64
3515,155,208.68
3516,79,200.07
3517,180,191.01
3518,136,182.58
3519,207,175.57
3520,96,169.78
3521,157,164.36
3522,121,159.21
3523,121,154.33
3524,72,149.14
3525,43,142.83
3526,159,135.96
3527,86,129.93
3528,116,124.75
3529,74,119.93
3530,208,116.2
3531,471,117.37
3532,163,125.14
3533,84,134.16
3534,127,140.39
3535,120,144.3
3536,206,147.25
3537,284,151.34
3538,212,157.56
3539,177,164.36
3540,242,170.76
3541,184,176.96
3542,290,183.24
3543,251,190.32
3544,251,198.01
3545,266,205.7
3546,141,212.39
3547,315,217.58
3548,244,222.72
3549,182,227.39
3550,173,229.91
3551,273,230.86
3552,212,231.65
3553,141,231.53
3554,157,229.21
3555,174,225.09
3556,190,220.29
3557,131,215.04
3558,118,208.68
3559,109,200.92
3560,135,192.3
3561,183,184.06
3562,75,176.48
3563,40,167.99
3564,86,158.03
3565,86,147.73
3566,44,137.53
3567,42,127.04
3568,234,117.87
3569,265,113.33
3570,280,114.68
3571,102,119.51
3572,48,123.63
3573,185,125.86
3574,183,128.35
3575,194,132.14
3576,162,136.68
3577,170,141.29
3578,224,146.12
3579,193,151.63
3580,186,157.37
3581,211,162.94
3582,200,168.45
3583,169,173.51
3584,186,177.61
3585,256,181.44
3586,171,185.51
3587,231,189.33
3588,176,192.66
3589,356,196.56
3590,205,202.01
3591,178,207.28
3592,217,210.87
3593,171,213.12
3594,141,213.59
3595,166,212.04
3596,152,209.05
3597,210,205.51
3598,223,202.58
3599,154,200.36
3600,124,197.47
3601,87,192.82
3602,109,186.33
3603,58,178.24
3604,121,169.1
3605,250,161.11
3606,231,156.71
3607,210,155.75
3608,69,155.8
3609,47,153.99
3610,62,149.44
3611,98,143.31
3612,100,136.88
3613,103,130.79
3614,119,125.36
3615,98,120.71
3616,412,119.15
3617,260,123.67
3618,174,132.1
3619,131,140.23
3620,142,146.57
3621,152,151.24
3622,170,154.88
3623,297,159.04
3624,368,166.23
3625,246,176.7
3626,177,187.35
3627,208,195.95
3628,143,202.1
3629,254,206.3
3630,208,209.77
3631,259,213.15
3632,156,215.96
3633,212,217.45
3634,210,217.93
3635,186,217.86
3636,167,216.81
3637,163,214.52
3638,206,211.48
3639,182,208.44
3640,144,205.15
3641,119,200.76
3642,101,194.82
3643,157,187.84
3644,234,181.7
3645,267,178.35
3646,108,177.13
3647,158,175.64
3648,278,174.51
3649,169,175.15
3650,136,176.06
3651,224,176.43
3652,367,178.7
3653,248,184.42
3654,242,191.79
3655,154,198.36
3656,264,203.54
3657,249,208.43
3658,258,213.67
3659,210,218.65
3660,239,222.78
3661,200,225.91
3662,248,228.15
3663,250,230.13
3664,269,232.43
3665,259,235.13
3666,246,237.94
3667,280,240.72
3668,345,244.37
3669,251,249.14
3670,194,253.13
3671,209,254.83
3672,292,255.19
3673,270,255.81
3674,196,256.32
3675,237,255.69
3676,164,253.67
3677,226,250.32
3678,207,246.31
3679,212,242.18
3680,176,237.71
3681,219,232.95
3682,493,230.74
3683,227,233.2
3684,761,241.39
3685,870,261.06
3686,1023,296.21
3687,1023,345.36
3688,1023,404.83
3689,784,468.32
3690,829,529.26
3691,833,585.09
3692,305,631.35
3693,862,664.8
3694,718,690.99
3695,1023,715.47
3696,719,739.16
3697,624,758.25
3698,565,768.72
3699,886,773.14
3700,982,778.35
3701,763,786.36
3702,686,792.87
3703,403,792.67
3704,1023,787.15
3705,1023,785.57
3706,446,787.4
3707,1011,786.97
3708,727,787.03
3709,517,785.71
3710,1023,781.8
3711,174,775.65
3712,1023,765.21
3713,227,752.26
3714,598,734.8
3715,210,710.85
3716,229,679.66
3717,745,645.29
3718,216,613.86
3719,559,584.07
3720,706,558.97
3721,349,540.54
3722,438,523.89
3723,465,507.91
3724,380,493.44
3725,509,480.46
3726,462,470.07
3727,1008,466.7
3728,430,472.59
3729,810,483.48
3730,661,498.1
3731,478,514.26
3732,613,527.98
3733,598,539.98
3734,500,550.33
3735,457,557.01
3736,580,560.21
3737,670,563.03
3738,568,567.08
3739,1023,574.72
3740,600,588.01
3741,796,603.54
3742,600,618.44
3743,521,630.15
3744,742,637.96
3745,417,642.84
3746,517,642.67
3747,1023,641.75
3748,608,645.95
3749,578,651.04
3750,760,654.27
3751,810,659.09
3752,1023,668.99
3753,564,682.59
3754,751,694.35
3755,740,703.54
3756,353,708.67
3757,534,705.64
3758,410,695.29
3759,568,680.43
3760,338,662.28
3761,398,640.25
3762,357,614.8
3763,919,591.92
3764,354,575.98
3765,404,561.62
3766,310,544.37
3767,402,525.14
3768,587,507.24
3769,363,492.87
3770,591,481.38
3771,808,476.11
3772,678,480.05
3773,418,488.42
3774,482,495.15
3775,1010,503.61
3776,424,517.49
3777,888,533.54
3778,548,550.75
3779,741,568.12
3780,444,582.99
3781,327,591.24
3782,681,592.77
3783,450,592.05
3784,410,588.43
3785,625,581.95
3786,432,575.1
3787,306,565.77
3788,302,551.21
3789,435,533.13
3790,378,514.62
3791,708,499.23
3792,775,492.16
3793,577,493.79
3794,640,499.86
3795,372,506.34
3796,586,510.83
3797,572,514.83
3798,480,519.11
3799,457,521.66
3800,292,520.35
3801,572,515.53
3802,496,510.8
3803,522,507.54
3804,560,505.63
3805,686,506.66
3806,443,510.28
3807,588,514.01
3808,746,519.36
3809,395,526.68
3810,458,531.32
3811,632,533.36
3812,401,534.83
3813,595,535.05
3814,523,535.01
3815,887,538.13
3816,1023,550.07
3817,423,568.56
3818,698,585.02
3819,364,596.28
3820,308,599.56
3821,347,593.36
3822,504,581.55
3823,323,567.28
3824,474,551.17
3825,609,536.26
3826,325,523.87
3827,342,510.41
3828,521,496.0
3829,691,485.77
3830,413,481.0
3831,439,477.63
3832,770,476.29
3833,565,480.45
3834,409,486.77
3835,290,489.36
3836,355,486.33
3837,449,480.0
3838,226,471.59
3839,638,462.36
3840,1023,460.81
3841,232,468.39
3842,210,472.74
3843,316,468.55
3844,271,459.18
3845,928,451.64
3846,432,452.03
3847,187,453.71
3848,389,449.96
3849,397,443.54
3850,550,438.31
3851,496,436.29
3852,799,439.59
3853,323,447.46
3854,719,456.49
3855,1023,471.18
3856,798,496.04
3857,1023,528.42
3858,847,565.91
3859,818,604.81
3860,523,639.22
3861,379,662.87
3862,620,674.8
3863,1020,683.41
3864,663,694.75
3865,873,706.97
3866,451,716.53
3867,878,722.09
3868,557,725.31
3869,468,724.18
3870,585,716.68
3871,604,705.88
3872,1023,697.59
3873,662,695.52
3874,681,695.93
3875,346,692.89
3876,315,681.76
3877,1023,667.35
3878,429,657.37
3879,514,647.86
3880,231,633.28
3881,235,611.4
3882,418,583.93
3883,255,554.79
3884,345,524.92
3885,402,496.05
3886,274,469.49
3887,318,444.31
3888,341,420.83
3889,546,401.83
3890,654,391.26
3891,458,389.27
3892,497,391.9
3893,384,396.09
3894,304,399.15
3895,351,399.43
3896,158,396.12
3897,613,391.11
3898,467,389.63
3899,210,390.11
3900,260,387.13
3901,318,380.79
3902,663,376.26
3903,620,378.97
3904,676,389.68
3905,611,406.16
3906,495,424.95
3907,543,442.88
3908,527,459.27
3909,478,473.69
3910,683,486.88
3911,719,501.93
3912,611,519.29
3913,598,536.27
3914,577,551.15
3915,540,563.19
3916,532,571.85
3917,324,575.51
3918,420,572.6
3919,320,563.84
3920,339,550.21
3921,345,532.85
3922,293,513.04
3923,293,491.23
3924,350,468.63
3925,316,446.82
3926,304,426.12
3927,282,406.3
3928,263,387.18
3929,226,368.43
3930,194,349.55
3931,246,330.81
3932,379,314.43
3933,194,301.47
3934,147,289.22
3935,432,277.96
3936,386,271.7
3937,472,271.73
3938,556,278.24
3939,367,290.01
3940,308,302.53
3941,334,312.93
3942,605,323.54
3943,327,336.31
3944,354,348.21
3945,627,359.47
3946,639,374.62
3947,553,393.98
3948,563,414.67
3949,609,435.55
3950,484,455.7
3951,564,473.63
3952,689,490.6
3953,686,508.95
3954,595,527.96
3955,639,545.73
3956,624,561.81
3957,450,574.79
3958,380,581.47
3959,372,580.53
3960,394,573.28
3961,282,560.84
3962,336,543.62
3963,199,522.21
3964,200,496.52
3965,163,466.99
3966,210,435.3
3967,131,402.78
3968,141,369.89
3969,159,337.47
3970,127,306.56
3971,113,277.32
3972,138,250.02
3973,120,225.23
3974,36,202.39
3975,44,180.33
3976,74,159.27
3977,33,139.88
3978,73,122.3
3979,73,106.97
3980,63,94.11
3981,87,83.58
3982,61,75.25
3983,108,69.05
3984,108,65.2
3985,102,63.61
3986,122,63.86
3987,152,66.02
3988,148,70.19
3989,319,77.32
3990,138,87.73
3991,146,98.84
3992,170,108.96
3993,202,118.72
3994,188,128.49
3995,169,137.83
3996,215,146.48
3997,218,154.95
3998,157,162.94
3999,236,169.97
4000,211,176.62
4001,266,183.46
4002,178,190.19
4003,242,196.16
4004,190,201.26
4005,212,205.37
4006,118,207.78
4007,177,207.95
4008,187,206.66
4009,197,205.05
4010,150,203.09
4011,184,200.53
4012,82,196.94
4013,137,191.74
4014,99,185.25
4015,71,177.57
4016,34,168.2
4017,55,157.17
4018,39,145.14
4019,36,132.63
4020,67,120.24
4021,56,108.73
4022,68,98.43
4023,90,89.68
4024,107,82.99
4025,98,78.45
4026,153,76.15
4027,94,75.98
4028,164,77.49
4029,120,80.53
4030,156,84.78
4031,154,90.02
4032,213,96.59
4033,158,104.46
4034,174,112.77
4035,199,121.17
4036,184,129.77
4037,131,137.77
4038,333,145.72
4039,207,155.21
4040,209,165.15
4041,164,173.77
4042,210,180.76
4043,217,186.72
4044,182,191.9
4045,168,195.7
4046,170,197.82
4047,150,198.36
4048,183,197.63
4049,148,196.04
4050,91,193.09
4051,64,187.77
4052,127,180.43
4053,112,172.47
4054,121,164.63
4055,71,156.76
4056,84,148.5
4057,34,139.59
4058,48,129.9
4059,66,119.88
4060,61,110.31
4061,52,101.39
4062,33,92.91
4063,41,84.72
4064,41,76.99
4065,98,70.4
4066,93,65.77
4067,88,63.13
4068,119,62.22
4069,136,63.27
4070,186,66.71
4071,160,72.59
4072,140,79.96
4073,178,87.99
4074,160,96.59
4075,230,105.92
4076,198,116.23
4077,193,126.96
4078,189,137.29
4079,220,147.13
4080,193,156.53
4081,202,165.16
4082,250,173.25
4083,239,181.43
4084,244,189.67
4085,186,197.2
4086,192,203.09
4087,189,207.14
4088,104,208.98
4089,164,208.13
4090,136,205.34
4091,164,201.42
4092,114,196.58
4093,183,191.18
4094,72,185.34
4095,150,178.73
4096,89,171.64
4097,79,163.97
4098,50,155.21
4099,56,145.4
4100,42,134.86
4101,53,124.01
4102,35,113.21
4103,44,102.65
4104,35,92.56
4105,69,83.35
4106,120,76.0
4107,87,71.16
4108,115,68.47
4109,72,67.36
4110,142,67.59
4111,85,69.15
4112,222,72.42
4113,130,77.92
4114,267,85.65
4115,96,94.95
4116,179,104.12
4117,186,112.93
4118,185,121.95
4119,166,130.72
4120,203,139.01
4121,188,146.98
4122,180,154.45
4123,165,160.91
4124,197,166.34
4125,189,171.15
4126,186,175.44
4127,168,178.93
4128,196,181.6
4129,162,183.61
4130,189,184.92
4131,199,185.92
4132,177,186.84
4133,146,187.16
4134,182,186.6
4135,106,185.12
4136,100,181.98
4137,82,176.83
4138,109,170.19
4139,76,162.65
4140,52,154.15
4141,35,144.42
4142,69,133.87
4143,39,123.2
4144,44,112.63
4145,52,102.36
4146,52,92.84
4147,115,84.77
4148,125,79.18
4149,84,75.99
4150,125,74.48
4151,163,74.96
4152,127,77.58
4153,146,81.62
4154,125,86.47
4155,219,92.35
4156,144,99.58
4157,149,107.18
4158,119,114.05
4159,203,120.37
4160,181,127.0
4161,194,134.1
4162,210,141.48
4163,206,149.17
4164,184,156.72
4165,186,163.55
4166,174,169.38
4167,154,173.9
4168,112,176.52
4169,153,177.09
4170,202,176.81
4171,195,176.96
4172,186,177.65
4173,149,178.22
4174,117,177.74
4175,134,175.8
4176,102,172.57
4177,131,168.3
4178,116,163.48
4179,119,158.41
4180,58,152.74
4181,114,146.29
4182,46,139.32
4183,42,131.49
4184,64,122.83
4185,41,113.95
4186,63,105.17
4187,60,96.91
4188,98,89.75
4189,70,84.03
4190,126,79.9
4191,127,77.82
4192,182,78.26
4193,87,80.75
4194,156,84.19
4195,127,88.35
4196,229,93.86
4197,168,101.12
4198,190,109.5
4199,210,118.48
4200,195,128.02
4201,219,137.79
4202,193,147.47
4203,155,156.23
4204,255,163.98
4205,187,171.49
4206,219,178.52
4207,234,185.06
4208,345,192.41
4209,158,200.55
4210,82,206.26
4211,140,207.65
4212,152,206.15
4213,146,203.09
4214,197,199.36
4215,140,195.56
4216,163,191.52
4217,132,187.07
4218,173,182.47
4219,64,177.44
4220,84,170.97
4221,109,163.24
4222,127,155.53
4223,88,148.27
4224,425,143.83
4225,161,144.72
4226,1023,155.11
4227,490,179.98
4228,995,217.4
4229,1023,267.31
4230,546,325.91
4231,179,378.61
4232,419,417.22
4233,454,445.01
4234,569,467.12
4235,612,486.69
4236,206,502.02
4237,1023,514.02
4238,1023,533.06
4239,1023,563.53
4240,74,593.98
4241,85,608.07
4242,938,608.68
4243,383,608.4
4244,832,609.03
4245,117,607.27
4246,541,599.28
4247,92,584.2
4248,671,565.04
4249,1023,552.06
4250,50,546.72
4251,1023,542.32
4252,329,541.05
4253,902,543.49
4254,1023,553.33
4255,416,570.2
4256,158,580.88
4257,415,579.48
4258,342,570.39
4259,93,554.61
4260,175,530.24
4261,293,500.42
4262,335,470.34
4263,460,443.71
4264,121,420.17
4265,640,399.49
4266,712,387.92
4267,337,386.01
4268,124,384.28
4269,180,376.7
4270,394,365.8
4271,293,355.85
4272,34,344.94
4273,1023,336.66
4274,662,341.67
4275,192,355.11
4276,203,363.94
4277,84,364.4
4278,291,358.29
4279,277,349.66
4280,294,340.97
4281,381,333.39
4282,618,330.38
4283,356,333.37
4284,635,340.78
4285,184,350.09
4286,418,357.36
4287,36,359.87
4288,279,356.33
4289,99,347.7
4290,387,336.83
4291,855,331.65
4292,1023,342.23
4293,191,364.3
4294,205,382.35
4295,235,390.45
4296,570,394.05
4297,1023,403.47
4298,321,421.4
4299,822,441.56
4300,1023,466.89
4301,140,495.46
4302,414,515.08
4303,278,523.43
4304,174,522.08
4305,624,514.23
4306,94,503.86
4307,155,487.46
4308,456,466.11
4309,299,445.79
4310,983,432.38
4311,208,428.22
4312,514,426.69
4313,305,424.17
4314,571,422.24
4315,527,423.08
4316,1023,431.52
4317,526,449.1
4318,271,466.95
4319,692,479.67
4320,200,488.85
4321,1010,497.03
4322,151,506.38
4323,659,513.05
4324,459,517.13
4325,723,522.13
4326,400,527.7
4327,774,533.46
4328,836,543.13
4329,1023,561.03
4330,300,582.27
4331,540,597.07
4332,194,601.72
4333,52,593.67
4334,1023,578.97
4335,930,573.56
4336,255,576.32
4337,99,572.19
4338,302,556.58
4339,814,538.94
4340,380,526.75
4341,216,514.89
4342,128,496.75
4343,59,471.1
4344,200,439.87
4345,268,407.69
4346,611,380.87
4347,40,360.5
4348,53,339.31
4349,73,313.92
4350,431,289.5
4351,484,273.05
4352,1023,271.29
4353,406,284.95
4354,526,305.28
4355,384,325.82
4356,266,343.55
4357,79,353.97
4358,494,357.87
4359,232,359.76
4360,684,362.86
4361,316,369.01
4362,265,374.55
4363,118,374.43
4364,134,367.33
4365,692,358.74
4366,45,353.24
4367,41,344.25
4368,667,332.68
4369,407,327.53
4370,485,328.94
4371,378,333.61
4372,359,339.32
4373,442,345.13
4374,591,353.26
4375,331,363.84
4376,960,378.07
4377,207,396.62
4378,1023,417.32
4379,456,441.54
4380,1023,469.68
4381,145,497.35
4382,1023,521.24
4383,474,544.17
4384,887,567.17
4385,180,585.98
4386,396,594.64
4387,36,590.06
4388,483,575.12
4389,239,555.15
4390,484,533.64
4391,1023,518.02
4392,176,511.35
4393,190,502.38
4394,75,484.34
4395,1023,465.93
4396,542,458.37
4397,891,462.17
4398,651,474.22
4399,462,489.55
4400,97,498.9
4401,252,497.18
4402,610,489.52
4403,516,483.92
4404,834,484.04
4405,92,486.89
4406,197,483.12
4407,515,472.66
4408,39,459.62
4409,374,442.6
4410,672,427.11
4411,360,418.31
4412,192,410.88
4413,1023,406.22
4414,1023,415.97
4415,377,437.89
4416,304,457.25
4417,204,466.79
4418,108,465.54
4419,428,456.37
4420,493,446.39
4421,351,438.62
4422,279,430.42
4423,106,418.42
4424,48,400.09
4425,189,376.29
4426,267,351.57
4427,95,327.94
4428,505,307.1
4429,116,291.17
4430,41,275.89
4431,44,257.26
4432,118,236.69
4433,93,216.36
4434,115,197.24
4435,106,179.75
4436,178,164.68
4437,100,152.43
4438,111,142.11
4439,41,132.58
4440,250,124.62
4441,114,119.82
4442,261,118.28
4443,134,119.53
4444,166,122.24
4445,230,125.99
4446,243,131.81
4447,243,139.76
4448,299,149.62
4449,194,160.69
4450,208,171.16
4451,307,181.03
4452,244,191.34
4453,122,200.42
4454,386,207.92
4455,242,216.11
4456,159,223.68
4457,218,228.49
4458,174,230.98
4459,148,231.17
4460,124,228.63
4461,164,223.82
4462,145,217.72
4463,91,210.42
4464,123,201.69
4465,102,192.04
4466,118,182.07
4467,156,172.57
4468,55,163.67
4469,70,154.3
4470,69,144.29
4471,32,133.92
4472,42,123.1
4473,104,112.63
4474,109,103.92
4475,95,97.29
4476,45,91.87
4477,115,87.19
4478,115,83.97
4479,142,82.74
4480,153,83.6
4481,135,86.27
4482,163,90.27
4483,147,95.32
4484,201,101.42
4485,162,108.54
4486,147,115.9
4487,216,123.2
4488,168,130.83
4489,167,138.24
4490,170,144.85
4491,174,150.71
4492,242,156.45
4493,116,162.03
4494,147,166.06
4495,197,168.66
4496,203,171.21
4497,231,174.37
4498,204,178.17
4499,142,181.62
4500,278,184.57
4501,151,187.72
4502,149,189.93
4503,82,189.75
4504,142,187.15
4505,104,182.91
4506,97,177.36
4507,96,170.57
4508,72,162.79
4509,67,154.06
4510,98,144.87
4511,69,135.86
4512,43,126.85
4513,36,117.41
4514,91,108.07
4515,83,99.9
4516,74,93.11
4517,75,87.4
4518,84,82.71
4519,70,78.99
4520,131,76.48
4521,140,75.91
4522,107,77.22
4523,131,79.65
4524,122,82.91
4525,185,87.25
4526,200,93.34
4527,178,101.14
4528,219,110.09
4529,180,119.81
4530,237,129.95
4531,250,140.8
4532,290,152.83
4533,204,165.44
4534,176,176.77
4535,213,185.91
4536,204,193.37
4537,211,199.54
4538,183,204.32
4539,152,207.24
4540,241,208.65
4541,158,209.38
4542,179,209.11
4543,105,207.15
4544,194,203.66
4545,132,199.46
4546,127,194.53
4547,107,188.46
4548,144,181.65
4549,60,174.24
4550,86,165.78
4551,39,156.14
4552,98,145.85
4553,42,135.52
4554,45,125.09
4555,47,114.54
4556,62,104.41
4557,75,95.3
4558,176,88.42
4559,68,84.33
4560,86,81.71
4561,127,80.03
4562,125,79.94
4563,128,81.37
4564,141,84.07
4565,204,88.38
4566,152,94.49
4567,180,101.65
4568,168,109.34
4569,189,117.37
4570,202,125.76
4571,191,134.43
4572,197,143.02
4573,235,151.57
4574,214,160.32
4575,168,168.53
4576,183,175.26
4577,298,181.45
4578,212,188.33
4579,203,194.97
4580,209,200.41
4581,196,204.68
4582,166,207.52
4583,147,208.42
4584,161,207.36
4585,175,205.05
4586,117,201.72
4587,211,197.68
4588,118,193.5
4589,154,188.92
4590,43,183.1
4591,52,175.09
4592,74,165.09
4593,54,154.17
4594,50,142.72
4595,48,131.0
4596,36,119.3
4597,88,108.2
4598,83,98.62
4599,83,90.85
4600,137,85.12
4601,128,81.93
4602,165,81.37
4603,173,83.43
4604,186,87.98
4605,124,94.02
4606,170,100.48
4607,95,106.67
4608,167,112.21
4609,181,117.73
4610,232,124.3
4611,182,131.98
4612,211,140.1
4613,186,148.15
4614,252,156.25
4615,199,164.57
4616,188,172.37
4617,201,179.02
4618,246,185.05
4619,176,190.7
4620,226,195.5
4621,193,199.47
4622,244,202.97
4623,127,205.6
4624,170,206.35
4625,148,205.21
4626,137,202.57
4627,39,197.72
4628,114,190.27
4629,270,182.78
4630,136,177.54
4631,69,172.75
4632,46,166.08
4633,42,157.25
4634,92,147.2
4635,90,137.34
4636,65,128.1
4637,392,121.86
4638,245,122.03
4639,875,132.5
4640,440,156.0
4641,991,191.18
4642,1023,239.77
4643,1023,301.98
4644,1023,372.86
4645,930,447.27
4646,200,514.47
4647,127,560.78
4648,189,583.05
4649,527,589.34
4650,141,586.2
4651,252,573.35
4652,1023,558.46
4653,686,553.22
4654,58,551.21
4655,1023,546.6
4656,339,545.18
4657,64,540.71
4658,1023,531.85
4659,978,532.92
4660,369,543.62
4661,44,548.41
4662,410,541.3
4663,498,529.36
4664,1005,522.67
4665,719,526.8
4666,1023,540.99
4667,789,563.09
4668,1023,591.08
4669,781,622.59
4670,236,649.29
4671,136,659.84
4672,1023,658.87
4673,316,657.02
4674,1023,656.01
4675,1023,661.43
4676,406,672.3
4677,46,674.03
4678,45,657.85
4679,992,633.28
4680,1023,618.78
4681,562,616.87
4682,1023,621.13
4683,157,626.66
4684,776,627.67
4685,186,623.44
4686,463,613.04
4687,1023,602.54
4688,1023,603.65
4689,1023,618.17
4690,948,641.78
4691,205,664.3
4692,490,674.9
4693,175,672.05
4694,143,655.99
4695,141,627.32
4696,1023,596.85
4697,1023,580.33
4698,1023,582.13
4699,188,591.07
4700,58,590.53
4701,184,574.89
4702,380,550.84
4703,208,523.98
4704,1023,501.28
4705,1023,494.33
4706,696,503.56
4707,1023,522.16
4708,230,543.51
4709,306,556.63
4710,396,558.59
4711,134,551.93
4712,1023,542.64
4713,1023,543.94
4714,1023,560.6
4715,1023,588.35
4716,472,619.13
4717,383,641.55
4718,552,652.32
4719,69,651.93
4720,1023,644.37
4721,181,636.32
4722,77,621.39
4723,108,593.41
4724,361,558.12
4725,200,521.45
4726,144,483.93
4727,70,444.16
4728,76,402.34
4729,1023,367.52
4730,53,346.75
4731,480,332.75
4732,486,323.44
4733,489,321.61
4734,353,324.52
4735,299,328.33
4736,718,334.13
4737,920,349.23
4738,1023,378.49
4739,451,416.24
4740,290,449.47
4741,120,469.52
4742,91,474.62
4743,437,469.08
4744,627,462.55
4745,258,458.38
4746,246,451.6
4747,159,439.15
4748,65,420.5
4749,445,398.61
4750,183,378.22
4751,837,363.79
4752,252,358.1
4753,44,353.39
4754,375,344.12
4755,314,334.87
4756,35,325.38
4757,124,311.7
4758,223,295.24
4759,756,283.89
4760,285,282.44
4761,382,286.03
4762,180,289.45
4763,116,289.62
4764,650,288.97
4765,261,292.72
4766,181,297.05
4767,672,301.22
4768,204,308.65
4769,134,314.13
4770,497,315.95
4771,97,317.03
4772,50,313.56
4773,329,305.0
4774,1023,302.62
4775,58,310.79
4776,160,317.48
4777,294,317.7
4778,486,317.56
4779,1023,325.72
4780,573,346.65
4781,228,370.81
4782,320,388.13
4783,1023,404.08
4784,324,424.96
4785,94,441.37
4786,395,446.9
4787,768,450.01
4788,325,456.08
4789,174,458.81
4790,784,457.79
4791,540,460.68
4792,1007,471.23
4793,247,486.74
4794,318,497.51
4795,198,498.27
4796,519,492.64
4797,272,484.61
4798,1023,479.7
4799,278,481.46
4800,271,482.17
4801,284,475.96
4802,528,466.87
4803,97,456.45
4804,463,443.32
4805,354,430.08
4806,36,415.83
4807,1023,403.23
4808,568,402.07
4809,569,410.25
4810,488,421.03
4811,202,429.75
4812,533,434.01
4813,1023,441.77
4814,878,461.42
4815,825,490.71
4816,160,518.91
4817,198,534.47
4818,411,536.77
4819,1023,537.69
4820,181,542.35
4821,288,541.87
4822,260,532.16
4823,977,521.96
4824,191,516.77
4825,154,508.31
4826,817,496.04
4827,638,490.29
4828,1023,495.27
4829,54,505.21
4830,435,509.07
4831,445,506.59
4832,342,501.78
4833,93,491.74
4834,131,473.48
4835,945,454.74
4836,899,449.44
4837,513,457.22
4838,273,466.15
4839,203,468.05
4840,76,460.35
4841,165,443.76
4842,47,420.39
4843,71,391.59
4844,84,359.15
4845,72,325.27
4846,170,292.12
4847,121,261.71
4848,34,233.65
4849,134,207.3
4850,199,184.57
4851,96,166.35
4852,172,151.64
4853,92,139.83
4854,66,129.72
4855,116,120.56
4856,124,113.09
4857,116,107.63
4858,235,104.77
4859,272,106.15
4860,145,111.26
4861,272,118.32
4862,331,128.14
4863,171,140.44
4864,224,152.53
4865,303,164.27
4866,206,176.31
4867,240,187.5
4868,224,197.34
4869,205,205.67
4870,453,214.16
4871,255,224.78
4872,42,233.73
4873,271,237.91
4874,153,239.35
4875,137,238.48
4876,94,234.28
4877,75,226.72
4878,153,216.82
4879,101,206.15
4880,94,194.97
4881,127,183.49
4882,61,172.1
4883,90,160.59
4884,158,149.84
4885,49,140.48
4886,50,131.26
4887,65,121.71
4888,132,113.02
4889,111,106.3
4890,62,101.1
4891,93,96.52
4892,114,92.83
4893,168,90.98
4894,151,91.49
4895,204,94.38
4896,157,99.34
4897,143,105.27
4898,170,111.33
4899,282,118.55
4900,156,127.43
4901,189,136.42
4902,217,144.94
4903,176,153.21
4904,172,160.55
4905,206,166.82
4906,173,172.33
4907,166,176.76
4908,222,180.29
4909,198,183.69
4910,220,187.12
4911,104,189.68
4912,155,190.2
4913,144,188.95
4914,128,186.49
4915,89,182.53
4916,124,177.07
4917,155,171.16
4918,70,165.18
4919,93,158.42
4920,78,150.82
4921,122,143.15
4922,69,135.82
4923,64,128.46
4924,69,120.84
4925,52,113.18
4926,40,105.39
4927,59,97.58
4928,196,91.33
4929,52,87.69
4930,95,85.27
4931,76,83.24
4932,148,82.21
4933,123,82.77
4934,108,84.59
4935,57,86.44
4936,59,87.32
4937,161,87.89
4938,159,89.85
4939,165,93.66
4940,228,99.34
4941,169,106.86
4942,177,115.16
4943,191,123.55
4944,189,131.99
4945,165,140.1
4946,206,147.61
4947,197,154.84
4948,206,161.86
4949,164,168.22
4950,187,173.46
4951,184,177.68
4952,173,181.04
4953,125,183.04
4954,40,182.37
4955,152,178.83
4956,135,174.22
4957,73,169.06
4958,120,162.89
4959,114,156.37
4960,43,149.49
4961,69,141.58
4962,62,132.93
4963,68,124.13
4964,113,115.92
4965,34,108.56
4966,42,101.24
4967,42,93.67
4968,50,86.29
4969,70,79.58
4970,91,74.17
4971,78,70.32
4972,109,68.0
4973,97,67.21
4974,86,67.58
4975,177,69.3
4976,127,72.96
4977,143,78.06
4978,113,83.68
4979,166,89.59
4980,161,96.1
4981,146,103.09
4982,128,109.79
4983,166,115.95
4984,184,122.1
4985,127,128.19
4986,160,133.52
4987,210,138.58
4988,216,144.4
4989,220,151.14
4990,170,158.08
4991,234,164.68
4992,184,171.03
4993,176,176.64
4994,162,180.84
4995,113,183.15
4996,132,183.18
4997,117,181.25
4998,98,177.67
4999,141,172.86
5000,122,167.65
5001,47,161.74
5002,157,155.02
5003,49,148.18
5004,46,140.61
5005,54,131.86
5006,52,122.57
5007,76,113.41
5008,58,104.87
5009,42,96.86
5010,32,89.02
5011,67,81.56
5012,114,75.51
5013,179,72.29
5014,106,72.18
5015,80,73.58
5016,142,75.56
5017,110,78.47
5018,134,82.16
5019,185,86.88
5020,226,93.59
5021,169,102.2
5022,219,111.8
5023,186,121.93
5024,183,131.97
5025,188,141.35
5026,185,149.94
5027,166,157.49
5028,245,164.32
5029,156,170.78
5030,186,176.19
5031,169,180.25
5032,224,183.56
5033,186,186.64
5034,176,189.19
5035,160,190.66
5036,224,191.43
5037,176,192.17
5038,131,192.23
5039,141,190.73
5040,172,188.14
5041,131,185.06
5042,130,181.28
5043,140,176.82
5044,70,171.58
5045,96,165.06
5046,67,157.4
5047,36,148.62
5048,50,138.61
5049,91,128.33
5050,72,118.8
5051,72,110.17
5052,81,102.43
5053,92,95.85
5054,59,90.36
5055,74,85.54
5056,142,81.93
5057,165,80.77
5058,878,88.25
5059,1023,114.95
5060,172,156.76
5061,135,195.72
5062,413,225.99
5063,752,255.63
5064,467,289.27
5065,487,323.14
5066,221,351.95
5067,64,370.52
5068,902,382.78
5069,1023,403.17
5070,124,430.54
5071,282,449.98
5072,733,461.74
5073,1023,478.21
5074,648,503.07
5075,748,530.6
5076,247,553.75
5077,110,564.38
5078,1023,566.19
5079,1023,574.98
5080,1023,596.28
5081,1023,626.35
5082,1023,662.15
5083,34,693.11
5084,133,704.11
5085,815,698.58
5086,676,691.48
5087,1023,689.51
5088,744,693.79
5089,263,697.04
5090,420,690.62
5091,955,680.01
5092,374,671.79
5093,1023,665.85
5094,618,664.36
5095,534,664.34
5096,52,656.87
5097,229,636.87
5098,1023,613.36
5099,127,595.03
5100,812,578.7
5101,1023,569.99
5102,568,572.64
5103,128,574.63
5104,234,566.07
5105,76,546.6
5106,313,519.68
5107,330,490.67
5108,305,463.01
5109,834,441.32
5110,620,431.5
5111,151,428.07
5112,460,422.76
5113,482,417.6
5114,409,414.99
5115,967,417.94
5116,96,426.4
5117,400,431.66
5118,120,429.89
5119,247,421.76
5120,629,411.95
5121,320,405.91
5122,104,399.27
5123,184,387.04
5124,378,372.03
5125,132,357.22
5126,311,342.06
5127,658,330.87
5128,405,328.1
5129,217,329.03
5130,604,330.77
5131,106,333.78
5132,1023,340.16
5133,75,352.06
5134,138,360.33
5135,357,360.67
5136,320,358.74
5137,303,356.17
5138,970,358.04
5139,510,370.23
5140,587,388.44
5141,77,404.0
5142,93,409.5
5143,470,406.35
5144,240,401.09
5145,154,393.01
5146,455,382.24
5147,66,370.8
5148,111,355.7
5149,168,336.32
5150,242,316.22
5151,395,299.15
5152,120,285.77
5153,1023,279.76
5154,634,288.91
5155,258,307.24
5156,249,322.58
5157,168,331.28
5158,55,332.32
5159,292,326.89
5160,194,318.9
5161,116,308.9
5162,350,297.56
5163,158,287.16
5164,292,277.69
5165,232,269.36
5166,130,261.46
5167,128,251.98
5168,161,241.02
5169,55,228.92
5170,663,219.86
5171,380,220.12
5172,796,231.22
5173,320,250.79
5174,81,269.89
5175,90,280.31
5176,438,284.83
5177,198,288.47
5178,266,290.81
5179,286,291.39
5180,71,289.76
5181,56,283.02
5182,159,271.46
5183,201,258.49
5184,699,250.44
5185,1023,257.48
5186,247,278.83
5187,409,301.69
5188,251,319.99
5189,290,333.28
5190,50,339.73
5191,168,338.16
5192,380,332.17
5193,466,328.13
5194,734,331.02
5195,1023,346.49
5196,626,374.69
5197,61,402.98
5198,114,418.46
5199,34,419.21
5200,126,408.68
5201,82,390.37
5202,215,367.81
5203,42,343.17
5204,404,318.93
5205,234,298.91
5206,190,282.57
5207,71,266.5
5208,361,251.23
5209,73,238.48
5210,378,228.2
5211,843,226.54
5212,349,237.56
5213,153,252.01
5214,281,262.43
5215,156,268.92
5216,122,270.93
5217,446,270.53
5218,684,275.25
5219,113,285.56
5220,42,291.87
5221,108,289.67
5222,64,281.19
5223,151,268.69
5224,40,253.75
5225,174,237.4
5226,254,222.44
5227,203,211.01
5228,463,204.58
5229,150,203.41
5230,164,203.45
5231,144,201.92
5232,199,199.48
5233,239,197.48
5234,79,195.69
5235,61,191.68
5236,155,185.29
5237,332,180.12
5238,168,178.34
5239,200,178.24
5240,190,178.53
5241,210,179.37
5242,135,180.23
5243,190,180.47
5244,135,180.07
5245,171,179.04
5246,103,177.15
5247,137,174.13
5248,88,169.94
5249,76,164.39
5250,71,157.34
5251,46,149.0
5252,90,139.87
5253,42,130.55
5254,41,120.94
5255,56,111.16
5256,80,101.98
5257,53,93.87
5258,92,86.89
5259,86,81.38
5260,125,77.69
5261,96,75.87
5262,145,75.77
5263,82,77.03
5264,107,78.87
5265,142,81.26
5266,252,85.67
5267,116,92.43
5268,83,99.18
5269,145,104.57
5270,218,110.08
5271,135,116.52
5272,219,123.38
5273,133,130.33
5274,244,137.31
5275,236,145.14
5276,165,153.54
5277,234,161.44
5278,199,168.98
5279,214,176.11
5280,233,182.8
5281,57,187.94
5282,192,190.13
5283,215,190.95
5284,157,191.7
5285,188,191.86
5286,248,192.09
5287,161,192.89
5288,209,193.56
5289,122,193.47
5290,119,191.76
5291,89,187.86
5292,178,182.64
5293,38,176.66
5294,71,168.99
5295,36,159.41
5296,94,148.86
5297,79,138.45
5298,89,128.79
5299,40,119.65
5300,34,110.45
5301,109,101.62
5302,181,95.1
5303,67,91.42
5304,161,89.5
5305,210,90.01
5306,101,93.0
5307,139,96.74
5308,113,100.44
5309,232,104.85
5310,144,110.67
5311,282,118.03
5312,242,127.52
5313,239,138.77
5314,205,150.35
5315,149,160.76
5316,222,169.37
5317,206,176.91
5318,190,183.6
5319,164,188.82
5320,164,192.21
5321,151,193.76
5322,173,193.84
5323,225,193.47
5324,192,193.52
5325,229,194.08
5326,178,194.93
5327,137,195.1
5328,144,193.74
5329,123,190.86
5330,102,186.46
5331,101,180.52
5332,70,173.16
5333,135,164.99
5334,58,156.64
5335,39,147.53
5336,39,137.22
5337,75,126.47
5338,64,116.23
5339,38,106.61
5340,81,97.61
5341,75,89.81
5342,180,84.29
5343,66,81.41
5344,115,80.05
5345,84,79.49
5346,106,79.65
5347,106,80.44
5348,140,82.16
5349,166,85.28
5350,134,89.8
5351,148,95.06
5352,152,100.7
5353,143,106.56
5354,174,112.54
5355,115,118.35
5356,189,123.76
5357,98,128.65
5358,181,132.8
5359,135,136.48
5360,178,139.96
5361,139,143.18
5362,239,146.62
5363,159,150.79
5364,145,154.76
5365,215,158.16
5366,164,161.61
5367,181,164.87
5368,202,167.91
5369,173,170.92
5370,139,173.25
5371,172,174.44
5372,202,175.25
5373,124,175.86
5374,138,175.39
5375,105,173.42
5376,113,170.02
5377,33,164.86
5378,56,157.49
5379,120,148.9
5380,150,141.14
5381,80,134.71
5382,49,128.35
5383,66,121.32
5384,55,113.93
5385,85,106.72
5386,143,100.75
5387,80,96.59
5388,56,93.2
5389,140,90.29
5390,38,88.17
5391,104,86.29
5392,164,85.39
5393,92,86.18
5394,97,87.59
5395,152,89.39
5396,171,92.5
5397,178,97.32
5398,182,103.59
5399,164,110.74
5400,190,118.27
5401,141,125.73
5402,218,132.94
5403,174,140.22
5404,198,147.41
5405,244,154.71
5406,138,161.94
5407,177,167.85
5408,185,172.39
5409,234,176.6
5410,174,180.78
5411,102,183.64
5412,152,184.16
5413,159,183.16
5414,117,181.22
5415,105,177.9
5416,123,173.23
5417,72,167.48
5418,66,160.36
5419,54,151.83
5420,33,142.08
5421,62,131.49
5422,43,120.79
5423,39,110.23
5424,46,99.95
5425,77,90.57
5426,74,82.71
5427,72,76.44
5428,112,71.86
5429,104,69.29
5430,150,68.89
5431,156,70.9
5432,127,74.92
5433,188,80.4
5434,172,87.44
5435,127,95.33
5436,163,103.02
5437,143,110.37
5438,192,117.6
5439,206,125.25
5440,158,133.19
5441,64,139.67
5442,269,144.58
5443,192,150.07
5444,396,157.89
5445,213,168.44
5446,1023,186.0
5447,1023,220.05
5448,1023,272.09
5449,1023,336.09
5450,76,399.5
5451,1023,452.69
5452,1023,504.06
5453,411,555.07
5454,1023,599.19
5455,568,637.91
5456,1023,672.53
5457,1023,706.61
5458,556,739.06
5459,619,762.15
5460,226,771.38
5461,750,768.14
5462,1023,763.03
5463,113,757.98
5464,728,745.55
5465,108,725.48
5466,962,702.1
5467,251,680.01
5468,1023,661.29
5469,1023,652.49
5470,1023,657.83
5471,568,670.08
5472,210,676.86
5473,724,673.94
5474,344,666.08
5475,932,657.48
5476,607,652.44
5477,319,647.41
5478,1023,640.97
5479,296,636.86
5480,544,630.56
5481,300,618.97
5482,86,599.99
5483,80,570.48
5484,163,532.81
5485,391,493.27
5486,918,462.25
5487,131,442.75
5488,59,423.56
5489,47,397.6
5490,253,368.22
5491,357,341.27
5492,323,320.12
5493,286,304.09
5494,254,291.33
5495,181,280.06
5496,108,268.25
5497,186,255.28
5498,136,242.09
5499,453,231.59
5500,122,225.51
5501,84,219.9
5502,690,216.45
5503,217,220.46
5504,39,225.8
5505,65,225.47
5506,36,219.56
5507,332,211.73
5508,318,207.16
5509,425,208.26
5510,184,213.32
5511,558,221.21
5512,99,231.4
5513,118,238.74
5514,226,241.13
5515,90,240.47
5516,161,236.77
5517,122,230.6
5518,395,224.9
5519,112,221.57
5520,184,218.36
5521,99,213.52
5522,478,209.88
5523,466,212.65
5524,446,222.95
5525,484,238.5
5526,204,255.74
5527,42,268.15
5528,575,275.9
5529,74,283.13
5530,72,285.88
5531,194,282.02
5532,157,274.94
5533,109,265.61
5534,565,257.52
5535,133,254.12
5536,135,251.13
5537,150,245.19
5538,565,240.82
5539,294,242.49
5540,131,246.32
5541,158,247.03
5542,345,245.98
5543,42,244.41
5544,298,241.18
5545,642,241.28
5546,506,250.48
5547,511,266.94
5548,408,286.55
5549,175,304.38
5550,124,315.24
5551,398,319.93
5552,147,321.78
5553,108,319.23
5554,838,316.66
5555,64,319.42
5556,198,320.6
5557,75,315.42
5558,194,305.62
5559,160,293.26
5560,112,279.41
5561,300,265.32
5562,57,252.21
5563,166,238.74
5564,788,230.29
5565,425,233.94
5566,523,246.69
5567,97,261.12
5568,625,274.53
5569,733,292.73
5570,81,314.73
5571,286,330.85
5572,298,340.12
5573,287,345.62
5574,353,348.53
5575,297,349.9
5576,367,350.25
5577,361,350.45
5578,94,348.82
5579,479,344.58
5580,244,340.69
5581,229,336.36
5582,408,331.16
5583,437,328.47
5584,145,327.35
5585,324,324.38
5586,647,323.29
5587,765,331.28
5588,497,348.33
5589,494,368.33
5590,493,387.66
5591,486,405.76
5592,459,421.99
5593,708,437.8
5594,546,455.3
5595,561,473.02
5596,713,490.49
5597,520,508.23
5598,636,524.64
5599,1023,542.97
5600,819,567.73
5601,617,594.77
5602,987,620.73
5603,607,646.32
5604,565,667.28
5605,521,679.92
5606,915,687.94
5607,705,696.52
5608,471,703.14
5609,810,705.28
5610,805,707.52
5611,545,710.32
5612,362,707.71
5613,403,696.3
5614,384,677.49
5615,336,653.38
5616,323,624.98
5617,610,595.98
5618,387,570.2
5619,316,545.83
5620,270,520.0
5621,238,492.31
5622,304,463.75
5623,391,436.98
5624,255,413.27
5625,291,391.47
5626,371,371.94
5627,420,356.78
5628,339,346.23
5629,248,337.88
5630,212,329.04
5631,158,318.36
5632,215,305.91
5633,191,292.82
5634,320,280.78
5635,395,272.45
5636,664,271.71
5637,675,281.76
5638,626,301.75
5639,623,327.89
5640,577,357.05
5641,681,387.63
5642,612,419.05
5643,600,449.71
5644,323,475.81
5645,428,493.8
5646,491,505.02
5647,480,512.5
5648,531,517.65
5649,406,520.56
5650,486,520.72
5651,401,518.36
5652,429,513.65
5653,501,507.66
5654,256,500.28
5655,398,489.83
5656,361,477.42
5657,303,464.01
5658,266,448.7
5659,320,431.83
5660,295,414.7
5661,420,398.97
5662,339,386.01
5663,349,375.34
5664,357,366.35
5665,382,359.33
5666,249,353.43
5667,248,346.62
5668,656,341.56
5669,654,344.59
5670,418,355.07
5671,406,366.93
5672,413,377.38
5673,395,386.3
5674,434,393.84
5675,392,400.23
5676,403,405.26
5677,432,409.17
5678,594,413.98
5679,608,422.31
5680,438,433.22
5681,465,443.29
5682,373,450.69
5683,339,454.27
5684,284,453.07
5685,324,447.43
5686,360,439.08
5687,329,429.6
5688,582,421.42
5689,379,416.69
5690,320,413.04
5691,374,408.16
5692,419,403.25
5693,273,398.48
5694,526,394.0
5695,477,392.43
5696,402,393.78
5697,249,394.43
5698,286,391.74
5699,297,386.05
5700,310,378.84
5701,223,370.29
5702,295,360.27
5703,499,351.58
5704,434,347.57
5705,446,347.94
5706,332,350.39
5707,462,353.64
5708,380,357.93
5709,416,362.87
5710,311,367.22
5711,292,369.4
5712,291,368.68
5713,317,365.84
5714,396,362.52
5715,484,361.14
5716,546,363.88
5717,503,371.05
5718,501,381.13
5719,546,393.08
5720,526,406.63
5721,532,421.04
5722,474,435.11
5723,489,447.69
5724,457,458.23
5725,439,466.34
5726,490,472.19
5727,418,476.22
5728,563,479.16
5729,646,483.63
5730,710,492.15
5731,568,504.06
5732,535,516.11
5733,513,525.99
5734,415,532.48
5735,404,534.31
5736,372,531.3
5737,426,524.5
5738,397,515.42
5739,336,504.4
5740,355,491.19
5741,352,476.52
5742,323,461.07
5743,331,445.12
5744,374,429.54
5745,378,415.55
5746,457,404.28
5747,320,395.65
5748,389,388.3
5749,586,383.76
5750,718,386.35
5751,676,397.66
5752,299,412.66
5753,265,423.18
5754,268,426.35
5755,302,423.87
5756,361,418.24
5757,412,412.01
5758,441,407.09
5759,458,404.34
5760,524,404.38
5761,549,407.96
5762,484,414.58
5763,554,422.97
5764,450,432.21
5765,474,440.87
5766,398,447.72
5767,358,451.62
5768,367,451.94
5769,448,450.01
5770,516,448.37
5771,558,449.1
5772,519,452.55
5773,556,457.96
5774,488,464.41
5775,428,470.16
5776,406,473.48
5777,377,473.76
5778,402,471.26
5779,365,466.59
5780,334,459.79
5781,298,450.48
5782,328,438.97
5783,251,425.72
5784,229,410.4
5785,261,393.27
5786,337,376.27
5787,312,361.23
5788,340,348.6
5789,249,337.74
5790,321,327.9
5791,242,318.96
5792,294,310.7
5793,555,305.58
5794,357,306.05
5795,180,308.23
5796,206,307.38
5797,198,303.15
5798,237,296.89
5799,270,290.13
5800,295,284.26
5801,329,280.21
5802,351,278.61
5803,357,279.62
5804,532,284.28
5805,369,293.14
5806,336,303.4
5807,347,312.64
5808,309,320.4
5809,243,325.71
5810,308,328.13
5811,692,331.92
5812,588,342.54
5813,912,362.12
5814,790,391.32
5815,796,427.53
5816,839,467.4
5817,696,508.35
5818,444,544.77
5819,451,571.33
5820,472,587.78
5821,481,596.44
5822,372,598.34
5823,363,593.16
5824,274,581.07
5825,290,562.74
5826,307,539.93
5827,311,514.88
5828,348,489.43
5829,391,465.49
5830,363,444.26
5831,386,425.86
5832,281,409.51
5833,513,395.61
5834,929,390.34
5835,1023,401.17
5836,490,424.55
5837,648,450.09
5838,251,471.48
5839,646,487.03
5840,510,499.74
5841,348,509.54
5842,862,517.25
5843,608,528.09
5844,1023,544.38
5845,416,564.05
5846,384,578.89
5847,1023,589.32
5848,587,602.64
5849,394,614.25
5850,676,619.81
5851,246,620.08
5852,1023,617.94
5853,1023,623.16
5854,866,638.89
5855,902,659.8
5856,1023,684.3
5857,403,707.95
5858,622,722.87
5859,548,728.56
5860,712,728.95
5861,537,725.95
5862,607,719.52
5863,1023,713.78
5864,452,711.44
5865,750,708.29
5866,574,703.4
5867,304,694.69
5868,905,682.43
5869,506,672.2
5870,418,661.54
5871,744,648.87
5872,473,637.45
5873,452,625.44
5874,647,612.41
5875,639,601.95
5876,616,595.07
5877,491,589.68
5878,444,583.01
5879,327,572.81
5880,492,559.35
5881,358,544.47
5882,418,528.65
5883,641,514.33
5884,439,504.1
5885,537,496.62
5886,940,494.71
5887,593,501.63
5888,487,511.82
5889,374,518.7
5890,426,520.56
5891,396,518.24
5892,357,512.44
5893,361,503.3
5894,328,491.38
5895,298,477.0
5896,247,460.06
5897,530,442.94
5898,735,432.1
5899,817,432.71
5900,542,442.77
5901,658,456.84
5902,255,469.87
5903,844,480.88
5904,471,493.26
5905,305,503.64
5906,396,507.21
5907,794,508.79
5908,438,513.14
5909,362,516.28
5910,167,512.7
5911,166,500.32
5912,682,484.24
5913,278,470.94
5914,284,457.85
5915,370,442.88
5916,361,428.34
5917,432,415.73
5918,373,405.59
5919,274,396.48
5920,278,386.41
5921,279,375.18
5922,213,362.96
5923,360,350.5
5924,331,339.89
5925,385,332.19
5926,404,327.76
5927,454,327.1
5928,395,329.84
5929,342,334.1
5930,403,338.52
5931,412,343.57
5932,401,349.48
5933,379,355.57
5934,304,360.54
5935,308,363.13
5936,274,362.98
5937,421,361.45
5938,764,363.82
5939,703,375.38
5940,723,395.49
5941,722,421.27
5942,709,450.58
5943,445,479.27
5944,541,502.94
5945,464,520.8
5946,421,532.83
5947,320,537.91
5948,325,535.55
5949,328,526.86
5950,330,513.77
5951,310,497.64
5952,367,479.88
5953,346,462.05
5954,430,445.55
5955,362,431.24
5956,414,419.06
5957,366,408.81
5958,400,400.27
5959,342,393.01
5960,338,386.26
5961,334,379.55
5962,240,372.22
5963,230,363.03
5964,278,352.18
5965,318,341.43
5966,388,332.71
5967,410,327.49
5968,473,326.52
5969,424,329.63
5970,305,334.53
5971,273,338.0
5972,386,339.72
5973,353,341.35
5974,347,343.18
5975,289,344.28
5976,308,343.95
5977,662,345.25
5978,517,352.49
5979,468,364.11
5980,716,378.77
5981,520,397.29
5982,542,417.15
5983,486,435.7
5984,653,453.28
5985,643,471.76
5986,621,491.3
5987,575,510.2
5988,433,525.93
5989,371,535.55
5990,387,538.15
5991,459,535.67
5992,418,530.37
5993,352,522.48
5994,334,511.31
5995,479,498.35
5996,436,486.32
5997,491,476.31
5998,468,468.53
5999,411,462.31
6000,391,456.2
6001,512,450.58
6002,353,446.01
6003,310,440.45
6004,286,432.14
6005,349,421.75
6006,311,410.65
6007,380,399.82
6008,464,391.04
6009,616,387.28
6010,436,389.2
6011,484,394.03
6012,490,400.29
6013,639,409.14
6014,485,420.9
6015,781,435.64
6016,530,453.63
6017,459,471.28
6018,424,484.63
6019,463,493.42
6020,523,499.29
6021,523,504.05
6022,519,508.26
6023,603,512.53
6024,623,518.21
6025,647,525.98
6026,556,534.89
6027,630,543.71
6028,576,552.2
6029,662,560.57
6030,484,568.1
6031,485,572.56
6032,568,573.78
6033,492,573.23
6034,464,570.56
6035,527,565.81
6036,415,559.5
6037,561,552.09
6038,556,545.51
6039,624,541.44
6040,487,539.35
6041,537,537.57
6042,720,537.29
6043,859,542.63
6044,672,554.34
6045,623,568.21
6046,526,580.16
6047,526,588.29
6048,626,593.28
6049,808,598.81
6050,779,608.11
6051,912,622.08
6052,901,640.98
6053,708,662.34
6054,509,680.04
6055,467,689.25
6056,630,690.7
6057,778,689.7
6058,529,688.59
6059,462,684.03
6060,464,673.9
6061,617,660.58
6062,491,646.74
6063,931,635.74
6064,824,632.51
6065,573,635.11
6066,990,640.5
6067,926,652.07
6068,650,668.04
6069,555,681.09
6070,530,687.51
6071,677,688.63
6072,696,688.08
6073,639,687.29
6074,710,686.17
6075,1023,688.05
6076,1023,697.85
6077,1023,715.89
6078,969,739.17
6079,1014,765.19
6080,1001,792.62
6081,902,819.61
6082,823,843.02
6083,863,861.16
6084,805,874.25
6085,854,882.84
6086,578,885.76
6087,495,879.55
6088,439,862.57
6089,531,837.0
6090,550,806.99
6091,530,775.41
6092,602,744.12
6093,542,714.59
6094,562,687.13
6095,558,661.95
6096,410,638.19
6097,619,615.58
6098,617,596.75
6099,612,583.05
6100,519,572.84
6101,880,567.01
6102,614,567.63
6103,622,571.84
6104,688,577.15
6105,792,585.11
6106,798,597.11
6107,870,613.32
6108,840,633.19
6109,846,655.32
6110,859,678.44
6111,879,701.99
6112,882,725.54
6113,996,749.5
6114,864,773.76
6115,835,796.01
6116,884,814.85
6117,881,831.04
6118,861,844.85
6119,810,855.65
6120,877,863.35
6121,874,869.1
6122,852,873.48
6123,771,875.63
6124,779,874.61
6125,880,871.47
6126,706,867.12
6127,675,859.74
6128,558,847.41
6129,600,829.9
6130,442,807.49
6131,407,779.48
6132,368,746.03
6133,592,710.4
6134,507,676.89
6135,521,646.65
6136,614,620.17
6137,549,598.51
6138,407,579.78
6139,444,561.33
6140,503,543.65
6141,768,530.56
6142,688,525.5
6143,660,527.35
6144,770,534.2
6145,845,546.81
6146,947,566.38
6147,847,592.02
6148,1023,622.08
6149,992,656.36
6150,1023,693.86
6151,993,732.65
6152,926,770.37
6153,918,804.63
6154,1015,835.27
6155,989,863.46
6156,1023,889.52
6157,1023,913.44
6158,1000,935.03
6159,958,953.44
6160,820,966.84
6161,772,972.96
6162,880,972.36
6163,774,967.15
6164,746,957.53
6165,653,942.73
6166,814,924.11
6167,648,903.7
6168,702,881.62
6169,581,857.53
6170,433,829.89
6171,407,796.95
6172,298,758.51
6173,260,714.83
6174,182,666.42
6175,350,615.76
6176,383,567.44
6177,452,524.93
6178,442,489.53
6179,585,462.25
6180,486,443.51
6181,699,433.15
6182,633,431.64
6183,729,438.36
6184,870,453.3
6185,770,476.33
6186,864,504.99
6187,786,537.1
6188,1003,572.04
6189,1023,611.05
6190,833,652.56
6191,903,692.14
6192,1023,729.56
6193,973,766.22
6194,935,800.97
6195,919,831.98
6196,895,858.36
6197,1023,880.89
6198,843,900.17
6199,921,915.09
6200,862,925.53
6201,842,931.74
6202,880,934.03
6203,515,930.75
6204,592,918.33
6205,806,899.35
6206,684,879.13
6207,843,859.66
6208,731,842.09
6209,606,824.99
6210,502,804.99
6211,347,779.52
6212,188,746.02
6213,237,704.06
6214,188,656.08
6215,257,605.24
6216,228,554.38
6217,296,505.82
6218,324,461.68
6219,195,422.3
6220,518,388.59
6221,610,365.24
6222,565,354.32
6223,381,351.72
