Column2    Column3
95    116.28
148    118.22
415    122.41
38    129.87
36    135.6
190    137.99
134    139.79
36    140.64
93    139.14
114    136.21
391    135.33
273    139.77
382    149.31
321    162.77
454    179.8
271    199.13
90    216.2
341    228.62
36    237.22
628    244.52
56    253.09
68    257.95
127    255.87
197    250.17
375    244.98
78    241.39
603    240.02
576    246.31
369    260.46
75    274.05
97    280.51
292    280.86
439    281.11
96    282.45
58    279.89
345    273.36
408    268.89
60    266.67
115    261.52
438    255.01
65    250.34
251    245.3
377    241.16
528    242.64
59    248.02
61    249.79
720    250.34
714    260.65
573    282.21
478    308.47
309    333.38
278    352.68
124    363.93
39    365.26
639    361.23
712    362.91
470    372.98
316    384.54
467    393.59
314    400.41
556    405.99
199    410.26
586    412.67
987    420.26
210    434.87
217    445.06
70    444.15
691    437.5
672    435.47
638    441.48
225    449.37
171    450.99
1023    450.47
312    455.97
124    459.73
89    452.89
150    436.55
207    414.73
564    393.79
92    376.64
245    359.4
240    341.26
566    326.83
617    321.4
201    323.07
234    324.01
302    322.07
723    322.8
857    334.04
340    354.31
65    371.26
304    378.34
102    377.74
219    370.93
457    361.79
331    354.96
162    348.63
59    338.26
43    321.98
606    305.21
733    298.71
45    301.3
512    304.33
727    311.34
564    327.18
306    346.18
335    361.68
118    370.61
297    372.41
59    367.95
155    357.14
34    340.56
781    325.01
126    316.59
214    310.02
201    301.05
80    290.08
275    277.46
487    267.91
65    262.61
208    256.74
261    249.96
194    244.17
204    238.76
239    233.71
571    232.44
488    239.11
368    252.01
51    264
64    268.91
117    266.29
126    259.07
205    249.82
150    240.22
184    230.7
650    225.45
34    226.48
468    229.53
56    232.74
383    235.44
226    238.36
155    240.88
66    239.87
415    237.01
706    240.14
266    251.78
436    266.07
257    279.64
318    291.2
419    301.2
660    313.79
157    328.61
124    338.16
296    340.13
391    339.57
324    339.5
196    338.44
173    333.87
298    326.34
202    317.87
242    308.75
488    301.31
43    296.09
402    290.43
633    288.71
608    296.51
222    309.65
410    321.47
150    329.71
248    333.05
57    330.48
696    326.37
212    326.15
300    326.91
69    324
791    321.24
96    322.9
341    324.42
546    325.79
145    329.09
404    330.98
117    330.34
78    324.95
54    312.92
798    301.57
108    297.43
126    293.87
496    288.56
64    284.73
291    280
127    273.57
274    266.43
305    260.3
99    255.16
89    247.73
69    236.83
451    226.34
595    223.7
197    229.38
56    234.74
434    237.22
310    241.44
109    246.25
493    250.21
149    255.21
146    258.33
424    259.35
331    262.45
145    266.28
198    267.19
44    263.95
227    257.07
472    251.36
238    250.28
87    249.74
217    246.32
87    240.66
304    234.17
486    231.21
268    234
454    240.51
515    251.39
340    266.33
53    279.19
266    285.69
73    286.7
153    282.75
74    274.21
184    262.73
94    249.79
445    238.46
123    231.07
258    225.63
46    219.73
106    211.78
210    202.65
94    194.15
195    186.18
54    178.43
192    170.75
94    163.67
428    159.52
262    161.02
42    165
412    168.83
115    174.24
54    178.35
217    179.26
119    179.06
429    180.27
270    185.47
61    191.78
381    196.63
40    200.95
305    203.93
223    206.67
71    208.72
85    207.15
40    201.51
169    193.37
167    185.32
173    178.65
96    172.71
144    166.71
57    160.3
395    155.51
104    154.54
158    154.97
34    153.94
196    151.58
209    150.02
73    149.54
56    147.65
308    145.41
88    145.16
251    146.22
99    147.87
78    148.61
91    147.16
676    148.86
73    157.66
79    166.56
243    171.79
334    177.49
117    184.42
283    190.62
134    195.79
112    198.74
553    201.94
318    210.29
571    224.19
64    239.87
115    250.63
32    253.33
221    250.4
52    244.29
196    235.94
42    225.85
180    214.57
505    206.37
661    208.49
304    220.64
353    235.9
74    248.68
351    257.24
442    265.31
103    273.7
78    277.11
630    277.92
34    280.66
249    281.32
629    282.11
64    286.3
38    286.66
423    282.18
366    279.76
203    279.87
73    277.73
176    271.34
117    262.06
202    251.45
50    239.83
459    229.36
111    222.7
266    218.08
393    215.9
454    219.48
181    227.12
118    233.15
325    236.2
75    237.69
298    237.38
280    237.15
76    236.86
430    235.94
130    236.24
640    239.59
252    247.88
42    255.78
285    258.53
166    258.55
101    256
427    252.19
199    250.47
735    253.68
257    263.54
37    272.93
276    276.15
347    277.23
203    278.57
43    277.01
36    269.44
470    259.65
127    252.72
213    246.84
182    240.31
56    232.66
198    223.27
97    213.32
475    205.85
254    204.04
299    206.47
192    210.1
71    212.15
385    212.67
36    213.28
127    211.54
230    207.57
37    202.87
72    195.75
252    187.49
112    180.69
409    176.83
68    176.25
244    176.5
438    179.01
312    186.75
228    197.07
371    207.77
77    217.68
99    223.24
224    224.27
614    227.2
72    234.44
125    239.51
171    239.59
608    240.6
52    245.27
191    248.19
97    246.66
756    246.75
339    254.63
89    264.74
629    273.14
292    283.98
496    296.89
55    307.96
79    311.92
276    308.78
169    302.86
197    295.09
48    284.55
318    272.24
236    261.49
170    252.6
116    243.25
133    232.56
301    222.41
496    217.46
307    219.63
159    224.45
127    226.94
551    229.3
349    236.51
888    251.68
176    273.76
34    292.03
141    299.6
74    298.79
126    291.82
93    280.44
381    268.28
105    258.1
65    247.28
199    234.52
173    222.35
108    211.16
207    200.61
53    190.73
186    181.05
197    172.85
137    166.81
118    161.58
33    155.63
115    148.47
218    142.1
46    137.48
44    132.36
340    128.02
64    126.95
145    126.99
34    126.04
40    123.28
57    118.55
85    113.04
233    108.9
56    107.14
47    105.5
206    103.72
336    105.45
80    111.12
255    117.94
166    125.44
321    134.45
158    144.81
68    153.73
236    159.84
528    167.98
150    180.44
56    191.24
60    195.89
173    195.9
120    193.81
269    191.47
44    189.16
105    185.01
340    180.66
91    178.59
119    176.42
108    172.57
48    167.14
61    159.72
128    151.3
56    143
120    134.96
204    128.5
176    125.13
346    125.81
135    130.39
47    135.03
235    137.95
110    140.78
183    143.54
211    146.57
161    150.34
116    153.6
74    154.88
179    154.42
459    156.29
120    162.54
42    168.03
198    170.03
50    169.99
139    167.99
177    165.1
156    162.81
200    161.36
30    159.78
282    157.79
222    157.78
130    159.59
183    161.19
172    162.6
88    163.38
64    162.02
114    158.39
182    154.32
92    150.84
142    147.42
70    143.64
57    138.85
36    132.47
36    124.65
98    116.32
32    108.33
46    100.42
176    93.56
232    90.41
33    90.54
57    90.58
37    89.15
119    87.2
160    86.42
42    86.92
38    86.76
102    85.61
159    85.21
243    87.52
305    94.15
183    104.57
109    115.44
88    123.95
103    129.56
50    132.42
244    133.93
203    136.74
41    140.06
39    140.66
320    140.12
164    142.01
212    145.84
77    149.43
128    151.32
198    152.15
344    154.89
41    159.49
171    162.65
34    163.17
91    160.94
250    157.8
518    159.31
38    166.05
33    170.87
33    170.12
210    166.53
34    162.34
61    156.62
235    150.35
34    145.28
115    140.09
83    134.4
127    129.02
176    124.89
250    123.61
142    125.26
230    128.66
218    133.73
230    140.53
89    147.37
128    152.14
98    154.43
156    155.05
484    157.75
92    164.56
50    170.23
46    170.97
78    167.74
157    162.74
88    157.55
133    152.26
35    146.45
33    139.17
36    130.21
135    121.11
90    113.46
304    108.97
258    109.8
58    113.98
56    116.95
116    117.74
166    118.21
144    119.53
120    121.32
43    122.21
36    120.88
146    118.07
178    116.2
123    116.08
88    116.37
134    116.33
182    116.89
64    118.09
117    118.63
59    118.09
66    116.28
89    113.4
129    110.55
156    108.89
41    107.99
114    106.66
85    105.05
50    103.13
91    100.56
176    98.64
366    100.54
46    106.47
219    113.03
237    120.21
100    128.23
54    134.15
247    138
366    143.86
373    154.67
169    168.28
174    180.37
78    188.56
312    193.88
102    198.17
268    201.36
138    203.56
245    205.02
42    204.93
170    202.24
341    199.49
409    201.17
338    208.06
42    215.72
335    220.66
370    226.05
402    234.81
152    244.63
595    254.72
242    267.02
321    279.09
250    288.42
94    293.59
142    292.69
218    287.31
147    279.78
172    270.5
123    259.64
234    248.23
244    238.25
32    229.03
83    217.74
169    205.05
120    193.11
136    182.17
96    171.88
231    162.99
131    156.53
40    150.84
144    144.49
283    139.92
105    138.52
87    137.65
32    135.05
60    130.4
89    124.57
235    119.92
159    118.31
32    117.99
68    116.28
83    113.23
42    109.47
137    105.52
61    102.14
62    98.86
223    96.46
33    95.89
268    96.87
100    99.89
277    105.01
248    112.83
170    122.77
110    132.03
140    139.1
101    143.95
44    146.1
172    145.93
41    144.54
253    142.9
63    141.97
178    141.17
77    140
195    138.85
61    137.74
36    135.29
59    130.57
90    124.71
43    118.49
179    112.78
190    109.57
222    109.92
151    112.99
49    116.31
54    117.53
276    118.15
123    120.72
48    123.38
177    124.62
200    126.4
74    128.94
60    130
259    130.26
40    131.25
51    130.9
47    127.92
228    124.52
60    122.46
36    120.03
59    115.83
127    111.15
48    106.9
66    102.54
109    98.23
285    96.38
237    99.28
397    107.64
38    119.21
169    129.37
127    136.99
51    142.2
90    144.13
138    143.92
113    142.97
87    141.26
127    138.74
270    137.27
33    137.38
195    137.31
45    136.6
39    134.25
90    129.83
161    125.32
33    121.43
32    116.62
39    110.27
89    103.47
551    101.17
290    108.15
104    119.98
55    129.59
73    135.04
73    137.01
181    137.31
233    138.51
244    142.16
64    146.69
166    149.75
107    151.3
127    151.69
229    151.85
38    152.09
133    150.89
94    148.31
40    144.45
79    138.87
55    132.17
159    125.6
172    120.94
107    118.42
35    116.06
339    114.69
116    116.66
222    120.81
54    125.04
50    127.28
36    126.41
105    123.48
40    119.55
264    116.32
54    115.14
226    115.35
102    116.7
196    119.02
196    122.54
186    127.51
59    132.25
96    134.82
114    135.35
55    134.44
351    134.05
137    136.66
68    139.83
187    141.44
54    142.09
44    140.73
41    136.61
420    133.47
284    136.23
70    142.5
105    146.94
56    148.28
44    146.6
50    142.12
147    136.45
95    131.27
79    126.43
306    123.18
313    124.88
47    130.07
61    133.61
114    134.26
48    133.13
105    130.5
195    127.94
104    126.69
166    126.25
110    126.25
144    126.45
93    126.48
56    125.53
33    122.66
145    118.66
57    114.84
47    110.68
209    106.83
42    104.55
177    103.23
88    102.81
227    103.86
114    106.61
104    109.78
218    113.02
84    116.88
235    121.07
53    125.26
49    127.55
38    126.69
37    123.23
33    117.77
114    111.54
189    106.83
155    105.02
138    105.41
180    107.24
92    109.94
142    112.54
53    114.35
51    114.44
46    112.43
403    111.68
328    117.07
319    128.55
307    143.47
107    158.61
142    170.38
51    177.4
230    180.84
37    182.03
135    180.59
134    177.21
171    173.53
211    170.67
143    168.93
696    171.79
91    181.64
119    191.35
59    195.67
32    194.8
230    190.68
36    185.62
238    180.12
104    175.08
100    169.99
159    164.35
225    159.94
66    156.87
36    152.62
165    146.89
81    141.38
329    137.93
65    137.35
196    137.76
208    138.99
245    142.38
238    147.95
154    154.5
82    159.57
429    164.31
35    170.5
233    175.63
39    178.21
200    178.54
216    178.31
101    178.3
139    177.02
69    173.93
335    170.9
174    170.45
408    173.44
230    179.99
145    187.36
345    193.92
160    200.7
127    205.77
50    206.72
90    203.28
47    196.31
298    188.53
51    182.12
59    175.05
412    168.69
40    165.85
52    162.72
67    156.76
108    149.52
132    142.52
185    137.07
244    134.53
66    134.23
35    132.98
50    129.2
76    123.83
54    117.79
98    111.65
92    106.12
229    102.62
44    101.45
122    100.82
125    100.43
131    100.95
228    103.07
333    108.8
84    117.58
37    124.83
99    128.36
36    129.09
124    127.84
117    126
237    125.33
35    125.84
40    124.95
296    123.55
55    124.05
250    125.73
95    128.21
36    129.79
326    130.78
98    133.68
52    136.2
257    137.43
152    139.75
35    141.81
212    142.3
77    142.4
212    142.54
160    143.4
37    144.01
85    142.39
158    139.49
204    137.67
40    136.73
110    134.77
297    133.43
76    134.4
61    134.92
73    133.14
155    130.39
115    128.11
125    126.35
115    124.8
153    123.69
113    123.17
35    122.13
90    119.59
69    116.08
80    112.13
383    110.46
83    113.14
37    116.27
91    116.9
121    116.34
81    115.49
75    114
180    112.5
83    111.91
151    111.86
154    112.57
95    113.97
52    114.54
364    115.83
86    120.09
115    124.73
43    127.13
32    126.71
43    123.48
212    119.68
167    118.04
46    117.78
35    116.13
129    113.09
235    111.4
350    114.19
264    122.36
55    132.19
111    139.32
136    143.57
82    145.92
39    145.72
189    143.67
177    142.27
147    142.18
113    142.24
188    142.23
53    141.99
220    141.38
43    140.67
115    138.97
403    138.66
38    141.72
61    143.83
222    143.87
65    143.85
60    142.51
522    142.6
146    148.18
73    154.84
37    157.55
37    156
185    152.15
62    148.09
406    145.99
94    147.51
244    150.68
127    153.96
160    156.8
345    160.31
155    165.94
48    170.55
174    171.97
101    171.51
520    172.86
118    178.5
154    184.4
168    187.72
338    190.88
287    196.28
49    201.83
60    203.11
46    199.24
117    192
226    184.36
68    177.72
47    170.21
57    160.74
230    151.47
138    144.82
470    142.96
38    145.99
319    150.57
273    156.88
32    163.87
119    167.58
445    170.77
113    176.77
191    182.59
344    187.91
283    195.3
226    203.81
179    211.09
107    215.39
316    217.44
79    218.57
34    216.46
272    211.23
615    210.06
143    215.71
439    223.9
153    232.4
328    240.04
373    247.66
171    255.53
138    260.14
120    259.82
180    255.66
80    248.73
44    238.49
126    225.32
59    210.85
68    195.52
112    179.96
258    166.73
32    156.6
189    147.95
55    140.32
46    132.76
45    124.24
200    116.44
116    111.27
103    108.07
32    105
222    102.4
262    103.1
139    107.48
155    112.96
111    118.02
229    122.96
245    129.35
172    137.24
186    145.1
46    151.16
38    153.43
124    152.16
187    150.1
55    148.14
551    148.72
237    155.65
211    165.96
40    174.09
94    177.76
117    177.58
102    175.17
77    170.86
128    165.14
48    158.52
104    150.99
83    143.09
80    135.27
112    127.8
76    121.04
93    114.86
115    109.48
136    105.55
216    104.04
172    105.51
186    109.27
235    114.92
61    121.31
40    125.47
31    125.96
51    123.49
249    120.7
162    120.42
134    122.04
55    123.25
140    123.29
62    122.54
177    121.57
281    122.55
251    127.35
60    133.72
50    137.64
124    138.47
94    137.77
113    136.21
55    133.65
107    130.03
163    126.57
272    125.54
197    128.03
218    132.95
33    137.78
61    139.8
33    138.31
83    134.38
140    129.78
56    125.46
31    120.39
32    113.83
94    106.67
45    99.9
32    93.26
59    86.53
34    80.08
46    73.97
38    68.25
170    64.05
192    63.39
130    66.41
283    72.51
357    83.37
39    97.34
84    109.05
117    117.05
124    122.94
249    128.41
70    134.03
39    137.43
124    137.77
102    136.7
136    135.22
107    133.6
41    131.2
241    128.61
382    129.81
309    137.19
102    147.3
97    155.16
167    159.88
126    162.8
68    163.69
61    161.68
571    161.06
150    166.36
76    172.68
213    176.07
170    178.39
162    180.17
450    183.34
241    190.39
173    198.56
127    204.13
407    208.52
337    215.47
185    224.06
34    229.35
58    228.46
217    223.34
35    216.46
110    207.4
360    198.76
68    193
491    190.36
120    191.66
50    192.78
281    191.43
141    190.3
35    188.11
152    183.29
304    178.87
135    176.98
83    175.12
167    171.81
248    169.11
224    168.76
83    169.34
124    168.45
94    165.75
325    163.49
103    163.32
229    164.07
210    165.57
164    167.94
66    169.19
131    168.12
131    165.57
107    162.3
38    157.65
98    151.27
367    146.38
86    145.35
37    144.52
200    142.12
301    141.67
56    143.68
64    144.42
109    142.67
115    139.93
167    137.4
154    135.91
127    135.24
104    134.5
209    133.98
95    134.25
35    133.62
212    131.86
71    130.54
78    128.8
43    125.48
44    120.57
325    116.61
310    117.97
71    123.44
133    128.34
488    134.61
77    144.65
190    154.37
105    161.31
407    167.92
132    176.03
493    185.95
86    197.25
139    205.98
386    212.04
134    218.25
62    221.71
384    222.34
97    223.12
140    222.3
278    219.77
252    218.4
57    217.08
545    216.42
323    220.83
267    228.85
55    234.94
227    236.84
45    235.09
45    229.07
317    220.72
939    220.33
192    232.34
75    245.29
291    252.33
40    255.16
492    256.03
533    261.04
297    271.45
80    280.36
119    282.72
344    280.71
82    277.28
50    270.18
31    257.72
340    243.52
139    231.69
441    223.76
151    219.98
216    217.73
103    214.52
128    209.57
42    202.23
314    194.35
152    188.7
151    184.51
128    180.06
322    176.74
154    175.99
260    176.94
136    178.49
165    179.53
103    179.11
183    177.47
80    174.91
138    171.19
167    167.04
52    162.7
75    156.92
106    149.92
34    142.32
53    133.75
78    124.65
53    115.8
47    107.16
160    99.6
489    97.55
89    102.79
60    109.37
61    113.01
245    115.59
217    120.03
227    126.87
389    136.58
113    148.62
249    159.99
477    172.28
152    187.05
274    200.81
128    211.49
50    217.46
107    217.68
205    214.58
212    211.17
37    207.12
72    200.21
48    190.3
185    179.43
58    169.18
126    159.35
124    150.2
110    142.28
124    135.43
155    129.98
215    126.87
143    126.3
182    127.3
84    128.73
61    128.98
34    126.92
172    123.67
132    121.32
46    119.5
48    116.44
206    113.15
54    111.15
83    109.23
142    107.16
286    107.41
36    110.21
177    113.12
35    115.1
89    115.61
89    114.69
231    114.31
226    116.62
78    120.78
117    124.07
130    126.14
229    128.54
118    131.93
224    135.82
167    140.33
211    145.45
323    152.03
55    159.52
370    166.56
55    173.42
30    177.15
87    175.86
81    171.48
490    168.57
101    170.31
318    174.3
61    178.17
99    179.7
109    178.01
32    173.78
247    168.32
158    164.25
35    160.67
32    154.84
71    146.75
253    139.28
90    134.49
193    131.56
99    129.72
132    128.36
121    127.07
54    125.45
31    122.24
115    117.69
83    113.21
109    109.28
280    107.45
92    108.76
662    115.37
38    128.48
153    141.53
411    153
299    167.13
106    181.53
282    193.04
64    201.49
108    205.6
158    205.59
366    205.32
275    207.92
225    212.41
44    215.17
429    216.3
41    217.8
213    217.74
46    214.79
113    208.97
72    200.52
114    190.57
132    180.31
124    170.71
158    162.22
93    154.81
101    147.75
39    140.29
91    132.23
127    124.63
56    118.04
116    112.07
102    107.05
181    103.81
265    103.9
264    108.5
44    115.28
69    120.12
164    122.72
127    124.97
85    126.71
44    126.67
66    124.47
99    120.99
79    117.18
127    113.6
106    110.75
133    108.81
99    107.62
92    106.66
128    105.8
48    104.92
90    103.4
80    101.38
203    100.22
121    101.02
163    103.29
59    105.77
257    108.6
136    112.98
177    118.39
113    123.56
169    128.13
121    132.09
63    134.67
203    135.92
98    137.06
72    137.3
99    135.79
311    134.95
109    136.66
243    139.8
124    143.49
53    146.06
193    146.71
101    146.82
175    146.76
39    145.93
135    143.71
67    140.41
43    135.86
55    129.67
42    122.32
98    114.67
94    107.81
92    102.16
185    98.29
274    98.16
140    101.95
124    107.03
146    111.77
89    115.84
37    118.11
355    120.21
100    124.79
36    129.02
202    131.09
39    132.29
148    132.39
151    132.11
95    132.03
41    130.78
267    129.19
238    130.38
63    133.6
32    134.93
143    133.75
35    131.37
99    127.82
133    123.93
83    120.59
53    116.98
130    113.02
66    109.41
49    105.63
77    101.27
269    98.5
197    99.79
272    105.13
136    112.91
186    121.09
128    128.56
179    135.11
166    141.01
487    149.04
334    162.27
135    177.56
118    189.29
197    196.68
327    202.74
189    209.21
307    215.57
172    221.32
183    225.29
495    229.38
213    236.31
178    242.84
272    246.72
90    248.27
259    247.15
181    244.68
87    240.6
97    233.34
96    223.28
62    211.22
64    197.47
179    183.58
201    172.1
42    162.82
267    154.95
72    149.18
397    146.5
381    149.85
168    158.3
135    166.51
45    171.28
133    172.25
154    171.17
261    170.49
141    171.06
119    171.32
171    170.42
129    168.98
133    166.97
84    163.89
66    159.21
158    153.51
238    149.22
57    146.71
33    143.17
34    137.09
36    129.12
233    121.6
99    116.81
41    113.19
149    109.44
162    107.09
137    106.79
71    107.21
145    107.49
390    110.31
142    117.55
58    125.2
44    129.41
129    130.65
98    130.6
116    129.9
68    128.38
99    125.9
125    123.1
32    120.05
145    116.55
168    114.07
97    113.17
72    112.33
123    111
444    112.57
174    119.74
170    129.14
150    137.49
43    143.55
177    146.86
181    149.31
43    151.04
122    150.62
78    148.37
39    144.4
111    138.86
236    134.17
38    131.28
317    129.92
42    130.46
139    131.02
144    130.96
99    130.93
283    131.73
477    137.33
188    148.72
132    160.57
228    169.91
37    176.58
360    181.3
217    186.92
80    192.23
94    193.85
78    191.6
211    187.39
226    183.99
290    183.18
80    183.81
176    183.4
229    182.5
167    182.39
191    182.51
134    182.21
93    180.55
45    176.38
181    170.44
219    165.46
38    161.62
44    156.21
43    148.38
87    139.36
49    130.12
98    121.15
113    113.28
65    106.77
64    100.84
98    95.4
36    90.57
32    85.58
217    81.58
53    80.09
72    79.56
48    78.56
46    76.98
68    74.97
156    73.75
44    73.87
68    74.09
61    73.81
87    73.45
39    73.01
206    73.32
382    77.99
116    87.82
44    97.81
82    104.56
62    108.49
212    111.35
170    115.24
57    119.42
131    122.09
252    124.79
54    128.4
292    132.27
35    136.39
97    138.83
49    138.43
142    136.35
127    134.08
52    131.63
136    128.47
330    127.2
218    130.35
204    136.39
188    143.17
165    149.74
64    154.6
34    155.93
38    153.25
279    149.39
190    147.99
39    147.78
127    146.02
39    142.63
79    137.72
60    131.6
154    125.52
154    121.06
240    119.43
113    120.37
96    121.75
52    121.74
47    119.79
42    115.93
88    111
57    105.87
141    101.31
131    98.36
175    97.62
187    99.31
44    102.19
146    104.49
42    105.91
72    106.01
171    105.53
493    109.11
178    119.14
42    130.15
224    138.25
32    144.17
212    148.06
82    150.58
201    152.29
50    152.99
202    152.63
89    151.81
94    150.11
40    146.51
76    141.02
50    134.23
168    127.49
65    121.87
99    116.86
56    111.83
152    107.32
73    103.91
178    101.8
106    101.23
206    102.36
70    104.67
40    106.16
61    105.56
111    103.89
84    102.23
54    100.34
83    97.88
72    95.19
140    93.04
188    92.75
93    94.48
66    96.29
76    96.99
253    98.2
112    101.57
149    105.93
216    110.89
145    116.97
91    122.65
72    126.23
222    128.57
101    131.18
269    134.54
432    141.43
66    151.82
264    161.52
376    171.55
79    182.52
39    189.59
52    190.52
73    186.75
58    179.89
124    171.37
42    162.13
204    153.18
127    146.07
223    141.44
184    139.47
48    138.62
32    136.01
194    132.08
130    129.26
70    127.17
160    124.93
178    123.79
148    124.3
80    125.15
158    125.51
33    125.2
103    123.55
34    120.49
80    116.29
53    111.31
111    106.32
130    102.35
90    99.76
190    98.6
168    99.7
49    101.96
162    103.85
74    105.55
111    106.83
241    108.7
176    112.84
185    118.65
173    125.07
165    131.54
160    137.59
113    142.58
234    146.79
82    150.61
286    154.18
162    158.52
122    162.62
110    164.66
74    164.23
157    161.93
158    159.36
56    156.52
228    153.31
253    152.1
312    154.73
62    159.33
257    163.3
41    166.02
73    166.05
139    163.29
78    159.37
53    154.03
309    148.96
45    146.07
89    143.09
41    138.31
64    132.09
82    125.1
46    117.94
123    111.06
254    106.65
124    105.95
136    107.16
76    108.43
37    108.52
86    106.97
42    104.36
184    101.85
35    100.25
182    99.31
104    99.46
126    100.53
66    101.51
136    102.16
44    102.43
203    102.79
145    104.55
121    107.48
177    110.8
100    114.41
129    117.55
90    119.76
74    120.67
55    119.82
127    117.8
48    115.33
37    111.81
116    107.43
178    104.24
314    104.81
133    109.48
385    117.3
47    127.17
284    136.75
130    145.66
150    153.36
790    164.15
38    181.4
219    197.46
192    208.71
174    216.8
153    221.55
42    222.21
155    218.69
387    214.9
53    213.02
260    210.78
183    208.36
67    205.38
118    199.96
158    193.08
43    185.44
131    176.65
78    167.32
168    158.47
129    150.99
143    145.01
205    140.78
117    138.42
40    136.02
112    132.27
196    128.86
174    127.57
44    127.23
238    126.89
122    127.74
72    128.73
167    128.82
135    129.09
52    129.08
106    127.68
64    125.12
175    122.43
165    121.1
153    121.5
68    122.23
43    121.52
153    119.51
295    119.34
33    121.63
56    122.82
104    121.73
127    120.13
42    118.25
188    116.22
326    116.94
101    121.33
82    125.69
65    127.6
121    127.62
54    126.41
126    124.26
60    121.56
541    121.95
46    127.93
114    134.4
152    138.42
88    141.1
44    141.57
200    140.39
252    140.58
160    143.19
34    145.45
55    144.75
31    140.92
72    134.94
88    128.13
177    122.24
34    117.64
232    114.19
131    112.98
76    113.01
127    112.7
237    113.4
38    115.45
86    116.49
76    115.82
45    113.85
32    110.25
59    105.29
134    100.39
32    96.31
75    92.28
118    88.66
127    86.58
36    85.49
302    85.96
39    89.05
139    92.72
55    95.52
140    97.72
43    99.28
284    101.39
92    105.42
76    109.49
70    111.58
77    111.93
142    111.52
84    111.21
221    111.67
263    114.81
272    121.74
258    131.73
262    143.6
265    156.48
130    168.71
93    177.55
420    184.51
240    193.34
256    203.18
152    211.42
139    216.51
43    217.19
176    213.91
151    208.89
48    202.55
107    194.02
277    185.6
63    179.03
32    171.75
124    162.65
184    154.2
36    147.04
120    139.87
172    133.5
180    129.55
83    127.32
36    124.59
94    120.49
137    116.38
33    112.73
110    108.82
109    105.25
134    102.87
151    102
146    102.75
127    104.62
271    108.09
84    113.34
35    117.5
56    118.55
116    117.63
82    116.12
40    113.79
116    110.58
39    107.06
86    103.18
32    98.84
68    94.1
95    89.56
80    85.95
269    84.65
111    86.83
84    90.34
43    92.7
39    93.17
196    93.08
49    93.88
78    94.46
203    95.15
142    97.68
34    100.67
38    101.69
128    101.1
32    100.01
296    99.9
254    103.7
43    110.11
74    114.78
71    116.74
75    116.8
57    115.31
88    112.67
46    109.27
43    104.94
329    101.98
94    102.89
33    104.7
188    105.51
146    107.21
44    109.27
54    109.62
133    108.64
82    107.63
108    106.65
207    106.55
135    108.35
243    112.05
193    117.84
302    125.98
103    135.4
350    145.16
335    157.12
48    169.8
288    179.79
210    188.33
193    196.03
131    201.44
222    204.51
90    205.61
40    203.35
261    198.51
109    193.82
383    190.96
330    192.36
41    195.98
68    196.26
32    191.78
39    183.52
173    173.56
165    164.8
110    157.76
122    151.38
37    144.78
130    137.7
122    131.24
32    125.34
249    120.32
68    117.43
274    116.77
361    120.41
118    128.34
609    139.99
172    156.57
126    172.88
76    183.74
54    188.73
348    190.72
94    192.89
179    194.08
47    192.73
163    188.99
52    183.45
96    176.21
130    168.01
33    159.46
127    150.39
187    142.44
33    136.1
50    129.3
100    121.81
71    114.76
105    108.48
63    102.96
33    97.56
272    93.53
62    92.61
103    92.96
88    93.1
35    92.73
41    91.05
98    88.56
78    86.34
33    84.18
78    81.6
271    80.72
82    83.13
34    86.07
239    88.68
66    92.48
134    96.47
186    100.6
54    105.02
73    107.96
115    109.25
127    110.18
116    111.24
44    111.71
188    111.62
52    111.76
154    111.85
54    111.65
42    110.34
117    107.82
401    107.9
52    112.33
154    117.42
130    121.46
158    125.24
151    128.89
229    133.09
225    138.73
120    145.01
114    149.79
95    152.16
56    151.95
98    149.33
70    145.09
47    139.47
124    132.99
68    126.68
39    120.19
258    114.61
100    111.97
113    110.96
70    109.8
140    108.54
156    108.16
155    109.3
263    112.53
65    117.4
127    121.52
296    125.71
239    132.6
306    142.31
154    153.25
192    163.15
446    173.38
342    187.16
344    203.53
162    219.08
334    231.95
145    242.13
115    248.02
108    248.36
91    243.98
70    235.64
168    224.88
309    215.18
208    208.87
82    203.84
136    197.5
57    189.6
160    180.75
289    173.55
199    170.04
291    169.78
92    171.16
207    172.19
138    172.61
202    172.88
75    172.48
99    170.24
61    165.72
44    159.03
57    150.44
41    140.63
193    131.28
36    123.65
37    116.27
127    108.79
58    102.4
78    96.8
143    92.3
68    89.38
86    87.22
218    86.46
175    88.73
170    93.57
138    99.53
213    106.19
288    114.74
56    124.39
67    131.49
96    134.94
97    136.07
473    138.71
144    145.85
171    154.13
36    159.66
125    161.67
192    161.84
40    161.16
35    157.91
77    151.78
97    144.51
220    138.26
77    134
68    129.98
33    124.7
118    118.66
46    112.77
174    107.73
57    104.06
34    100.49
46    95.9
74    90.91
58    86.2
32    81.62
92    77.21
84    73.78
33    71.15
50    68.46
74    65.87
53    63.79
60    62.09
81    60.83
62    60.21
54    59.88
94    59.83
81    60.48
154    62.34
112    65.8
93    70.12
57    74.02
46    76.63
53    77.78
144    78.53
170    80.7
121    84.65
34    88.53
83    90.82
109    92.13
174    93.98
62    96.56
203    99.46
32    102.5
70    104.22
46    103.91
47    102
33    98.63
87    94.48
127    90.96
39    88.41
57    85.72
35    82.41
194    79.82
40    79.02
100    78.87
58    78.62
94    78.39
120    78.64
90    79.72
100    81.21
211    83.77
58    87.7
55    90.95
35    92.12
168    92.4
94    93.38
36    94.28
37    93.54
88    91.54
93    89.53
113    88.23
131    88.03
49    88.46
45    88.14
220    87.95
34    89.16
226    91.36
373    97.07
60    106.64
231    116.34
228    126.05
110    135.82
236    144.41
52    151.41
380    157.67
34    164.19
338    170.21
42    175.37
336    179.76
228    184.92
86    189.98
135    191.99
172    191.56
40    189.23
209    185.04
143    180.73
165    176.92
32    172.38
473    169.02
69    169.48
49    169.68
36    165.98
186    160.25
75    154.6
70    148.58
119    141.87
125    135.67
48    129.92
190    124.66
351    122.93
317    127.43
426    138.19
66    151.94
64    162.53
50    167.31
104    167.68
127    165.66
181    163.11
278    162.1
237    163.97
93    166.93
69    167.76
41    165.14
260    161.12
136    158.48
87    156.35
68    152.72
67    147.34
83    140.77
132    134.15
100    128.39
49    122.91
39    116.68
108    110.04
145    104.66
86    101.1
60    98.15
113    95.32
38    92.69
118    90.17
102    88.37
108    87.62
131    87.86
32    88.44
221    89.4
118    92.03
63    95.27
62    97.12
70    97.46
241    98.15
291    102.34
67    109.44
77    115.36
77    118.54
135    120.08
76    120.79
167    121.1
34    121
57    119.36
36    115.73
74    110.85
219    106.8
157    105.68
32    105.99
280    106.85
178    110.28
127    115.51
384    122.37
56    131.37
165    139.32
90    144.72
341    149.71
54    155.35
39    158.57
35    157.22
99    152.77
33    146.58
65    138.97
79    130.61
35    122.1
58    113.33
70    104.76
72    97.02
120    90.68
66    85.98
99    82.46
157    80.51
56    80.22
61    80.08
71    79.38
101    78.75
36    78.21
184    78.16
139    80
53    82.98
66    85.08
81    86.08
120    86.87
48    87.65
41    87.48
209    87.26
384    91.1
135    100.11
161    110.34
42    118.6
101    123.85
63    126.32
75    126.54
168    125.7
125    125.33
31    124.62
204    123.21
199    123.31
227    126.11
134    130.54
122    134.68
173    137.94
242    141.71
416    148.68
31    158.14
82    164.75
160    167.32
199    168.72
106    169.69
123    169.27
52    166.7
131    162.25
156    157.4
110    153.08
39    148.19
96    141.95
68    135.02
74    127.83
52    120.38
78    112.87
96    105.95
70    100
224    95.96
183    95.45
186    98.26
166    103.08
181    109.08
62    114.9
294    120.47
140    127.21
179    134.34
281    141.73
162    150.09
151    157.73
65    162.72
163    164.84
154    165.52
98    165.28
229    164.44
157    164.24
148    164.37
110    163.7
43    161.2
267    157.83
118    155.78
223    155.05
208    155.73
160    157.69
36    158.63
237    158.01
33    156.81
126    154.27
58    150.11
78    144.67
241    139.52
101    136.44
70    133.82
113    130.35
105    126.73
43    122.83
40    117.74
92    111.78
209    107.13
35    104.53
80    102.07
40    98.79
35    94.66
83    90.01
40    85.49
125    81.62
236    80.29
50    81.93
421    86.66
85    95.38
125    104.75
97    111.99
152    117.69
199    123.09
96    128.44
151    132.75
260    137.06
148    142.55
172    148.01
121    152.35
315    156.62
157    162.16
181    167.69
118    171.63
103    173.28
186    173.04
157    172.37
248    172.34
150    173.24
128    173.79
98    172.65
142    169.97
277    167.75
104    167.12
58    165.61
33    161.12
71    154.06
73    145.68
138    137.45
134    130.63
104    125.34
197    121.61
52    119.29
130    117.14
127    115.27
70    113.78
37    111.42
96    107.96
49    104.06
44    99.65
34    94.44
186    89.82
44    87.04
51    84.73
174    82.82
225    83.74
133    87.87
313    94.7
141    104.17
114    113.76
359    123.29
240    135.25
170    148.16
116    158.84
195    166.66
288    173.66
62    180.11
286    184.85
192    189.16
193    193.31
74    195.48
93    194.31
37    189.5
231    182.91
309    178.51
172    177.64
216    178.27
111    178.76
110    177.77
170    175.32
240    173.35
72    172.09
95    169.43
126    165.04
205    160.81
66    157.26
58    152.65
184    147.16
133    142.73
52    138.8
45    133.58
142    127.58
108    122.41
370    120.4
357    124.77
133    133.93
292    143.99
234    154.7
275    166.24
356    178.89
204    192.4
215    204.39
322    214.65
218    224.24
129    231.46
140    234.44
204    234.08
163    231.97
122    228.12
85    221.77
208    213.78
88    205.53
259    197.79
198    192
246    188.67
390    188.78
110    191.96
77    193.73
138    192.04
56    187.82
60    181.02
33    171.67
35    160.27
90    147.94
84    136.17
62    125.38
34    115.05
124    105.5
35    97.37
39    89.91
104    83.07
35    77.44
89    72.78
155    69.85
218    70.36
150    74.49
202    81.06
186    89.45
171    98.99
206    109
136    118.93
228    128.36
233    138.08
214    148.38
179    158.22
244    167.21
132    175.12
204    181.24
212    186.12
156    190.16
132    192.38
171    192.62
208    192.09
73    190.8
64    187.02
205    181.34
49    175.37
113    168.51
188    161.56
191    156.55
105    153.13
95    149.58
130    145.47
146    141.68
207    139.3
147    138.7
67    138.35
158    137.15
173    136.3
68    135.87
158    134.92
115    133.87
37    132.17
115    129.05
213    126.38
101    125.45
113    124.96
276    125.43
46    127.48
82    128.55
233    128.79
58    129.72
186    130.55
197    132.04
33    133.86
77    133.66
80    131.32
135    128.3
42    125.01
230    122.1
447    123.62
422    133.34
316    149.48
387    168.61
66    187.09
261    201.44
310    213.11
308    224.73
371    236.82
39    247.19
234    252.59
255    254.69
244    256.03
508    258.9
232    264.8
87    269.29
143    268.42
65    262.59
94    252.59
473    242.67
156    236.94
264    233.4
186    230.19
420    228.84
311    231.23
391    237.19
232    244.78
322    252.17
41    257.06
152    256.96
116    252.28
185    245.13
118    236.62
147    227.06
144    216.92
45    206.05
206    194.65
120    184.32
156    175.35
305    168.81
239    166.51
132    166.77
131    166.7
67    164.97
298    162.87
332    164.06
131    168.51
63    171.76
274    172.96
49    173.62
176    172.93
348    172.87
54    174.74
85    174.88
322    173.73
48    173.52
112    172.04
526    171.8
37    175.79
100    178.81
57    177.69
324    175.43
132    174.81
407    176.75
80    180.83
338    185.4
439    192.57
221    203.44
40    212.59
206    216.78
179    218.05
158    217.8
40    214.88
176    209.03
67    201.51
61    192.25
74    181.09
88    169.11
140    157.66
323    149.42
128    145.71
562    147.42
109    154.99
451    165.73
258    178.84
404    194.16
276    210.41
270    225.92
72    237.6
98    242.93
204    242.95
97    239.96
193    234.7
48    227.35
201    218.35
61    208.55
106    197.79
63    185.89
98    173.46
187    161.97
153    153.04
81    145.92
317    140.89
306    140.79
238    145.62
227    152.77
40    159.19
137    162.52
46    162.7
176    160.84
51    157.84
182    154.16
224    151.54
262    151.87
35    153.55
47    152.92
112    149.42
212    145.83
541    147.09
298    156.28
266    169.59
142    182.13
197    191.83
71    197.91
114    199.79
80    197.8
463    195.85
94    196.93
301    199.08
376    202.97
162    209.21
307    215.34
611    224.29
32    236.5
126    244.61
610    250.11
71    257.68
314    263.74
107    266.33
58    264.41
136    257.26
39    246.46
130    233.02
200    219.26
610    210.93
153    210.51
113    211.7
235    210.72
837    214.66
44    226.58
165    237.15
188    242.07
529    246.63
440    255.81
258    268.03
144    277.55
131    281.3
38    278.62
294    271.6
330    265.18
74    260.04
266    253.71
129    246.62
254    239.52
287    233.84
209    230.35
298    228.35
152    227.18
46    224.17
53    217.02
376    208.79
115    203.21
234    199.18
99    195.17
98    190.09
295    184.83
78    181.04
102    176.76
176    171.49
50    165.99
46    159
278    151.93
250    148.53
117    148.38
337    150.11
70    153.56
152    156.31
179    157.82
99    158.79
91    158.17
132    155.9
267    154.15
124    154.24
256    155.56
207    158.36
80    161.44
199    163.15
241    164.98
76    167.17
301    169.05
38    170.8
375    172.69
177    176.36
476    183.21
244    193.65
453    206.83
110    220.38
169    230.38
38    234.46
162    233.21
74    228.22
177    220.95
127    212.75
59    203.56
119    192.89
53    181.34
78    169.1
132    157.06
97    146.35
127    137.12
64    129
110    121.58
44    114.65
46    107.62
246    101.88
219    100.35
32    101.76
98    102.61
66    102.32
100    101.45
49    100.05
530    101.64
32    108.83
50    116.01
199    120.39
42    123.79
59    125.14
64    123.91
180    121.93
41    120.24
208    118.87
314    120.22
43    124.48
39    127.26
52    126.63
118    124.15
40    120.9
33    116.37
75    110.58
32    104.32
112    98.2
40    92.75
62    87.65
42    82.59
94    77.99
42    74.17
119    71.26
40    69.32
89    67.94
37    66.74
70    65.56
67    64.51
138    64.39
199    66.61
31    70.74
32    73.98
165    76.15
106    79.13
214    83.63
78    89.32
34    94.03
42    96.09
140    96.63
160    97.82
254    101.36
32    106.45
220    111.23
43    115.45
47    117.78
232    118.72
184    121.23
84    124.77
144    127.43
243    130.32
121    134.38
287    139.39
44    144.67
124    148.05
147    149.38
84    149.61
204    149.15
46    148.32
73    145.86
293    143.19
174    143.28
163    145.23
137    147.17
164    148.75
93    149.65
42    148.66
324    147.15
193    148.38
38    150.57
145    150.71
66    149.13
130    146.38
123    143.17
245    141.13
108    140.84
110    140.68
177    140.09
85    139.55
271    139.62
120    141.21
52    142.4
70    141.06
186    138.52
248    137.69
56    138.58
119    138.64
63    137.08
49    133.82
192    129.86
68    126.69
41    123.16
65    118.21
30    112.23
262    107.17
210    106.04
174    108.68
409    115.03
89    124.91
175    134.58
85    141.83
134    146.63
33    148.66
156    148.27
157    147.24
225    147.31
160    148.81
127    150.57
31    150.63
303    149.78
105    150.29
115    150.89
84    149.85
46    146.86
355    144.12
154    144.74
35    146.18
37    144.64
64    140.17
174    134.96
35    130.23
42    124.73
682    122.99
46    129.52
42    136.9
67    139.68
208    140.38
267    142.44
264    147.56
263    155.27
140    163.65
325    171.77
153    180.03
79    186.24
150    188.66
314    190
55    191.62
255    192.14
133    191.96
144    190.99
159    188.75
530    188.97
209    194.59
47    200.63
38    201.5
121    197.59
178    191.91
196    186.82
120    182.47
250    178.8
126    176.26
285    174.98
217    175.74
39    176.78
76    174.84
197    170.83
104    166.89
142    162.91
87    158.43
252    154.48
105    152.11
68    149.67
69    145.45
50    139.58
119    132.92
77    126.49
155    120.95
37    116.25
226    112.59
205    111.79
117    113.66
105    115.81
161    117.65
111    119.6
118    121.27
83    122.1
112    121.97
38    120.72
54    117.8
139    114.06
87    110.91
45    107.82
103    104.24
140    101.3
73    99.47
74    97.77
137    96.21
170    96.1
39    97.09
64    97.22
201    97.15
150    98.94
49    101.56
88    102.98
92    103.3
128    103.43
54    103.43
127    103.02
67    102.41
85    101.43
71    99.88
81    97.96
66    95.74
179    94.13
79    93.93
45    93.83
31    92.33
116    90
116    88.38
92    87.86
39    87.35
165    86.85
300    89.09
98    94.9
99    101.09
110    105.81
130    109.62
39    112.28
52    112.77
234    112.55
77    113.56
52    114.22
114    113.42
160    112.69
62    112.5
142    112.17
85    111.77
124    111.37
39    110.48
100    108.65
68    106.23
207    104.53
243    105.72
41    109.15
125    111.88
36    112.98
70    112.31
215    111.33
234    112.93
699    121.72
249    139.75
100    159.48
86    173.68
218    182.83
74    188.69
34    190.28
337    189.19
161    189.27
146    189.73
58    188.06
77    183.42
35    175.94
76    166.33
51    155.54
48    144.1
294    134.29
40    127.94
73    122.58
88    116.74
92    111.26
107    106.56
59    102.48
105    98.72
334    97.55
357    102.65
170    113.13
202    124.74
40    134.53
119    140.87
333    146.09
35    151.98
71    155.38
49    154.76
116    151.58
46    146.89
59    140.7
63    133.26
112    125.68
89    118.87
176    113.61
56    109.95
144    107.1
64    104.77
103    102.63
142    101.01
135    100.74
426    104.08
140    112.4
72    121.41
46    127.01
41    128.81
56    127.48
196    125.16
150    124.18
67    123.97
32    122.35
141    119.34
50    116.12
64    112.38
86    108.02
131    104.17
218    102.46
54    102.87
281    104.78
306    110.3
132    119.28
238    128.81
118    137.78
242    145.96
132    153.4
207    159.88
59    164.54
253    167.43
66    169.32
282    170.68
45    171.65
309    172.34
156    173.92
232    176.4
160    178.9
255    181.54
220    184.89
49    187.48
44    186.29
259    182.56
144    179.52
267    177.99
90    177.27
44    174.96
64    169.47
260    163.28
173    159.41
56    156.66
84    152.47
102    146.98
173    141.76
145    137.99
204    136.06
365    137.63
154    143.17
58    148.69
35    150.54
275    150.34
243    152.02
36    154.85
206    156.2
112    156.7
202    157.12
83    157.2
134    156.24
54    153.71
144    149.92
92    145.69
190    141.94
44    138.66
40    134.24
53    127.94
233    122.07
61    118.33
205    116.19
180    116.08
284    119.11
154    124.89
241    131.99
156    139.55
109    146.16
132    150.54
217    153.79
124    156.87
157    159.17
146    160.5
49    160.33
97    157.77
135    153.76
212    150.41
72    148.1
127    145.45
33    141.62
37    135.97
78    128.75
74    121.24
131    114.47
187    109.85
121    107.84
67    106.84
142    105.83
145    105.65
84    106.27
32    106.1
42    104.06
206    101.75
34    100.65
149    99.98
127    99.95
165    101.29
150    103.96
178    107.84
122    112.4
172    117.05
38    120.88
158    123.16
31    124.03
135    123.54
131    122.67
95    122.01
168    121.52
183    122.19
210    124.77
127    128.62
242    133.11
86    137.86
154    141.61
213    144.8
134    148.33
95    150.87
121    151.53
73    150.43
50    147.28
32    141.75
66    134.41
71    126.35
116    118.74
115    112.48
35    107.15
99    101.92
37    96.82
105    92.04
88    88.13
36    84.87
311    83.44
67    85.54
168    89.34
82    93.27
104    96.78
109    99.55
36    101.34
55    101.32
160    100.49
128    100.68
172    102.33
89    104.82
191    107.71
192    111.8
169    117.32
233    123.92
222    131.88
207    140.84
191    149.8
330    159.24
336    170.89
194    183.92
52    194.18
96    198.86
81    198.6
37    194.35
93    186.82
39    177.13
114    166.31
110    155.72
57    145.77
125    136.28
57    127.58
78    119.39
83    111.66
59    104.61
129    98.53
141    94.4
123    92.54
74    91.85
44    90.9
108    89.42
148    88.7
32    88.81
53    88.15
127    86.94
158    86.96
151    88.98
228    93.22
123    99.36
122    105.64
60    110.47
114    113.45
195    115.96
68    118.75
116    120.65
180    122.07
238    124.99
140    129.62
67    133.69
100    135.49
110    135.51
121    134.71
236    134.5
93    135.55
132    136.45
97    136.39
72    135.14
127    132.79
93    130.09
40    126.67
248    123.36
61    121.69
98    120.26
158    118.63
112    117.81
112    117.37
34    116.23
75    113.66
130    110.56
56    107.78
33    104.39
148    100.61
61    97.63
44    94.74
136    91.77
53    89.52
39    87.18
118    84.59
86    82.8
90    81.83
107    81.47
51    81.43
47    80.83
313    81.47
39    85.1
114    89.2
77    92.22
197    95.3
186    99.89
265    106.92
138    115.75
76    123.72
36    128.43
119    130.01
127    130.24
36    129.51
38    126.66
119    122.26
169    118.54
150    116.8
192    117.04
368    120.76
83    127.87
78    134.11
75    137.04
186    138.18
34    138.46
183    137.73
39    136.26
127    133.87
77    130.7
155    127.58
58    124.67
40    120.93
35    115.56
138    109.73
250    106.27
104    106.21
314    108.98
33    113.77
142    117.96
570    124.52
63    136.38
150    147.86
138    155.86
238    162.28
39    167.21
105    168.94
82    167.47
106    163.94
377    161.38
41    161.5
256    162.15
112    162.78
504    165.95
67    172.64
175    178.72
70    181.5
119    181.25
119    178.63
239    175.67
128    173.6
169    171.77
225    170.41
177    170.31
84    170.07
120    168.14
32    164.09
133    158.26
132    152.16
91    146.54
132    141.11
426    138.73
32    140.65
80    142.18
72    140.87
82    137.78
44    133.22
38    127.11
34    119.57
148    112.01
31    105.55
138    100.02
50    95.46
119    91.78
46    88.71
64    85.72
72    82.65
184    80.82
98    81.17
55    82.34
210    83.95
169    87.67
44    92.47
79    95.86
32    97.23
156    97.54
40    97.72
101    97.43
205    97.67
37    99.13
118    100.24
220    101.84
55    104.73
34    106.49
137    106.48
83    106.19
227    106.83
93    108.95
69    110.94
36    111.03
134    109.72
159    108.92
130    109.5
56    110.24
110    110.08
217    110.39
140    112.59
36    114.94
65    115.23
31    113.32
61    109.69
31    104.85
81    99.42
92    94.36
158    90.89
47    88.98
32    86.95
143    84.64
34    82.99
108    81.62
60    80.45
122    79.79
123    80.15
226    82.66
105    87.4
71    92.3
226    96.87
33    101.72
58    104.96
338    107.97
58    113.19
180    118.64
336    125.05
68    133.36
144    140.36
221    145.82
82    150.67
155    153.85
44    154.82
423    155.94
164    160.3
211    166.23
50    170.52
131    171.84
33    170.06
115    165.71
280    161.43
131    159.46
73    157.78
150    154.83
63    151.1
41    145.91
136    139.5
73    133.21
129    127.44
35    121.87
351    118.15
134    118.56
38    120.35
142    120.67
66    120.14
81    118.72
39    115.94
76    111.97
97    107.64
176    104.48
115    103.26
182    103.75
102    105.48
182    107.98
109    111.05
33    113.29
48    113.14
126    111.41
140    110.05
206    110.41
181    113.06
124    117.02
107    120.59
122    123.13
171    125.31
85    127.35
153    128.79
127    129.9
155    131.09
68    131.84
61    130.99
182    129.11
123    127.93
63    126.86
33    124.22
50    119.64
148    114.53
30    109.97
44    104.97
179    100.17
79    97.16
76    95.07
78    92.9
221    91.91
77    93.02
514    98.06
168    109.07
288    123.15
385    139.04
190    156.78
225    173.24
158    186.62
228    197
295    205.89
329    215.3
251    225.24
302    234.71
232    243.12
409    251.18
290    260.04
77    267
82    267.88
115    262.75
172    254.22
183    244.69
224    235.66
152    227.48
179    219.61
343    213.4
316    211.33
261    212.93
37    214.34
93    211.92
180    206.45
121    200.24
198    194.04
48    187.6
54    179.41
45    168.99
41    157.07
124    144.91
47    133.68
45    122.9
146    113.01
34    104.81
37    97.2
60    89.61
90    82.92
67    77.62
156    74.15
271    74.38
62    78.29
32    82.2
80    84.18
83    85.19
40    85.51
213    86.03
205    89.1
210    95.29
34    102.27
154    107.78
66    111.79
148    114.73
88    116.9
99    118.19
247    119.66
75    122.32
59    124.08
87    123.66
142    122.36
240    122.35
122    124.41
194    127.46
47    130.16
236    132.25
95    134.53
246    137.35
189    141.36
203    146.53
154    151.8
156    156.3
102    159.26
104    160.1
59    158.54
206    155.68
51    152.68
31    148.19
58    141.34
144    133.88
111    127.56
47    121.96
92    116.14
171    111.2
268    109.53
36    110.73
194    112.38
223    115.25
184    120.4
280    127.47
271    136.98
232    148.32
333    160.83
300    174.88
441    191.07
322    209.4
289    227.72
178    243.03
212    253.77
211    260.31
338    264.73
244    268.69
251    271.72
270    273.45
236    274.22
197    273.53
208    270.93
193    266.69
338    262.37
151    258.84
118    253.9
53    245.45
139    233.99
36    220.63
121    205.97
90    191.1
86    176.71
104    162.99
136    150.72
70    140.11
94    130.47
97    121.78
104    114.38
102    108.33
82    103.38
104    99.25
120    96.21
33    93.83
182    91.96
159    92.07
116    94.17
34    96.16
40    96.37
32    94.58
226    92.83
90    93.15
175    95.08
34    97.31
296    100.23
55    104.72
77    108.66
114    110.76
172    112.64
34    114.41
88    114.7
185    114.41
271    116.38
50    120.42
80    123.25
52    123.54
88    121.94
154    119.86
39    117.91
177    115.92
58    114.3
89    112.45
100    110.12
122    108.1
340    108.6
65    112.51
102    116.48
365    120.87
101    127.86
186    135.15
100    140.96
205    145.61
76    149.18
177    151.39
109    152.54
223    153.47
317    156.29
60    160.81
48    162.96
120    161.56
104    158.43
100    154.37
264    150.87
107    149.28
62    147.59
33    143.67
56    137.49
154    130.75
35    124.61
34    117.98
78    110.57
98    103.67
83    97.94
247    94.55
127    94.61
75    96.26
170    98.02
71    100.13
242    102.98
166    107.67
71    112.98
147    117.05
108    120.19
67    122.16
158    122.94
57    123.12
91    122.19
49    119.85
68    116.26
40    111.57
94    106.34
34    101.02
107    95.87
191    92.39
139    91.85
261    94.39
88    99.35
261    105.58
66    112.39
55    117.57
101    119.93
231    121.8
127    124.87
196    128.69
265    133.79
40    139.57
249    144.26
290    149.86
151    157.22
41    162.86
364    166.7
144    171.62
37    175.39
116    175.29
116    172.64
276    170.09
413    171.38
168    177.13
180    183.31
162    187.66
311    191.5
223    196.38
127    200.89
101    202.49
72    200.4
39    194.59
44    185.42
228    175.29
239    167.89
53    162.97
105    157.58
86    151.19
35    143.93
82    135.66
200    128.19
412    125.6
273    130.11
328    139.78
233    152.06
141    164.08
174    173.51
52    179.45
210    182.1
95    182.82
297    183.08
35    183.22
284    182.66
377    184.26
229    189.78
298    197.03
74    203.45
383    208.47
477    216.22
441    229.57
272    245.52
178    259.14
199    267.82
243    272.39
574    277.25
207    284.94
161    290.87
116    291.16
284    287.42
78    281.44
249    273.32
442    266.53
240    263.84
68    261.26
336    256.58
124    251.7
253    246.59
53    240.24
498    234.55
184    232.62
178    232.07
144    229.66
174    225.57
559    223.66
74    226.03
120    227.21
97    224.05
173    218.33
406    213.77
291    213.71
66    215.29
242    214.89
158    213.36
42    210.13
66    203.34
34    193.24
216    182.09
321    174.08
364    172.26
304    176.25
245    183.44
292    191.8
325    201.31
279    211.92
241    222.25
98    229.87
127    232.8
175    231.73
204    228.93
281    226.37
290    225.65
193    226.33
383    228.1
135    230.92
142    232.03
74    229.34
145    223.37
310    217.03
142    212.51
244    208.97
138    205.73
122    201.79
108    196.2
139    189.44
46    181.65
69    172.24
118    161.93
382    154.4
95    151.58
41    149.48
138    145.59
158    141.75
44    138.27
132    134.19
33    129.5
240    125.28
209    123.85
149    125.3
243    128.42
111    132.69
249    137.43
172    142.92
188    148.81
217    154.68
204    160.83
127    166.39
126    169.98
76    170.87
169    169.63
38    166.84
237    163.21
137    160.41
294    159.61
57    160.17
160    160.01
214    159.49
244    160.67
383    165.16
38    171.74
176    176.32
186    178.77
71    179.85
178    178.94
149    177.11
62    174.33
36    169.06
130    161.7
34    153.51
336    146.63
168    143.73
100    143.12
158    142.28
153    141.64
256    142.4
45    144.13
230    145.44
128    146.85
75    147.72
77    146.45
128    143.63
178    140.97
72    138.88
56    135.84
90    131.34
161    126.86
107    123.54
146    121.23
354    121.65
183    126.45
77    132.47
108    136.36
124    138.28
300    140.59
90    144.39
184    147.99
210    151.35
138    155.02
207    158.41
381    163.44
223    171.64
98    179.83
32    183.89
232    184.2
82    183.14
60    180.09
66    174.09
34    165.7
86    155.71
69    145.28
187    135.94
163    129.34
105    125.12
161    122.19
62    119.95
124    117.67
59    115.11
112    112.29
46    109.17
176    106.33
127    104.99
114    104.96
107    105.29
117    105.73
171    106.79
304    110.34
128    116.85
260    124.66
133    132.91
236    141.07
109    148.5
128    154.06
44    156.61
197    156.83
37    155.75
223    153.88
250    153.42
228    155.8
249    160.31
158    165.72
140    170.19
107    172.49
34    171.78
156    168.35
47    163.46
32    156.71
314    149.93
169    146.62
39    144.96
479    144.87
148    149.41
330    157.01
81    164.91
187    171.09
88    174.64
175    176.04
142    176.1
151    175.37
132    173.8
51    170.74
49    165.15
162    158.05
82    151.21
393    146.93
124    146.94
32    147.65
123    145.93
107    142.99
85    139.54
177    136.07
414    135.96
48    140.02
184    144.2
85    146.77
91    147.57
51    145.98
212    143.3
336    143.19
32    145.89
113    147.37
219    147.58
39    147.74
197    147.07
259    147.41
65    149.21
39    149.21
194    147.1
261    146.29
79    147.39
238    148.77
224    151.32
130    154.99
165    158.02
102    159.77
134    159.99
103    158.8
158    156.78
31    153.8
126    149.35
135    144.5
79    139.98
95    135.12
72    129.81
195    125.06
33    121.4
91    117.53
78    113.13
152    109.35
333    108.73
105    112.22
89    116.36
87    118.74
53    119.27
312    119.89
68    122.53
110    125.1
182    126.8
235    129.74
258    135.15
235    142.9
169    151.44
63    158.2
105    161.44
344    163.68
401    169.76
321    180.81
171    193.21
258    203.85
88    211.64
244    216.21
143    218.5
239    219.4
140    219.13
243    217.99
161    216.44
126    213.84
78    208.9
286    202.95
136    198.21
160    193.99
46    188.56
194    181.91
448    178.1
223    180.1
35    183.31
106    183.05
40    179.22
212    173.71
46    168.01
32    160.94
191    152.77
124    145.94
70    140.14
82    133.98
194    128.41
67    124.35
105    120.74
57    116.77
161    113.04
61    110.09
221    108.36
130    108.68
152    110.53
85    112.56
146    114.26
92    115.65
209    117.32
234    120.84
64    125.62
120    129.09
266    132.17
535    139.89
224    153.91
140    168.71
192    180.16
113    188.2
279    193.88
80    198
170    199.65
123    198.84
127    196.16
137    191.93
184    187.22
149    182.86
78    178.15
99    172.05
53    164.5
183    156.54
113    149.72
106    143.84
37    137.63
80    130.53
31    122.74
102    114.79
106    107.78
55    101.93
36    96.22
71    90.34
161    85.68
59    83.02
103    81.39
152    80.9
162    82.51
58    85.41
97    87.89
210    90.68
92    94.79
161    99.36
195    104.57
186    111.11
197    118.69
296    127.72
131    137.93
188    147.29
226    155.59
174    163.47
81    169.48
212    173
118    175.13
232    176.58
99    177.48
107    176.76
147    174.21
216    171.62
94    169.54
136    166.83
95    163.09
45    157.96
227    152.26
136    148.13
46    144.6
106    139.92
41    134.24
90    127.82
91    121.3
122    115.59
66    110.75
129    106.57
213    104.29
40    104
54    103.22
76    101.1
94    98.64
119    96.66
47    95.1
40    92.88
52    89.62
91    86.13
238    84.51
54    85.59
73    87.03
293    89.3
313    96.01
164    106.82
54    117.24
75    124.18
51    127.52
89    128.07
182    127.67
141    128.04
338    130.69
138    136.21
75    141.59
189    144.96
284    148.81
32    153.32
195    156.18
41    157.06
182    156.34
130    155.05
273    154.84
279    157.4
336    163.73
58    171.42
165    176.72
140    179.3
196    180.64
160    181.42
54    180.75
78    177.15
76    170.98
195    164.18
271    159.66
392    160.19
38    164.27
35    166.13
63    163.52
349    160.36
454    162.6
135    170.35
314    179.16
142    187.39
210    194.14
182    199.02
192    202.49
121    204.14
103    203.12
331    201.09
259    201.32
256    203.93
260    207.66
284    212.37
344    218.58
34    224.39
72    225.44
302    222.8
355    221.92
356    225.14
82    229.62
77    230.43
34    225.7
294    218.34
31    210.95
207    203.03
127    195.05
118    187.32
88    179.02
88    169.99
35    160
47    148.87
248    138.61
215    132.44
69    129.51
58    126.42
56    121.9
99    116.67
216    112.71
278    112.6
91    115.88
184    119.84
149    123.9
160    128.18
334    133.81
312    143
161    154.44
129    164.33
303    172.39
450    182.55
355    197.03
244    213.06
127    226.22
67    233.48
402    236.81
319    241.32
526    249.62
205    260.67
104    269.06
353    272.95
72    274.2
313    272.83
405    271.87
130    272.48
109    270.38
375    265.86
279    263.04
490    263.91
576    270.88
51    281.16
90    286.11
195    284.02
281    279.39
372    275.95
78    273.33
280    269.01
294    264.54
361    262.53
323    263.36
116    264.56
97    262.18
71    254.93
310    245.59
46    236.47
56    225.57
108    212.09
100    197.95
282    185.54
76    176.07
221    168.46
85    162.08
109    156.02
35    149.08
433    143.93
201    144.27
235    148.53
48    152.78
133    154.84
62    154.41
382    154.27
238    157.78
140    163.43
252    168.68
74    173.03
286    176.29
258    180.4
117    185.13
321    189.32
72    193.11
127    194.54
168    193.33
219    191.66
225    190.92
161    190.9
56    189.58
512    188.79
653    196.12
88    210.79
66    222.38
34    226.07
184    224.1
142    219.74
194    214.65
112    209.02
279    203.6
49    198.69
217    193.32
124    187.88
271    183.61
281    182.09
145    182.96
117    183.26
193    182.18
121    180.51
176    178.33
115    175.65
136    172.31
397    170.53
251    173.24
125    178
188    181.44
184    183.73
65    184.55
320    184.32
86    184.59
66    183.32
216    179.91
318    178.1
274    180.09
112    183.69
182    185.99
203    187.21
217    188.59
151    189.92
160    190.28
112    189.1
101    186.01
78    180.78
44    173.38
104    164.29
116    155.02
42    145.98
36    136.28
156    126.65
334    120.74
147    120.2
34    121.26
98    120.68
161    119.48
31    118.36
50    115.87
68    111.83
152    107.86
69    104.91
241    103.58
240    105.62
104    110.43
254    116.21
127    122.85
257    130.13
110    137.55
236    144.52
142    151.02
180    156.75
158    161.39
106    164.56
112    165.55
179    165.06
140    164.27
316    164.63
415    169.21
123    177.52
116    184.4
79    187.16
71    186
195    182.44
187    179.06
329    177.96
121    179.2
40    179.28
76    175.75
77    169.55
214    162.92
89    157.4
46    151.64
32    144.04
36    134.75
56    124.6
188    115.55
37    108.71
189    103.64
69    100.33
163    98.53
115    98.11
203    99.43
108    102.33
56    105.06
175    106.95
74    108.81
135    110.41
169    112.21
199    115.39
245    120.66
88    127.08
268    133.43
214    140.73
264    149.53
176    158.84
277    168.02
159    176.78
272    184.75
92    191.28
145    194.92
248    196.47
54    196.92
69    194.33
228    189.44
149    185.03
209    181.63
154    178.99
271    177.57
242    178.36
33    179.56
73    177.75
121    173.01
82    167.02
145    160.51
85    154.05
132    147.76
97    141.78
42    135.62
69    128.54
152    121.66
106    116.36
156    112.76
158    111.04
51    110.37
76    108.99
140    107.2
386    108.36
167    114.51
186    122.83
154    130.81
134    137.73
171    143.36
243    148.82
174    154.9
362    162.24
65    170.39
199    176.68
147    180.69
152    183.11
47    183.04
150    180.25
126    176.11
147    171.7
111    167.07
106    161.97
88    156.15
64    149.45
70    141.82
105    133.91
132    126.87
131    121.45
44    116.93
35    111.75
228    106.96
180    105.29
60    105.87
64    105.82
51    104.29
169    102.45
243    102.88
51    105.59
224    108.85
200    113.47
405    121.65
96    132.93
168    143.42
166    151.6
161    158.28
40    162.52
204    164.08
236    165.49
32    166.94
215    166.8
108    165.9
132    164.4
152    162.17
171    160.13
306    159.87
123    161.84
89    163.29
90    162.27
245    160.39
130    159.51
168    159.12
306    159.94
298    164.11
314    171.84
166    181.02
49    187.77
184    190.44
47    190.05
326    188.48
96    187.62
105    185.93
46    181.44
43    174.07
198    165.47
579    161.81
189    166.29
34    172.37
179    174.95
127    175.44
206    175.3
157    175.16
94    174.34
274    173.07
127    172.73
219    172.93
155    173.31
223    174.07
111    174.79
48    173.66
383    171.95
94    172.44
256    173.94
140    175.49
363    178.27
233    183.53
232    190.19
144    195.91
154    199.38
222    201.02
514    204.78
96    211.91
123    217.19
121    217.93
187    215.88
210    213.04
254    210.94
54    208.76
55    203.7
85    195.25
139    185.42
335    177.57
192    173.97
154    172.65
176    171.54
474    173.09
106    178.64
45    182.99
61    182.43
171    178.83
98    174.35
262    170.38
177    168.31
284    168.59
228    171.22
231    175.55
206    180.43
33    183.76
133    183.62
348    182.81
347    185.81
287    192.85
255    201.5
187    209.55
123    214.98
187    217.16
90    216.53
178    213.44
46    208.14
144    200.71
169    192.61
203    185.74
118    180.1
196    175.11
117    170.72
201    166.95
149    164.08
233    162.51
116    161.97
292    162.44
38    163.52
130    163.06
80    160.49
48    156.06
82    149.7
64    142.23
45    133.99
34    124.87
91    115.52
54    106.85
37    98.68
395    93.49
85    93.93
112    96.72
59    98.68
34    99.12
175    98.69
147    99.47
134    101.73
324    106.16
136    113.53
104    121.14
39    126.09
41    127.56
217    127.28
60    127.28
238    127.81
42    128.76
77    128.55
329    128.48
231    132.1
127    138.02
389    145.17
171    154.64
136    163.88
269    171.38
130    178.06
312    184.19
477    192.89
533    207.85
306    227.53
48    244.82
170    254.67
411    260.4
588    269.14
62    280.47
162    287.09
218    287.7
106    284.54
160    277.67
37    267.18
213    254.15
124    240.73
43    226.77
91    211.21
66    194.87
138    179.02
174    165.32
112    154.36
325    146.88
71    143.18
226    141.34
314    142.15
93    145.85
550    152.45
300    164.68
92    178.72
379    190.62
204    202.06
389    213.77
53    224.15
422    232.22
383    241.24
264    252.07
125    260.56
143    263.88
69    261.74
179    255.29
296    247.94
265    242.7
202    239.17
305    236.63
112    234.51
110    230.46
246    224.57
217    219.44
38    214.23
106    206.53
96    196.78
67    185.91
71    174.02
180    162.46
130    152.92
67    144.81
45    136.43
35    127.17
68    117.44
85    108.3
174    101.16
35    96.24
333    94.06
85    95.74
355    100.89
134    109.1
277    119.12
99    129.29
229    138.55
88    146.34
270    153.01
117    159.17
86    163.46
74    164.38
308    164.14
165    165.57
240    168.41
100    171.16
431    174.76
148    180.84
129    186.55
173    189.53
187    191.01
192    191.94
175    192.47
234    192.92
109    193.11
40    190.95
204    186.29
137    181.43
80    176.37
123    170.19
183    164.08
76    158.69
61    152.64
101    145.49
62    137.96
164    130.9
46    124.81
236    120.11
137    117.94
76    117.22
107    116.08
232    115.68
138    117.38
340    121.75
40    128.08
313    134.7
84    141.46
70    146.5
361    150.32
304    157.25
228    167.15
431    178.93
182    192.43
497    206.96
109    221.74
355    234.49
355    246.12
61    256.13
303    261.76
239    264.91
214    266.78
68    265.51
41    259.08
446    250.61
37    243.89
50    235.44
217    224.23
145    213.52
144    203.71
276    195.37
61    188.83
354    183.82
279    182.53
42    183.38
204    182.67
155    181.11
155    179.46
110    177.05
371    175.52
214    177.32
142    180.58
36    181.52
42    178.44
67    171.81
470    166.44
146    166.31
202    168.64
31    169.64
167    168.41
167    166.32
174    164.8
275    164.72
209    166.87
468    172.54
232    182.42
370    194.61
284    207.78
237    220.61
226    231.2
111    238.27
331    242.23
181    245.12
269    247.18
267    248.72
506    252.46
140    258.65
180    262.82
64    262.02
212    257.13
102    249.85
217    241.32
122    232.32
127    222.7
33    211.44
59    198.05
94    183.41
112    169.21
74    156.08
159    144.41
124    135.02
66    127.33
86    120.1
364    115.58
146    116.17
43    118.53
82    119.03
75    117.81
485    118.88
367    127.29
309    141.95
125    157.53
296    171.23
46    182.3
98    188.77
244    191.52
120    193.12
134    193.08
224    191.75
170    190.61
230    190
156    189.75
198    189.4
69    188.03
95    184.37
80    178.35
271    172.24
264    169.19
190    169.4
84    169.97
214    169.53
111    168.74
162    167.52
166    166.03
255    165.58
35    165.63
154    164.19
64    161.04
100    156.52
78    150.76
76    144.17
126    137.36
90    131.1
36    124.85
86    118.04
402    113.97
173    115.79
134    120.59
82    124.57
112    126.89
42    127.37
248    127.2
237    129.24
162    133.79
122    138.45
132    141.88
95    143.78
105    144.03
79    142.65
253    141.16
136    141.3
227    142.92
149    145.51
136    148.13
63    149.25
246    149.37
242    151.1
179    154.88
66    158.14
268    160.19
127    162.46
185    164.66
248    167.03
227    170.79
60    174.3
149    175.35
194    174.93
169    174.66
199    174.73
229    175.56
65    176.36
44    174.5
127    169.69
130    163.98
42    157.79
109    150.57
136    143.39
92    137.1
106    131.32
31    125.37
130    119.19
136    114.07
193    111.31
143    110.99
159    112.33
46    113.81
106    114.15
121    113.78
93    113.38
48    112.27
127    110.35
54    108.2
245    106.94
219    108.71
203    113.71
430    122.42
362    136.63
486    156.32
200    178.7
252    199.19
49    214.45
201    223.59
307    229.45
233    234.96
142    238.96
92    239.18
496    238.24
705    244.31
349    259.34
129    274.82
82    283.29
35    283.18
140    276.28
737    270.59
199    272.21
187    275.35
377    276.51
123    277.06
96    274.3
472    269.69
114    266.79
217    263.36
260    258.75
99    253.62
91    245.92
129    235.41
241    224.54
307    216.41
59    210.61
37    203.09
166    193.19
189    183.89
82    175.92
235    168.91
271    164.78
138    163.71
343    164.81
269    169.16
400    177.38
90    187.3
104    194.32
304    198.25
362    203.52
217    211.05
32    216.66
40    216.48
48    210.62
213    202.14
266    195.12
71    190.06
65    183.87
275    177.05
88    171.81
142    167.05
80    161.67
103    155.61
74    148.86
215    142.66
88    138.12
202    134.99
169    133.59
39    132.88
34    130.3
78    125.61
157    120.78
89    117.09
252    115.23
230    116.76
136    121.02
53    124.85
152    126.9
31    127.49
167    126.9
257    127.37
122    130.12
151    133.29
162    136.13
35    138.02
243    138.82
94    139.92
171    141.11
202    142.6
194    145.36
105    148.39
114    150.08
242    151.16
246    153.92
168    158.35
170    162.68
146    166.02
42    167.24
53    165.04
156    160.48
110    155.65
145    151.14
93    146.8
106    142.27
78    137.31
222    133
42    129.98
163    127.26
62    124.55
118    121.73
174    119.45
69    118.19
76    116.53
46    113.65
163    110.45
39    107.76
107    105.04
70    102.17
240    100.63
127    101.67
179    104.63
135    108.53
135    112.71
191    117.08
41    121.13
102    123.34
232    124.88
183    128.08
290    133.6
94    140.41
143    146.09
162    150.07
218    153.78
76    157.09
137    158.63
56    157.95
298    156.75
257    158.11
204    162.29
309    168.12
127    174.81
127    179.83
375    183.95
123    189.25
151    193.41
88    194.46
146    192.78
69    188.9
207    183.78
31    178.09
79    170.79
51    161.61
103    151.69
34    141.55
110    131.52
82    122.33
34    113.86
238    106.86
47    102.58
171    100.08
31    98.33
205    97.37
47    97.43
233    98.64
195    102.1
137    107.6
41    112.44
475    118.1
35    126.93
242    135.92
302    145.03
266    156.3
32    166.83
382    175.22
135    183.49
243    191.09
215    197.46
91    202.11
68    202.87
264    200.83
238    199.53
72    198.65
179    196.09
102    192.08
207    187.58
77    182.87
97    177.07
60    169.59
127    161.18
66    152.61
99    144.04
340    137.73
162    136.1
323    138.45
165    143.65
71    148.83
80    151.09
34    150.06
36    145.89
216    140.57
104    136.61
77    133.22
100    129.22
138    125.34
154    122.62
215    121.93
288    124.52
38    129.19
142    132.66
35    133.88
159    133.47
266    133.86
213    137.14
140    141.93
299    147.41
96    153.58
305    159.75
111    165.89
217    171.23
154    175.41
262    179.28
495    185.95
79    195.79
103    203.07
288    206.66
68    208.75
159    208.29
92    205.06
170    200.11
135    194.44
96    188.15
121    180.89
259    174.33
116    169.8
84    165.51
61    159.66
108    152.55
77    145.06
67    137.32
109    129.56
108    122.62
187    117.51
160    115.01
127    114.52
116    114.74
173    115.5
42    116.42
338    118.17
481    125.39
76    138.01
185    149.79
63    158.04
134    162.79
294    166.2
173    170.67
71    174.3
222    175.76
204    177
126    178.34
285    179.58
107    181.22
312    183.17
253    186.69
282    192.25
156    198.14
311    203.55
221    209.17
220    214.56
50    217.48
81    215.88
49    209.74
212    201.43
82    193.05
79    184.1
39    173.56
149    162.38
89    152.04
133    142.97
203    135.95
50    130.96
40    125.69
108    119.52
68    113.56
230    109.18
102    107.4
127    107.13
55    106.77
32    105.22
169    102.95
178    102.33
44    103.16
172    104
39    104.72
331    106.59
177    111.69
291    119.87
57    128.85
99    135.6
312    140.94
128    147.34
196    153.63
452    161.35
274    173.14
36    184.91
200    192.31
57    195.7
143    195.62
300    194.43
37    193.55
191    191.18
124    187.56
117    183.23
43    177.24
171    169.94
194    163.57
97    158.72
164    154.36
46    149.85
164    144.95
127    140.58
81    136.73
50    132.1
98    126.55
116    121.15
42    116.12
166    111.49
60    107.87
32    104.19
117    99.95
203    97.29
97    97.13
186    98.59
106    101.17
87    103.8
100    105.5
66    106.25
64    105.76
125    104.55
118    103.73
62    103.17
59    101.84
138    100.1
137    99.35
97    99.69
71    99.97
94    99.65
37    98.56
211    97.61
132    98.53
93    100.63
71    102.12
126    102.87
60    103.21
65    102.64
100    101.23
134    100.1
132    100.05
127    101.03
87    102.34
183    103.94
38    105.77
167    107.19
114    108.74
56    110.05
55    109.75
71    107.88
310    107.07
96    109.4
72    112.27
116    113.7
41    113.9
53    112.4
35    109.06
179    105.43
129    103.47
120    103.15
240    104.5
52    107.43
38    109.27
36    108.45
167    106.55
159    105.94
37    106.28
47    105.35
197    103.88
118    103.93
36    104.4
121    103.89
34    102.66
123    100.92
102    99.42
211    99.42
161    101.77
133    105.67
52    109.09
64    110.6
140    110.76
186    111.6
86    113.47
123    115.11
176    116.75
58    118.54
91    119.16
48    118.09
148    116.16
63    114.22
135    112.35
55    110.43
33    107.63
47    103.37
34    98.08
37    92.1
228    87.28
386    87.93
44    94.04
47    99.87
71    102.75
56    103.61
73    102.97
31    101.03
38    97.67
137    93.92
32    90.81
166    88.47
50    87.18
237    87.45
191    90.62
58    95.59
109    99.66
275    103.99
345    112.06
188    123.95
169    136.22
154    146.66
162    155.04
314    162.82
178    171.32
90    178.39
92    181.65
129    181.51
221    180.14
107    178.75
138    176.53
178    173.66
138    170.97
171    168.43
119    165.9
109    162.78
202    159.49
337    158.71
174    161.47
134    164.99
156    167.16
63    167.52
41    164.97
55    159.3
123    152.03
58    144.46
187    137.46
122    132.16
188    128.86
83    126.88
155    125.38
221    125.15
107    126.64
107    128.06
210    129.29
58    130.79
49    130.72
70    128.26
99    124.55
99    120.67
98    116.99
209    114.48
203    114.7
46    116.51
44    116.85
48    114.79
115    111.56
32    108
122    104.22
57    100.65
39    96.91
136    93.1
96    90.49
191    89.77
34    90.46
82    90.83
127    90.79
74    91.14
115    91.62
78    92.11
78    92.32
34    91.66
176    90.79
79    90.95
178    92.29
184    95.33
81    99.66
40    102.85
46    103.63
94    102.69
220    102.32
97    103.85
91    105.75
87    106.74
113    107.09
102    107.25
164    107.79
54    108.64
44    108.32
189    107.25
43    106.73
211    106.81
132    108.25
184    111.2
407    117.18
135    127.16
32    136.38
266    142.75
60    148.03
110    151.27
199    152.72
155    154.25
56    154.98
195    154.27
34    152.61
244    150.5
52    148.67
46    145.64
118    140.74
230    136.58
178    135.12
79    135.01
221    135.07
253    137.02
292    142.32
252    150.57
282    160.73
138    171
122    178.8
210    183.73
40    186.25
65    185.01
183    180.91
133    176.49
160    172.34
106    168.11
74    163.06
84    156.66
269    150.84
459    150.31
386    157.77
764    174.52
217    198.95
316    223.4
160    242.97
505    259.26
297    275.15
178    288.69
212    296.66
63    298.48
205    294.59
303    288.36
131    281.9
463    276.17
169    272.78
144    269.02
254    263.17
107    256.34
127    247.63
81    236.53
134    223.83
154    210.97
206    199.58
45    189.38
49    178.27
113    166.09
157    154.93
550    149.31
134    151.51
35    155.19
287    156.95
302    160.59
82    166.05
175    170.02
399    174.27
317    182.35
198    192.56
163    201.2
73    206.1
52    206.06
88    201.49
76    193.93
64    184.34
113    173.62
92    162.91
159    153.16
125    145.1
49    137.96
42    130.2
111    122.03
137    115.09
49    109.59
118    104.71
116    100.84
277    99.72
99    101.88
34    104.35
216    105.95
278    109.77
171    116.78
42    123.71
258    129.13
42    133.95
70    136.6
49    136.05
42    132.93
77    127.92
48    121.94
91    115.57
197    110.43
36    107.16
61    103.86
179    100.71
226    100.29
98    102.63
67    105.06
70    105.94
55    105.31
36    103.16
44    99.54
107    95.43
110    92.18
59    89.85
51    87.42
50    84.44
159    81.94
67    80.91
120    80.85
183    82.16
160    85.73
171    91.14
35    96.66
46    100.06
59    100.91
62    100.11
36    98.02
107    95.21
82    92.66
36    90.21
100    87.48
48    84.86
62    82.2
149    80.11
111    79.74
181    81.35
79    84.43
77    87.41
70    89.3
76    90.22
48    90.18
34    88.89
85    86.65
114    84.71
34    83.3
55    81.45
41    78.89
47    75.87
75    72.81
114    70.65
106    70.02
77    70.54
142    71.91
71    74.13
160    77.02
80    80.54
53    83.64
36    85.09
33    84.71
158    83.78
180    84.64
61    87.27
144    90.06
125    93.1
139    96.73
57    100.09
165    102.79
170    106.04
85    109.86
114    112.89
112    114.98
203    117.23
286    121.68
149    128.61
80    135.11
50    138.59
103    139.04
96    137.72
187    136.16
32    134.62
130    132.17
134    129.47
91    127.18
42    124.21
33    119.6
33    113.36
48    106.11
72    98.76
37    91.82
112    85.64
90    81.01
57    77.68
34    74.55
90    71.49
49    68.97
37    66.64
94    64.46
68    63.09
136    62.97
414    66.95
185    77.16
127    89.82
226    101.96
52    113.02
84    121.14
134    126.26
148    130.12
233    134.23
142    139.15
158    143.85
186    147.99
380    153.74
352    163.68
42    175.09
222    183.43
57    188.25
355    191.4
192    195.39
112    198.99
152    199.87
92    198.17
261    195.27
31    191.95
308    188.31
72    185.26
127    181.62
56    176.04
36    168.3
127    159.01
66    149.65
32    140.02
127    130.2
116    121.76
33    114.56
134    107.92
314    104.35
41    104.82
34    105.27
84    103.76
43    101.22
44    97.73
94    93.73
273    91.74
151    93.67
155    98.01
213    103.62
83    109.92
193    115.8
200    121.95
65    128.02
55    131.61
60    131.96
68    129.9
111    126.6
84    123.01
122    119.54
76    116.29
52    112.67
52    108.15
48    102.84
68    97.21
149    92.47
54    89.26
63    86.52
147    84.27
199    84.35
92    86.84
67    89.58
59    91.07
31    91
57    89.43
100    87.32
222    86.77
142    89.11
82    92.76
87    95.73
51    97.37
61    97.49
65    96.34
35    94.18
66    91.1
155    88.42
122    87.54
151    88.5
59    90.27
73    91.47
231    92.96
257    97.51
212    105.57
225    115.64
196    126.53
249    137.75
124    148.47
254    157.91
142    166.26
208    173.28
102    178.35
106    180.62
162    180.35
169    179.15
108    177.35
34    173.61
176    167.98
42    161.71
124    154.8
104    147.7
156    141.46
67    136.03
79    130.48
37    124.13
40    116.83
98    109.22
34    102.06
56    95.09
82    88.55
37    82.77
54    77.38
45    72.31
120    68.24
86    65.93
35    64.69
66    63.45
74    62.39
81    61.96
99    62.34
138    63.98
31    66.46
74    68.41
105    69.98
117    72.16
206    75.9
60    81.07
191    86.58
101    92.37
205    98.65
144    105.54
31    111.61
45    114.65
68    114.78
60    113.11
35    109.97
36    105.33
135    100.35
124    96.78
72    94.62
62    92.57
91    90.34
51    88.1
83    85.77
37    83.27
152    81.17
119    80.68
150    82.07
47    84.25
93    85.91
164    87.61
30    89.72
66    90.76
330    92.61
130    97.97
101    104.47
45    109.1
88    111.35
33    111.5
66    109.79
81    106.91
163    104.42
189    103.98
43    105.01
150    105.84
146    107
100    108.82
96    110.25
103    110.97
156    111.63
148    113.08
192    115.74
106    119.2
69    121.81
57    122.27
38    120.45
182    117.72
74    115.67
142    114.19
430    115.76
101    122.15
123    129.18
121    134.14
45    136.89
35    136.55
32    133.05
182    128.34
96    124.57
64    121.21
32    116.8
85    111.38
61    105.76
45    100.09
112    94.66
63    90.14
92    86.45
33    83.1
59    79.61
55    76.04
38    72.53
94    69.33
106    67.33
229    67.96
31    71.07
39    73.82
86    75.09
149    76.54
39    78.59
148    80.65
185    83.83
139    88.86
161    94.86
127    101.13
77    106.62
124    110.63
75    113.33
62    114.44
33    113.46
53    110.49
207    107.44
143    106.58
102    107.29
148    108.37
126    109.93
102    111.62
46    112.34
94    111.57
70    109.84
33    107.11
229    104.52
66    103.68
75    103.21
127    102.29
56    101.39
103    100.19
49    98.54
82    96.39
114    94.27
150    93.33
112    93.86
37    94.55
31    93.76
51    91.33
108    88.48
32    85.86
127    83.5
108    82.19
135    82.4
139    84.09
101    86.82
138    89.97
50    92.91
205    95.74
91    99.25
48    102.24
211    104.43
118    107.48
128    110.98
341    115.85
68    122.93
48    128.6
61    130.55
51    129.6
251    128.03
69    127.73
115    127.45
139    126.65
69    125.67
53    123.53
41    119.65
77    114.52
100    109.29
37    104.3
101    99.34
87    94.99
33    91.08
38    86.7
56    81.89
43    77.13
92    72.9
59    69.63
57    67.05
174    65.72
33    66.13
111    67.14
212    69.53
68    74
83    78.5
239    83.22
136    89.77
82    96.66
61    101.71
72    104.5
39    105.21
37    103.85
320    102.96
114    105.37
119    109.21
137    112.56
88    115.36
101    117.1
163    118.31
143    120.01
74    121.66
54    121.75
70    119.91
36    116.48
34    111.51
60    105.43
34    98.9
78    92.38
41    86.29
64    80.66
33    75.4
48    70.38
43    65.67
72    61.62
314    60.59
45    63.91
35    67.92
33    69.97
129    71.13
160    73.36
47    76.71
75    79.44
188    82.07
82    85.73
79    89.24
93    91.72
42    93.12
242    94.57
163    98.19
77    103
34    106.16
130    107.36
73    107.76
154    108.06
121    108.85
92    109.88
108    110.45
72    110.38
146    109.97
114    109.97
34    109.71
142    108.58
42    107.11
70    104.91
103    102.15
45    99.33
36    95.82
49    91.37
114    87.03
41    83.48
53    80.09
43    76.45
67    72.86
73    69.79
62    67.42
38    65.33
88    63.45
55    62.14
43    61.09
107    60.31
67    60.39
73    61.04
79    61.93
106    63.33
225    66.52
120    72.3
268    80.31
94    89.91
32    98.26
177    104.16
102    109.23
219    114.42
166    120.4
79    126.16
123    130.07
114    132.4
244    134.7
169    138.36
193    142.95
253    148.36
123    154.34
34    158.2
107    158.4
66    155.94
316    153.51
88    153.07
35    152.03
194    149.15
66    146.09
74    142.26
70    137.03
57    130.78
66    123.81
53    116.43
97    109.21
45    102.54
170    97.02
31    93.04
69    89.44
86    85.86
123    83.29
88    82.05
110    81.76
31    81.63
172    81.68
91    82.84
129    84.96
70    87.22
129    89.34
62    91.23
40    92.07
83    91.56
50    90.26
113    88.74
73    87.54
113    86.8
41    86.18
72    85.08
294    85.37
146    89.35
63    94.75
124    99
85    102.24
114    104.7
191    107.27
178    111.21
107    115.91
234    120.81
189    126.83
50    132.66
108    136.03
130    137.39
47    137.34
127    135.68
73    133.04
67    129.48
35    124.52
85    118.5
180    113.19
219    110.88
215    112.28
61    115.46
49    117.26
273    118.33
42    120.48
55    121.55
162    120.96
396    122.87
309    130.61
263    142.63
469    157.76
338    176.67
190    196.18
40    210.81
123    218.31
63    219.74
151    216.96
269    212.94
498    212.61
61    216.24
114    217.94
56    214.94
134    208.59
327    202.25
423    200.71
558    207.09
118    218.67
200    228.47
128    233.73
209    235.53
340    236.45
92    237.43
200    236.33
82    232.47
128    225.98
390    219.6
44    215.34
51    209.39
98    200.02
37    188.7
345    178.14
42    170.56
79    163.37
257    156.29
214    152.39
41    150.36
266    148.49
32    147.16
134    145.13
97    142.09
66    138.36
44    133.23
288    128.58
97    126.69
126    126.08
119    125.31
99    124.41
203    123.91
48    124
174    123.88
56    123.43
206    123.08
230    124.48
151    128.14
101    131.91
167    134.72
64    136.53
211    137.59
135    138.97
43    139.76
41    137.96
156    134.38
62    130.65
138    126.97
234    124.68
47    124.19
31    122.69
197    120.05
42    117.93
41    115.1
58    110.68
46    105.36
95    99.87
163    95.68
130    93.85
34    93.12
102    91.97
138    91.16
315    93.2
200    99.58
199    108.63
35    117.13
378    125.06
57    133.93
201    141.96
73    147.79
40    150.57
145    150.21
228    149.58
115    150.07
198    150.89
190    152.3
205    154.81
265    158.7
215    164.24
338    171.52
88    179.45
301    186.29
120    192.02
115    195.47
195    196.18
69    195
229    192.33
83    189
67    184.07
270    178.3
159    174.32
144    171.58
44    167.9
65    162.05
95    154.52
104    146.68
113    139.32
40    132.19
207    125.71
36    120.67
127    116.21
38    111.7
67    106.83
92    101.79
250    98.71
154    99.2
92    101.65
97    103.74
216    106.04
96    109.43
48    112.16
169    113.52
173    115.42
186    118.8
189    123.48
48    128.01
89    130.33
158    130.97
36    130.78
161    129.57
82    128.01
133    126.38
155    125.12
123    124.69
117    124.52
125    124.26
60    123.49
95    121.66
87    119.05
69    115.93
88    112.34
31    108.18
36    103
103    97.38
104    92.75
59    89.21
53    85.85
34    82.11
152    78.82
39    76.81
135    75.75
180    76.47
66    79.09
39    81.37
175    83.05
132    85.88
102    89.64
254    94.39
145    101.07
276    109.56
311    120.65
95    133.25
224    144.41
202    154.27
218    163.65
181    172.13
50    178.11
33    179.43
54    175.99
37    169.1
160    160.7
135    153.07
80    146.43
833    145.76
107    155.54
50    166.88
78    172.42
109    173.6
176    172.69
47    170.51
129    166.53
111    161.47
272    157.43
188    156.09
135    156.36
195    156.78
33    156.54
299    155.82
345    158.13
54    163.24
339    168.26
216    174.32
176    180.97
135    185.87
166    188.53
383    191.33
39    195.14
283    197.74
58    198.68
106    197.04
170    192.95
105    188.05
48    181.68
246    174.55
230    169.7
178    167.7
35    165.76
212    162.63
154    159.95
212    158.66
136    158.32
125    157.87
143    156.69
183    155.52
41    154.05
48    150.45
82    144.59
132    138.23
86    132.4
158    127.41
158    124.02
183    122.74
40    122.35
162    121.54
395    123.15
163    129.43
260    137.96
135    146.63
176    154.21
65    159.44
56    161.19
94    159.48
206    156.65
67    154.06
232    151.73
128    150.38
151    149.65
151    148.96
87    147.97
133    146.13
42    143.2
55    138.51
106    132.53
61    126.34
115    120.31
110    115.06
115    110.97
64    107.54
184    104.89
134    104.08
255    105.81
89    109.65
135    113.63
124    116.89
184    120.19
59    123.27
164    125.4
70    126.66
49    126.37
31    123.65
127    119.49
75    115.36
54    111.16
52    106.25
160    101.64
123    98.85
38    97.11
31    94.51
99    91.07
39    87.66
33    83.92
33    79.46
118    75.25
98    72.58
82    71.41
92    71.07
78    71.3
107    72.04
39    72.96
120    73.76
236    76.16
32    80.58
115    84.71
94    87.99
103    90.92
134    93.73
64    96.36
194    98.94
122    102.35
188    106.71
76    111.22
108    114.69
39    116.3
120    116.23
30    114.89
123    112.6
102    110.27
172    108.97
87    108.76
169    109.27
98    110.35
116    111.49
104    112.27
43    112.2
34    110.31
117    107.13
113    104.33
72    102.17
239    101.24
143    102.86
38    105.34
31    105.84
158    104.88
86    104.26
111    103.98
31    103.15
44    100.92
32    97.16
64    92.54
170    88.7
44    86.52
50    84.55
37    81.78
68    78.57
58    75.44
87    72.81
139    71.46
105    71.92
94    73.54
172    76.16
64    79.76
32    82.6
106    83.99
74    84.9
295    87.31
91    92.43
103    98.04
98    102.34
47    105.1
137    106.45
166    107.99
74    110.05
40    110.93
130    110.3
54    109.1
52    107.01
181    104.69
51    103.3
209    102.88
32    103.29
110    103.36
127    103.13
109    103.45
47    103.51
49    102.24
75    99.73
49    96.6
44    92.84
67    88.62
76    84.58
61    81.03
123    78.3
76    76.79
44    75.73
33    74.07
45    71.65
37    68.78
33    65.59
104    62.72
214    62.21
123    65.12
79    69.6
110    73.93
74    77.86
164    81.76
60    85.82
132    89.5
57    92.5
38    94.08
74    93.91
78    92.87
66    91.47
59    89.61
48    87.17
105    84.59
107    82.84
101    82.22
112    82.5
36    82.96
94    82.88
35    82.22
32    80.64
104    78.47
64    76.73
102    75.63
65    75.04
87    74.74
69    74.59
90    74.6
32    74.48
66    73.75
44    72.48
32    70.67
35    68.16
39    65.18
64    62.23
80    59.97
112    59.02
156    60.13
148    63.66
130    69.01
114    75.08
87    80.89
132    86.09
129    91.16
53    95.66
100    98.7
127    100.9
79    102.81
52    103.67
105    103.29
127    102.8
118    102.97
138    103.82
168    105.66
76    108.1
105    109.9
115    110.96
65    111.41
79    110.76
33    108.75
161    106.17
75    104.24
32    102.17
56    98.86
35    94.58
127    90.3
34    86.72
32    83.02
84    78.99
92    75.72
31    73.2
42    70.5
88    67.8
91    66.05
36    65.05
50    63.91
40    62.39
74    60.87
104    60.1
68    60.41
140    61.76
93    64.38
145    68.1
39    72.15
35    74.99
43    75.95
67    75.73
91    75.29
125    75.54
208    77.73
80    81.92
42    85.79
31    87.53
179    88.32
172    90.61
48    94.06
137    96.91
111    99.46
215    102.83
55    106.9
114    110.09
31    111.49
58    110.84
46    108.31
55    104.53
32    99.77
39    94.19
113    88.69
80    84.42
45    81.01
45    77.52
141    74.58
32    72.84
47    71.19
85    69.33
32    67.69
46    65.83
44    63.63
154    62.23
84    62.68
106    64.47
127    67.18
37    70.28
147    73.19
268    77.9
68    85.05
47    91.39
46    94.95
106    96.57
127    97.8
127    99.51
408    104
505    115.78
280    134.82
180    155.04
273    172.83
175    188.09
64    199.18
36    203.9
570    206.61
174    212.94
91    219.04
203    221.13
124    220.56
33    216.91
235    210.52
101    203.71
72    196.04
38    186.12
200    175.33
73    165.57
56    156.01
89    145.88
59    135.81
303    127.86
160    124.39
127    123.8
42    123.04
158    121.45
51    119.62
37    116.73
551    116.22
231    123.21
404    136.07
195    151.48
184    166.24
54    177.1
157    183.27
265    187.15
351    192.45
105    198.96
68    202.55
257    202.76
34    201.32
79    196.96
78    189.42
142    180.57
108    171.79
46    162.79
88    152.96
154    143.55
106    135.8
61    128.95
114    122.32
214    117.39
248    116.23
42    117.69
154    118.92
126    119.86
134    121.07
86    121.96
58    121.63
166    120.41
68    119.29
552    121.54
465    132.63
125    149.85
173    165.32
251    177.59
97    187.43
158    193.73
198    197.21
186    199.46
180    200.78
41    200.02
437    198.62
144    199.71
242    201.9
254    204.18
182    206.85
156    208.45
105    207.76
71    204.02
139    197.68
52    189.68
234    181.3
529    177.56
320    182.02
168    190.37
100    196.69
44    198.47
46    195.26
159    188.87
180    182.29
137    176.69
184    171.86
135    167.79
39    163.25
74    156.81
142    149.47
152    143.16
73    137.91
114    132.79
36    127.3
185    122
147    118.48
235    117.75
70    118.95
46    119.42
42    117.55
103    114.2
76    110.57
169    107.65
37    105.6
212    104.3
101    104.49
136    105.7
101    107.04
74    107.93
32    107.37
94    105.34
40    102.49
32    98.66
66    93.92
68    89.14
83    84.92
71    81.42
44    78.29
143    75.82
217    75.91
45    78.57
34    80.82
112    81.73
62    82.37
103    82.93
55    83.29
119    83.55
107    84.28
47    85.19
33    85.01
105    83.88
127    83.29
87    83.77
115    84.79
55    85.83
112    86.57
106    87.45
154    89.16
66    91.46
48    92.96
106    93.26
53    93
45    91.86
360    92.1
38    95.81
151    100.29
106    104.07
108    107.39
230    110.92
198    116.23
34    121.86
188    125.88
85    128.88
201    131.52
237    135.13
73    139.57
152    142.77
147    144.82
31    145.55
119    144.04
33    140.67
125    136.04
42    130.73
89    124.86
35    118.41
50    111.33
32    103.69
94    96.18
219    90.9
80    88.9
32    87.83
76    85.94
78    83.84
59    81.88
116    80.25
225    80.6
61    83.36
89    86.29
34    87.94
150    88.84
35    89.63
55    89.55
40    88.09
115    86.14
42    84.39
79    82.58
102    80.97
44    79.76
69    78.36
48    76.61
190    75.67
40    76.31
145    77.68
69    79.44
270    82.7
104    88.28
105    94.41
140    99.69
80    104.26
53    107.22
34    107.78
273    107.91
98    110.01
103    112.69
199    115.15
68    117.9
59    119.37
44    118.48
159    116.42
115    114.95
92    114
84    112.68
171    111.52
45    110.84
171    110.22
56    109.77
41    108.49
94    105.87
153    103.54
58    102.12
98    100.7
178    99.86
33    99.93
117    99.66
31    98.65
175    97.54
34    96.9
110    96.14
109    95.38
35    94.65
168    93.84
84    93.87
109    94.46
40    94.61
121    94.18
156    94.35
96    95.71
34    96.74
56    96.17
41    94.13
133    91.71
199    91
254    93.87
219    100.56
215    109.75
110    119.36
164    127.67
188    134.93
37    140.77
125    143.79
80    144.4
36    142.78
92    138.89
37    133.49
130    127.45
113    122.03
105    117.68
91    113.91
55    110.11
112    106.17
173    103.4
126    102.66
48    102.61
96    101.82
40    100.18
65    97.64
112    94.82
168    93.31
207    94.45
177    98.41
188    104.32
194    111.5
93    118.78
186    125.06
263    131.7
149    139.47
88    146.13
380    152.18
121    159.72
111    166.23
38    168.88
41    167.27
83    162.26
93    155.6
128    148.7
95    142.21
76    135.85
209    130.29
51    126.25
145    122.77
350    121.75
234    125.79
231    133.29
52    140.76
62    145.11
102    145.97
33    144.31
39    140.04
190    134.67
207    131.3
118    130.34
46    129.34
87    126.79
34    122.79
33    117.27
140    111.21
91    106.26
164    102.99
54    100.99
67    98.94
89    96.42
136    94.46
164    94.16
276    96.89
191    103.18
124    110.98
45    117.25
147    121.15
389    126.09
374    136.33
74    149.53
108    159.84
290    167.21
90    173.71
246    178.83
235    183.56
97    187.8
119    189.39
174    188.58
287    187.97
131    188.53
41    187.62
103    183.4
116    177.17
97    170.18
107    162.71
529    158.56
124    160.71
61    163.93
41    163.37
46    159.15
106    152.71
183    146.43
137    141.84
190    138.99
418    139.89
47    144.76
127    148.96
196    151.35
32    152.73
83    151.6
428    150.91
51    153.51
33    155.07
178    153.61
31    150.93
112    146.84
40    141.34
118    135.08
33    128.43
165    122.03
46    116.51
437    114.15
166    117.48
146    123.63
66    128.55
216    132.13
82    135.28
223    138.18
144    141.36
66    143.87
104    144.2
91    142.74
55    139.76
92    135.33
127    130.52
59    125.9
114    121.21
227    117.87
42    116.45
78    114.74
36    111.61
128    107.85
66    104.4
82    101.15
72    97.84
46    94.35
251    92
79    92.31
32    93.12
86    92.58
56    91.26
68    89.45
209    88.43
74    89.32
239    91.95
333    98.15
153    108.27
148    118.85
137    127.82
84    134.6
136    138.97
132    141.74
207    144.19
39    146.11
97    145.93
144    144.12
144    142.35
142    141.04
90    139.66
111    137.6
74    134.68
186    131.71
161    130.09
175    130.18
148    131.36
52    132.25
147    131.87
65    130.63
95    128.47
114    125.64
265    124.19
160    125.59
129    128.37
46    130.08
95    129.73
52    127.57
50    123.81
33    118.44
58    111.9
58    104.96
115    98.62
165    94.26
45    91.85
61    89.61
53    86.77
76    83.77
106    81.28
65    79.62
54    78.12
44    76.2
180    74.88
68    75.28
88    76.42
92    77.54
278    80.34
125    86.13
65    92.56
200    98.15
142    104.15
98    110.06
31    113.98
98    115.35
70    115.07
108    113.92
201    113.31
112    114.21
47    115.01
128    114.6
176    114.45
138    115.64
105    117.31
133    118.68
46    119.25
57    118.11
36    115
123    110.93
89    107.24
149    104.6
168    103.7
199    105.2
55    107.97
63    109.59
103    109.56
398    111.39
65    117.01
58    122.25
32    123.98
161    123.57
76    122.73
95    121.43
124    119.65
108    118.07
168    117.15
66    116.79
56    115.61
104    113.25
123    110.91
203    110.02
72    110.64
369    113.34
78    118.92
316    126.16
124    134.35
64    141.32
37    144.38
217    144.91
314    146.99
189    152.18
166    158.18
322    164.45
203    172.13
175    179.72
441    187.74
206    198
515    210.49
242    225.19
338    239.93
300    253.26
122    263.8
161    269
350    270.66
72    270.71
127    266.98
330    260.81
184    255.51
42    249.18
40    238.75
111    224.92
426    212.67
134    205.33
37    199
105    190.24
171    180.78
373    174.36
237    173.19
91    174.29
260    174.99
254    176.86
53    179.21
111    179
46    175.63
47    169.38
79    160.89
362    153.79
108    150.78
172    149.69
43    148.01
173    145.42
127    142.92
149    141.05
46    138.86
42    134.99
39    129.02
158    122.54
72    117.09
88    112.31
34    107.3
88    101.98
39    96.63
95    91.54
854    93.47
48    106.91
51    121.82
38    130.75
52    134.75
96    135.36
77    134.04
136    131.81
52    129.09
40    125.09
148    120.25
88    116.11
119    112.77
40    109.54
136    106.24
33    103.08
99    99.76
64    96.39
144    93.71
175    92.89
276    95.52
66    100.87
187    106.5
134    111.99
219    118.02
82    124.08
129    128.83
140    132.16
276    135.98
160    141.38
35    146.03
80    147.35
47    145.53
46    141.19
88    135.14
42    128.29
60    120.78
64    112.97
93    105.63
62    99.14
118    93.7
50    89.33
222    86.68
177    87.3
160    90.9
49    95.14
44    97.73
228    99.49
102    102.49
362    107.91
37    115.53
149    122.34
86    126.96
114    129.89
140    131.58
126    132.82
109    133.52
249    134.53
40    136.19
64    136.22
32    133.43
335    130.74
47    130.51
76    130.21
80    128
74    124.68
74    120.56
91    116.04
41    111.23
293    107.74
75    107.3
128    108.1
195    109.48
47    111.56
50    112.28
92    111.13
38    108.85
235    106.84
73    106.57
92    106.74
34    105.77
63    103.4
196    101.12
78    100.43
77    100.13
56    98.99
50    96.84
48    93.73
79    90.13
75    86.74
47    83.58
37    80.14
117    76.84
163    75.35
47    75.77
146    76.89
112    78.91
45    81.26
112    82.96
87    84.45
56    85.62
43    85.7
113    85.05
101    84.79
42    84.74
118    84.41
96    84.46
132    85.34
133    87.24
151    90.32
45    93.63
67    95.61
98    96.27
71    96.35
103    96.07
357    97.9
68    103.28
96    108.82
118    112.56
218    116.22
127    120.77
256    126.23
41    131.81
125    135.54
132    137.41
243    139.5
66    142.12
34    142.82
60    140.28
147    136.23
135    132.69
156    130.33
424    131.37
104    136.9
60    142.29
122    144.57
42    144.42
115    142.21
102    138.95
97    135.33
92    131.33
48    126.68
58    121.02
32    114.37
105    107.43
114    101.54
132    97.54
210    96.09
99    97.17
157    99.41
60    101.74
186    103.96
204    107.45
126    112.46
57    116.79
201    119.87
204    123.71
77    128.18
47    130.71
60    130.27
57    127.5
62    123.17
56    117.79
36    111.57
67    104.8
34    97.88
50    90.94
89    84.5
33    78.97
58    73.93
38    69.2
89    65.16
43    62.07
291    61.48
243    66.1
127    74.8
196    84.64
31    93.86
149    101.13
95    106.84
320    113.07
112    121.03
73    128.18
342    134.33
54    141.23
482    149.47
242    161.14
127    173.68
443    185.22
56    196.68
379    206.6
50    214.47
154    218.64
51    218.02
113    213.48
198    206.94
99    200.16
281    194
113    189.28
45    184.03
181    177.15
78    170.1
75    162.55
67    153.9
63    144.53
46    134.64
57    124.43
70    114.49
227    106.64
225    103.28
36    103.16
105    102.97
98    102.29
36    101.18
32    98.68
73    94.98
69    91.08
88    87.58
55    84.51
246    83.02
59    84.11
55    85.61
248    87.36
87    91.04
173    95.71
58    100.16
85    103.33
160    105.54
36    107.37
110    108.06
163    108.47
228    110.66
127    114.82
32    118.42
30    119.11
206    118.19
168    118.6
47    119.85
178    120.48
31    120.57
91    119.4
97    117.16
88    114.67
59    111.74
111    108.46
182    106.19
89    105.59
133    105.71
74    105.85
48    105.19
91    103.39
33    100.8
109    97.7
36    94.5
55    90.91
74    87.01
151    84.08
239    84.14
112    87.46
183    92.39
31    97.28
37    100.14
279    102.19
58    105.74
91    108.95
71    110.38
135    110.88
143    111.58
173    113.32
152    116.17
383    121.55
55    129.61
41    135.88
37    137.64
101    136.27
165    134.08
62    132.06
90    129.31
107    125.84
65    122.11
135    118.32
42    114.65
52    110.33
63    105.15
139    100.35
99    97.02
214    95.8
31    96.29
146    96.96
129    97.99
96    99.66
118    101.25
86    102.57
116    103.54
67    104.04
155    104.33
57    104.69
46    104.12
47    101.89
105    98.88
100    96.26
58    94.09
46    91.51
100    88.6
80    86.15
123    84.6
130    84.37
44    84.92
108    85.23
150    86.03
68    87.72
138    89.59
204    92.56
184    97.74
42    103.5
85    107.39
106    109.45
99    110.68
44    110.85
140    110.03
146    109.65
92    110.05
36    109.76
38    107.6
176    104.8
116    103.37
109    103.12
92    103.04
78    102.65
66    101.55
57    99.59
86    97.03
51    94.19
61    91
50    87.41
35    83.43
35    78.95
35    74.1
128    69.89
63    67.3
160    66.49
129    67.88
112    71.03
30    74.24
34    75.95
41    75.91
69    74.91
45    73.54
101    72.22
85    71.56
128    71.97
33    72.99
212    74.69
114    78.2
57    82.37
66    85.26
134    87.31
103    89.59
155    92.43
179    96.4
105    101.32
174    106.35
50    110.81
67    113.37
49    113.54
76    111.93
164    110.03
38    108.6
63    106.43
51    103.08
46    98.88
32    93.9
86    88.64
68    83.97
229    81.34
138    82.13
46    84.54
191    87.04
96    90.38
133    94.18
174    98.37
36    102.57
127    105.46
106    107.45
57    108.69
206    109.57
67    111.03
88    112.01
115    112.03
394    114.18
96    120.26
280    128.01
224    136.92
115    146.09
407    155.34
327    167.55
365    182.98
862    204.41
127    232.12
155    256.01
293    271.78
366    283.96
206    294.02
488    302.4
61    309.07
315    311.59
99    309.81
240    304.51
304    297.75
130    290.87
113    281.66
110    269.27
57    254.26
218    238.14
112    223.04
333    210.59
423    204.01
147    203.15
110    202.62
129    199.66
231    195.79
343    194.08
238    195.85
80    198.13
48    197.04
434    194.77
245    196.16
222    200.14
158    203.55
152    205.14
145    204.62
118    202.12
245    198.73
132    195.7
64    191.69
32    184.78
68    175.07
240    165.31
50    157.36
362    151.88
150    150.31
78    150.26
41    148.14
165    144.35
84    140.47
92    136.39
55    131.47
81    125.76
113    120
157    115.48
290    114.15
46    115.78
343    119.15
75    124.42
58    128.86
48    129.98
316    130.42
97    132.84
215    136.26
82    139.39
132    141.39
557    145.66
154    155.58
70    165.68
168    171.73
38    174.36
39    172.99
117    168.22
104    162.18
66    155.47
46    147.6
78    138.74
32    129.37
132    120.25
73    112.39
104    105.86
122    100.71
110    97.25
123    95.22
172    94.9
155    96.63
72    99.31
146    101.74
38    103.55
117    104.32
108    104.6
36    104.41
110    103.24
100    101.88
100    100.86
178    100.7
109    101.89
127    103.73
69    105.28
89    105.9
91    105.68
54    104.72
195    103.78
64    103.82
36    103.39
128    101.85
58    100.21
77    98.31
32    95.65
113    92.57
39    89.64
113    86.95
47    84.62
165    83.11
113    83.26
127    84.87
43    86.67
43    87.3
68    86.54
38    84.92
267    84.26
98    86.47
80    89.75
137    92.54
196    96.13
67    100.58
47    103.77
33    104.4
49    102.8
344    102.11
66    104.78
131    108.34
78    110.83
164    112.79
112    114.84
72    116.4
47    116.27
162    115.05
55    113.85
62    111.95
174    109.72
166    109.14
40    109.59
90    109.1
74    107.57
152    106.08
122    105.56
187    106.47
168    109.1
129    112.87
254    117.6
105    123.41
154    128.85
218    133.93
172    139.64
75    144.64
60    146.85
222    147.16
99    147.51
251    148.43
267    151.37
55    155.52
364    159.65
213    165.71
67    171.92
150    175.1
246    176.82
85    178.29
59    177.47
182    174.21
196    171.09
137    168.93
115    166.55
169    163.68
85    160.54
252    157.74
75    155.87
178    154.09
57    151.7
327    149.97
53    149.99
52    149.06
137    145.91
293    143.79
93    144.14
286    145.94
45    148.34
121    149.38
71    148.23
274    146.9
254    148.2
32    150.99
79    151.44
246    150.41
186    150.89
182    152.86
396    157.07
38    163.4
47    167.13
50    166.04
135    162.09
37    156.72
223    151.04
40    146.06
41    140.31
101    133.18
152    126.62
327    123.46
39    123.89
108    124.36
36    123.04
166    120.84
110    119.12
132    118.15
77    117.23
76    115.66
128    113.61
40    111.37
57    108.21
343    106.31
580    112.19
129    126.31
51    140.17
100    148.88
44    153.06
163    154.12
39    153.24
109    150.43
54    145.93
236    141.44
162    139.02
49    137.6
246    136.17
34    135.32
190    134.37
47    133.02
76    130.59
72    126.71
34    121.68
162    116.36
126    112.46
71    109.77
160    107.63
123    106.68
32    106.04
121    104.62
181    103.83
118    104.74
71    106
80    106.28
148    106.11
167    106.96
163    109.37
58    112.12
54    113.28
111    112.73
399    114.14
150    120.1
233    128.31
73    136
186    142.03
63    146.13
108    147.91
64    147.25
33    144.16
46    138.54
112    131.67
188    125.88
169    122.73
239    122.55
241    125.65
186    131.3
116    137.27
77    141.37
136    143.2
170    144.16
120    145.04
92    145.09
36    143.16
298    140.79
72    140.13
127    139.7
70    138.04
62    134.97
397    133.04
298    136.64
42    143.35
58    147.35
86    147.61
120    145.84
54    142.85
159    139.06
88    135.4
316    133.5
78    134.2
110    135.09
40    134.13
159    131.87
142    129.92
104    128.65
96    127.13
158    125.53
96    124.36
46    122.64
35    119.16
123    114.57
111    110.54
228    108.55
108    108.98
175    110.79
81    112.96
211    115.38
111    118.47
171    121.88
64    124.72
52    125.68
44    124.05
81    120.56
171    117.04
124    115.01
77    113.74
44    111.7
86    108.56
38    104.7
112    100.58
51    96.72
52    92.8
50    88.46
119    84.48
33    81.32
87    78.47
34    75.71
190    73.95
130    74.63
181    77.86
43    82.13
157    86.17
189    90.87
61    96.35
64    100.44
38    102.13
135    102.33
242    103.63
44    106.64
57    108.61
78    108.51
98    107.42
41    105.67
42    102.69
150    99.32
42    96.65
395    96.59
153    101.39
86    108.17
136    113.57
36    117.19
156    119.1
32    119.77
29    118.4
92    114.99
64    110.9
72    106.56
89    102.19
118    98.54
130    96.25
75    95.06
34    93.61
72    91.21
96    88.65
127    86.99
35    86.03
224    85.92
44    87.33
148    89.31
80    91.32
31    92.65
99    92.6
44    91.78
101    90.51
66    89.14
64    87.6
103    86.01
31    84.44
117    82.79
104    81.84
69    81.67
42    81.19
120    80.4
334    82.2
48    87.68
184    94
54    99.58
31    103.22
207    105.26
31    107.26
103    108.33
144    108.71
106    109.51
145    110.63
147    112.31
203    115.14
145    119.24
34    122.76
46    123.57
38    121.48
100    117.74
112    113.92
60    110.42
146    107.24
43    104.54
203    102.62
43    101.82
68    100.81
70    98.78
198    97.33
185    98.35
92    101.28
67    103.77
130    105.18
128    106.54
116    108.19
136    109.96
212    112.62
172    116.93
37    121.23
115    123.5
267    125.55
40    128.63
56    130.07
86    128.87
48    126.01
200    122.84
112    120.98
39    119.39
235    117.75
90    117.54
100    117.74
50    116.84
229    115.84
231    117.31
38    120.54
132    122.66
66    123.27
100    122.7
57    120.9
36    117.61
126    113.36
300    111.21
94    112.61
184    115.48
33    117.93
53    118.44
45    116.46
46    112.71
197    108.9
362    108.99
156    114.25
509    124.17
146    138.41
203    152.92
36    163.77
84    169.65
383    173.38
212    179.23
104    185.26
220    189.03
152    191.41
41    191.6
125    188.44
111    183.17
191    177.57
52    171.96
43    164.84
42    155.51
34    144.67
154    133.84
58    124.5
35    115.81
35    106.76
64    97.76
61    89.55
34    82.17
65    75.46
33    69.49
57    64.21
111    60.2
55    57.91
42    56.41
106    55.43
54    55.38
85    55.98
136    57.54
136    60.87
48    65.13
183    69.63
31    74.41
150    78.85
189    83.89
48    89.68
99    94.29
240    98.69
97    104.33
53    109.19
174    112.41
105    115.32
68    117.46
66    117.76
89    116.51
226    115.59
52    115.94
103    115.96
95    115.08
202    114.68
148    115.91
133    118.2
105    120.32
142    121.96
200    124.04
53    126.43
70    127.19
220    127
126    127.9
71    128.84
48    127.94
100    125.26
104    122.01
80    118.73
98    115.31
63    111.71
60    107.64
50    102.94
188    98.84
67    96.52
127    95.26
155    95.07
154    96.64
29    98.7
160    100.08
46    101.08
102    101.44
36    100.74
81    99.01
61    96.57
79    93.87
110    91.44
173    90.45
274    92.68
137    98.35
40    104.25
297    109.54
40    115.48
118    120.27
44    122.6
96    122.85
81    121.62
224    120.65
62    120.79
32    120.05
188    118.13
74    116.74
50    115.03
41    111.74
63    107.18
67    102.12
186    98.06
109    96.22
111    95.89
136    96.31
69    97.18
91    97.65
102    97.7
196    98.54
85    100.7
216    103.8
76    107.6
69    110.55
90    111.68
71    111.5
260    111.75
35    113.38
44    113.98
36    112.03
49    108.25
59    103.41
399    100.97
86    103.48
92    107.41
191    110.66
138    114.52
173    118.93
78    122.99
204    126.42
155    130.13
139    134.04
122    137.18
443    141.81
217    150.7
179    161.15
252    170.59
108    178.67
304    185.29
292    192.49
126    199.97
74    204.18
184    204.46
148    202.83
36    199.19
147    192.92
46    184.91
93    175.51
37    164.81
186    154.18
53    144.83
266    137.53
234    134.16
142    134.35
60    134.82
101    133.76
297    133.14
127    135.01
275    138.77
270    144.81
63    151.84
217    157.23
71    160.84
254    163.34
131    165.71
159    167.61
129    168.3
131    167.82
99    165.97
183    163.33
34    160.07
38    154.73
118    147.47
50    139.78
323    133.78
109    131.41
143    130.89
77    130.08
136    128.75
102    127.22
58    125.15
33    121.53
98    116.63
42    111.31
205    106.79
81    104.2
50    102.23
46    99.25
127    95.94
38    93.05
88    90.19
211    88.53
52    88.97
44    89.32
40    88.15
59    85.88
91    83.39
43    81.08
166    79.48
42    79.06
438    81.75
183    90.11
67    100.63
95    108.73
130    114.52
92    118.83
174    122.22
124    125.41
200    128.83
355    134.37
84    142.3
147    149.16
214    154.35
46    158.32
117    159.65
449    161.39
60    166.2
126    170.11
247    172.1
273    175.28
35    178.73
303    180.8
146    182.9
99    184.2
126    183.01
107    179.88
418    177.82
107    179.02
590    184.04
44    192.7
57    199.01
44    199.01
63    194.21
295    188.02
408    185.8
76    187.73
231    189.52
33    189.36
56    185.97
85    179.21
161    171.38
331    165.84
203    164.57
55    164.69
105    162.81
84    158.92
54    153.46
56    146.32
252    139.52
230    136.24
184    136.58
165    138.6
44    140.18
177    140.3
161    140.38
122    140.92
450    143.71
393    152.68
196    166.2
126    178.5
38    186.03
92    188.12
244    187.36
113    186.33
69    183.86
81    178.68
83    171.49
332    165.14
32    161.26
32    156.54
134    149.73
31    142.36
167    135.06
150    129.3
89    125.23
111    121.62
96    118.23
84    114.94
218    112.62
156    112.69
125    114.39
217    117.04
336    122.56
380    133.08
109    146.56
93    157.67
106    164.27
81    167.08
52    166.39
116    162.9
262    159.38
65    157.25
81    154.35
47    149.35
142    143.27
67    137.22
137    131.5
45    126.01
89    120.3
46    114.22
352    110.21
67    110.22
124    111.6
214    113.32
82    116.11
31    117.79
101    117.23
234    116.79
238    119.22
82    123.63
62    126.74
125    127.69
58    127.26
134    125.84
102    124.15
68    122.12
175    119.96
38    118.13
338    117.68
227    121.15
36    126.59
135    130.15
255    133.19
232    138.32
359    146.49
157    156.93
108    166.14
88    171.5
86    173.01
172    172.04
32    169.47
169    165.3
37    160.05
168    154.18
37    148.04
101    141.34
160    134.88
226    130.83
610    133.44
59    143.34
105    152.99
93    158.32
34    159.86
180    158.62
112    156.63
93    154.06
65    150.05
112    144.84
261    140.63
151    139.23
46    138.6
82    136.25
81    132.41
229    129.02
89    127.35
76    125.86
43    122.95
297    120.47
127    120.86
154    122.97
40    124.43
100    124.22
137    123.08
100    122.07
69    120.62
68    118.09
284    116.29
390    119.46
164    127.99
67    136.71
42    141.68
437    145.64
118    152.32
58    158.39
151    160.97
332    163.33
260    168.57
87    174.7
245    179.21
82    182.17
63    182.35
39    178.55
94    171.78
61    163.38
307    155.92
38    150.96
48    145.77
293    140.55
331    139.84
40    142.85
340    146.6
222    152.35
31    158.39
370    163.16
319    170.34
82    179.13
59    184.42
351    186.93
230    190.81
506    198.26
55    208.03
74    214.32
260    215.92
236    216.86
65    217
599    217.9
36    222.05
127    224.49
499    225.45
113    228.91
490    233.99
160    240.45
154    245.39
661    250.35
69    258.55
510    267.05
334    276.4
251    286.15
129    292.13
86    292.04
448    288.55
525    288.77
172    293.12
187    295.47
180    293.57
127    288.05
143    279.16
94    267.44
310    255.02
922    250.55
177    257.97
70    266.19
43    266.73
166    261.11
157    252.66
274    244.13
257    237.51
296    233.56
140    230.99
384    229.33
153    229.23
91    228.06
50    222.86
96    214.01
49    202.66
227    190.86
714    185.56
169    190.3
50    196.66
50    197.7
331    195.98
307    196.59
386    201.47
1023    215.74
294    241.72
286    269.06
67    288.71
82    298.35
942    305.53
236    318.99
440    333.92
329    346.19
89    353.94
226    354.27
426    350.88
385    348.78
100    346.37
73    338.61
85    324.4
373    308.03
68    292.85
140    277.03
119    259.78
47    241.66
127    222.75
37    203.86
228    186.33
44    171.28
172    158.21
252    148.32
197    143.05
34    139.91
175    136.55
332    135.36
522    141.14
147    153.31
135    165.33
327    175.17
36    183.67
135    188.51
114    189.47
365    189.96
354    193.88
270    201.47
472    211.82
148    223.87
311    234.54
570    245.95
196    260.01
204    271.75
54    277.22
90    275.58
159    268.56
67    258.35
123    245.57
315    232.95
84    222.56
184    212.84
40    202.51
84    190.89
119    178.49
226    167.71
62    159.18
217    152.11
36    146.11
53    139.56
317    133.77
60    131.08
127    129.36
63    126.9
43    123.31
278    120.04
346    121.34
127    127.31
680    138.14
66    154.5
245    170.53
164    183.04
178    192.72
224    199.88
67    204.48
108    205.11
185    202.71
46    198.57
85    191.9
40    182.66
212    172.75
140    164.49
47    157.23
166    149.85
92    143.18
128    137.33
159    132.53
274    130.41
56    130.75
47    130.28
75    127.52
77    123.49
97    119.06
200    115.65
612    118.28
95    128.81
33    139.44
81    144.97
249    148.08
202    151.98
478    159.19
236    170.89
255    184.03
139    195.24
179    203.22
128    207.78
523    212.29
240    220.33
86    228.13
346    232.82
288    237.49
191    242.37
34    243.94
170    240.69
51    233.82
293    225.58
39    217.46
92    207.95
47    196.14
164    183.62
42    171.49
369    161.69
65    155.84
224    152.2
45    149.01
143    145.45
531    145.04
101    150.6
219    157.69
36    162.63
35    163.77
158    161.43
304    159.72
133    160.54
44    160.93
224    159.61
38    157.72
149    154.8
120    151.25
146    147.98
120    145
33    141.42
126    136.63
97    131.64
55    126.61
114    121.27
121    116.54
54    112.48
239    109.54
67    108.62
341    110.18
142    115.02
92    120.8
66    124.47
92    125.77
86    125.39
36    123.48
94    120.04
62    115.86
119    111.64
136    108.33
143    106.63
70    105.87
86    104.85
46    103
143    100.85
53    99.07
57    96.98
51    94
35    90.25
101    86.27
306    84.83
138    87.91
89    92.85
44    96.51
87    98.31
199    99.88
243    103.74
67    109.41
97    114.02
141    117.1
85    119.4
117    120.76
161    121.77
230    124.02
214    128.49
96    133.85
141    138.03
33    140.06
149    139.95
46    138.38
152    135.88
64    132.92
289    130.97
43    130.79
218    131.23
388    134.34
212    142.15
32    150.34
149    155.15
111    157.35
280    159.2
187    162.4
86    165.57
182    167
35    166.6
57    163.39
38    157.15
159    149.67
198    143.6
162    140.14
145    138.37
122    137.19
207    136.67
224    138.01
328    142.55
122    149.52
45    154.99
64    156.37
72    154.32
164    150.76
76    147.01
204    143.61
266    142.44
201    144.52
116    147.78
144    150.16
83    151.04
90    150.06
55    147.02
330    144.22
212    144.95
157    148.2
166    151.49
106    153.9
98    154.61
261    154.7
234    156.67
90    159.73
45    160.59
285    159.82
244    161.01
160    164.28
62    166.52
221    166.92
205    167.56
63    168.24
218    167.75
160    167.28
72    166.44
356    165.76
322    168.84
227    175.67
34    181.74
70    183.41
32    180.41
172    174.72
222    169.57
56    165.59
360    162.82
232    163.6
249    167.6
342    173.92
376    183.71
48    194.47
39    200.49
54    200
44    194.7
49    185.89
34    174.56
562    165.77
444    166.72
298    176.21
334    188.89
67    200.81
52    207.59
56    207.84
132    203.66
799    202.95
356    212.79
72    226.22
571    237.8
97    249.55
146    257.8
482    262.78
280    269.32
79    274.65
185    274.84
210    271.4
337    267.61
158    264.49
230    260.7
275    256.59
38    251.77
217    244.53
52    235.33
76    223.9
383    212.68
560    208.63
146    212.15
45    215.22
91    213.23
87    207.33
240    200.19
329    195.53
297    195.32
70    196.88
49    195.61
101    190.46
40    182.72
132    173.43
111    164.09
