51.00,55.33,1
36.00,55.63,1
54.00,55.48,1
67.00,55.27,1
42.00,55.19,1
81.00,55.22,1
38.00,55.42,1
68.00,55.60,1
36.00,55.63,1
83.00,55.66,1
40.00,55.85,1
38.00,55.80,1
42.00,55.22,1
82.00,54.65,1
62.00,54.62,1
115.00,55.45,1
94.00,57.46,1
72.00,60.20,1
40.00,62.58,1
80.00,64.23,1
42.00,65.36,1
370.00,68.50,1
239.00,77.14,1
69.00,88.78,1
150.00,99.06,1
36.00,106.92,1
51.00,111.58,1
94.00,113.35,1
249.00,114.97,1
134.00,118.43,1
55.00,121.86,1
450.00,126.21,1
73.00,133.87,1
58.00,140.68,1
121.00,143.74,1
140.00,144.92,1
90.00,145.07,1
194.00,144.63,1
90.00,144.21,1
61.00,142.69,1
86.00,139.27,1
134.00,135.08,1
138.00,131.49,1
162.00,129.16,1
76.00,127.56,1
146.00,125.93,1
83.00,124.25,1
146.00,122.65,1
36.00,120.78,1
52.00,117.60,1
120.00,113.44,1
376.00,112.07,1
1023.00,123.06,1
912.00,154.76,1
342.00,199.97,1
380.00,244.11,1
404.00,282.02,1
312.00,313.91,1
131.00,337.27,1
55.00,349.06,1
251.00,350.54,1
56.00,345.06,1
331.00,335.19,1
202.00,324.20,1
104.00,312.03,1
148.00,297.08,1
214.00,280.93,1
921.00,271.80,1
363.00,275.92,1
108.00,284.48,1
612.00,291.42,1
218.00,299.88,1
664.00,310.54,1
436.00,324.80,1
313.00,340.21,1
40.00,349.75,1
148.00,349.88,1
107.00,341.97,1
134.00,328.74,1
926.00,318.58,1
688.00,322.53,1
297.00,336.37,1
1023.00,354.87,1
214.00,378.40,1
131.00,396.84,1
170.00,403.02,1
113.00,399.17,1
1023.00,394.77,1
737.00,402.35,1
363.00,418.44,1
106.00,429.76,1
111.00,429.77,1
42.00,418.67,1
1023.00,406.39,1
214.00,402.68,1
175.00,399.99,1
474.00,393.27,1
36.00,384.73,1
990.00,378.23,1
97.00,378.32,1
390.00,378.88,1
217.00,375.80,1
87.00,368.50,1
328.00,356.73,1
352.00,345.04,1
1023.00,341.71,1
35.00,347.98,1
490.00,354.32,1
55.00,356.27,1
122.00,351.86,1
39.00,339.63,1
242.00,322.81,1
120.00,304.62,1
120.00,285.71,1
61.00,265.37,1
48.00,243.51,1
36.00,220.42,1
40.00,196.91,1
267.00,175.69,1
81.00,159.17,1
917.00,152.44,1
82.00,158.90,1
38.00,167.88,1
138.00,171.64,1
36.00,171.73,1
172.00,169.28,1
81.00,165.62,1
161.00,161.47,1
92.00,157.05,1
119.00,152.33,1
98.00,147.23,1
38.00,141.40,1
44.00,134.08,1
237.00,127.08,1
35.00,122.13,1
503.00,121.06,1
50.00,125.31,1
434.00,132.98,1
38.00,142.36,1
182.00,150.49,1
58.00,155.50,1
44.00,156.97,1
44.00,154.43,1
106.00,149.34,1
180.00,144.14,1
249.00,141.36,1
284.00,142.54,1
55.00,145.95,1
62.00,147.46,1
36.00,145.49,1
238.00,142.26,1
36.00,139.63,1
195.00,137.19,1
94.00,135.10,1
83.00,132.90,1
203.00,130.65,1
85.00,129.37,1
106.00,128.07,1
57.00,125.78,1
45.00,122.09,1
622.00,121.63,1
56.00,128.37,1
522.00,139.62,1
83.00,153.33,1
1023.00,172.99,1
85.00,200.47,1
197.00,226.23,1
295.00,244.66,1
170.00,258.51,1
345.00,268.57,1
124.00,275.46,1
304.00,278.99,1
334.00,281.26,1
660.00,287.19,1
73.00,296.53,1
308.00,303.02,1
1023.00,312.10,1
379.00,331.45,1
834.00,356.83,1
273.00,383.54,1
106.00,403.40,1
849.00,416.21,1
176.00,428.55,1
441.00,437.30,1
514.00,442.47,1
460.00,447.72,1
185.00,450.25,1
633.00,449.37,1
206.00,447.53,1
338.00,442.71,1
431.00,435.25,1
212.00,426.85,1
225.00,415.20,1
436.00,401.69,1
183.00,388.72,1
310.00,375.15,1
154.00,360.33,1
344.00,345.09,1
520.00,333.38,1
171.00,326.33,1
928.00,325.00,1
188.00,331.69,1
356.00,339.53,1
367.00,344.73,1
857.00,353.46,1
700.00,371.40,1
728.00,397.37,1
436.00,425.40,1
291.00,448.26,1
446.00,462.94,1
485.00,472.55,1
649.00,481.30,1
469.00,490.67,1
730.00,500.71,1
532.00,512.16,1
240.00,520.72,1
210.00,520.10,1
708.00,513.63,1
124.00,506.18,1
192.00,493.23,1
196.00,472.74,1
614.00,451.43,1
258.00,434.22,1
482.00,420.13,1
353.00,408.55,1
145.00,397.25,1
299.00,383.28,1
232.00,368.03,1
133.00,351.66,1
819.00,338.48,1
464.00,335.76,1
266.00,339.27,1
376.00,342.06,1
142.00,342.41,1
205.00,338.50,1
264.00,331.09,1
1023.00,329.12,1
199.00,337.49,1
56.00,344.90,1
197.00,343.23,1
112.00,335.31,1
141.00,322.80,1
538.00,310.29,1
353.00,303.52,1
164.00,300.00,1
439.00,296.66,1
49.00,293.32,1
111.00,286.41,1
232.00,275.79,1
482.00,267.33,1
279.00,264.32,1
138.00,263.06,1
342.00,260.81,1
54.00,257.71,1
79.00,251.12,1
164.00,240.90,1
56.00,228.97,1
263.00,216.74,1
97.00,205.90,1
327.00,197.34,1
215.00,192.35,1
420.00,191.95,1
129.00,195.13,1
52.00,197.13,1
430.00,197.60,1
191.00,200.55,1
687.00,208.63,1
98.00,221.67,1
452.00,235.30,1
455.00,249.97,1
179.00,265.58,1
144.00,276.57,1
49.00,279.90,1
132.00,276.23,1
381.00,270.03,1
114.00,264.73,1
434.00,260.57,1
55.00,257.37,1
240.00,252.88,1
109.00,246.44,1
157.00,238.46,1
193.00,229.56,1
101.00,220.53,1
425.00,213.16,1
180.00,209.90,1
469.00,210.89,1
284.00,216.27,1
601.00,226.80,1
316.00,242.25,1
332.00,258.90,1
1023.00,279.66,1
172.00,307.32,1
256.00,331.60,1
83.00,345.25,1
386.00,350.85,1
205.00,352.25,1
150.00,349.41,1
110.00,340.75,1
560.00,330.57,1
121.00,323.10,1
237.00,315.33,1
687.00,309.61,1
324.00,310.97,1
172.00,314.20,1
472.00,315.69,1
154.00,316.88,1
62.00,314.24,1
62.00,304.60,1
92.00,289.47,1
185.00,271.92,1
414.00,256.83,1
515.00,249.53,1
308.00,250.29,1
227.00,253.83,1
281.00,256.76,1
164.00,258.37,1
162.00,257.39,1
1023.00,260.62,1
99.00,273.55,1
374.00,287.54,1
248.00,297.70,1
335.00,305.54,1
122.00,309.93,1
162.00,309.11,1
787.00,308.47,1
251.00,314.30,1
377.00,322.11,1
352.00,328.61,1
297.00,334.07,1
588.00,339.86,1
426.00,348.71,1
250.00,357.91,1
457.00,364.50,1
702.00,372.87,1
201.00,383.99,1
284.00,391.20,1
308.00,392.65,1
331.00,390.90,1
765.00,391.00,1
475.00,397.45,1
123.00,404.40,1
386.00,405.49,1
262.00,402.49,1
376.00,397.51,1
365.00,391.97,1
162.00,385.27,1
98.00,373.89,1
130.00,356.85,1
462.00,338.85,1
68.00,323.25,1
348.00,308.52,1
190.00,295.00,1
109.00,281.89,1
377.00,269.07,1
183.00,259.07,1
269.00,251.27,1
292.00,245.42,1
134.00,241.03,1
364.00,237.37,1
175.00,235.33,1
233.00,233.83,1
474.00,234.19,1
118.00,237.48,1
223.00,239.84,1
110.00,239.27,1
381.00,237.73,1
174.00,237.35,1
211.00,236.98,1
376.00,236.90,1
352.00,239.91,1
105.00,244.08,1
243.00,245.82,1
147.00,245.08,1
48.00,241.24,1
169.00,233.74,1
62.00,223.98,1
194.00,213.17,1
141.00,202.79,1
230.00,194.04,1
54.00,186.39,1
316.00,179.82,1
233.00,176.50,1
130.00,175.68,1
303.00,175.83,1
338.00,179.02,1
242.00,185.64,1
627.00,196.54,1
249.00,212.80,1
237.00,229.42,1
348.00,243.31,1
147.00,254.74,1
302.00,262.78,1
409.00,269.80,1
381.00,278.62,1
313.00,288.37,1
118.00,295.56,1
187.00,297.31,1
174.00,294.24,1
82.00,287.25,1
68.00,275.77,1
199.00,261.36,1
223.00,247.44,1
127.00,235.07,1
83.00,222.51,1
138.00,209.16,1
79.00,195.73,1
180.00,182.99,1
290.00,173.29,1
247.00,168.50,1
438.00,169.45,1
78.00,174.50,1
131.00,178.56,1
398.00,181.84,1
209.00,187.75,1
299.00,195.26,1
333.00,203.94,1
322.00,214.45,1
1003.00,231.74,1
457.00,260.25,1
88.00,289.84,1
124.00,308.92,1
239.00,317.95,1
266.00,321.48,1
190.00,321.45,1
196.00,317.74,1
206.00,310.92,1
175.00,301.89,1
202.00,291.29,1
102.00,279.22,1
125.00,265.19,1
124.00,249.67,1
73.00,233.28,1
114.00,216.30,1
336.00,201.50,1
420.00,193.59,1
347.00,193.77,1
350.00,199.69,1
200.00,207.92,1
207.00,215.21,1
215.00,220.48,1
347.00,225.32,1
304.00,231.58,1
136.00,237.69,1
388.00,242.43,1
148.00,246.78,1
660.00,253.03,1
333.00,264.35,1
296.00,277.64,1
239.00,288.17,1
240.00,295.00,1
313.00,298.94,1
313.00,301.80,1
668.00,307.31,1
213.00,316.75,1
98.00,323.30,1
180.00,322.30,1
57.00,315.09,1
219.00,303.41,1
135.00,289.65,1
186.00,275.19,1
412.00,262.69,1
91.00,253.65,1
240.00,245.29,1
201.00,237.21,1
167.00,229.90,1
185.00,222.71,1
274.00,216.58,1
169.00,212.22,1
565.00,211.62,1
206.00,216.69,1
616.00,226.62,1
363.00,241.51,1
255.00,258.06,1
452.00,273.06,1
318.00,287.65,1
315.00,300.82,1
383.00,311.89,1
505.00,323.12,1
228.00,334.37,1
344.00,342.67,1
119.00,346.15,1
77.00,342.76,1
116.00,332.00,1
204.00,317.03,1
175.00,300.98,1
362.00,286.39,1
179.00,274.76,1
202.00,264.46,1
132.00,253.78,1
199.00,242.76,1
272.00,232.98,1
199.00,225.64,1
231.00,220.05,1
135.00,215.11,1
187.00,209.92,1
252.00,205.33,1
311.00,203.36,1
268.00,204.59,1
217.00,207.55,1
279.00,211.05,1
312.00,215.72,1
226.00,221.48,1
248.00,226.90,1
488.00,233.53,1
128.00,242.03,1
152.00,247.88,1
176.00,249.14,1
131.00,247.09,1
127.00,241.98,1
214.00,235.02,1
452.00,230.28,1
51.00,228.74,1
92.00,225.33,1
51.00,217.64,1
47.00,206.60,1
258.00,194.67,1
232.00,185.74,1
352.00,181.69,1
140.00,181.52,1
151.00,181.87,1
475.00,183.71,1
142.00,189.37,1
316.00,196.30,1
506.00,205.69,1
393.00,220.37,1
394.00,238.16,1
262.00,255.73,1
224.00,270.07,1
260.00,280.03,1
416.00,287.92,1
462.00,297.26,1
234.00,307.56,1
143.00,314.07,1
214.00,314.67,1
384.00,312.59,1
111.00,309.70,1
51.00,302.73,1
802.00,295.81,1
127.00,295.47,1
84.00,294.86,1
163.00,288.41,1
86.00,277.99,1
660.00,269.10,1
166.00,266.46,1
219.00,265.67,1
181.00,262.77,1
123.00,257.67,1
461.00,252.61,1
131.00,250.15,1
90.00,246.73,1
106.00,239.37,1
410.00,231.74,1
183.00,227.45,1
230.00,225.01,1
80.00,221.68,1
208.00,216.75,1
258.00,212.06,1
140.00,208.63,1
105.00,204.43,1
334.00,200.11,1
129.00,197.69,1
113.00,195.13,1
181.00,191.13,1
153.00,186.96,1
294.00,184.08,1
111.00,182.86,1
187.00,181.70,1
134.00,179.91,1
259.00,178.52,1
133.00,178.05,1
383.00,179.33,1
80.00,182.50,1
217.00,185.15,1
190.00,186.86,1
87.00,187.63,1
286.00,187.37,1
98.00,187.24,1
100.00,185.73,1
191.00,182.48,1
59.00,178.44,1
374.00,175.12,1
253.00,175.54,1
204.00,179.03,1
416.00,184.72,1
203.00,193.19,1
123.00,201.06,1
269.00,206.30,1
260.00,211.08,1
114.00,215.19,1
168.00,216.60,1
144.00,215.41,1
398.00,214.44,1
181.00,215.91,1
62.00,216.67,1
107.00,213.46,1
58.00,206.64,1
103.00,197.34,1
141.00,187.11,1
214.00,178.10,1
212.00,171.83,1
93.00,167.43,1
64.00,162.36,1
172.00,156.37,1
107.00,150.90,1
195.00,146.56,1
165.00,143.91,1
260.00,143.64,1
155.00,145.64,1
108.00,147.96,1
204.00,149.58,1
149.00,151.37,1
455.00,155.70,1
128.00,163.69,1
87.00,170.95,1
74.00,173.89,1
254.00,174.40,1
100.00,174.66,1
107.00,173.71,1
273.00,172.10,1
148.00,171.80,1
116.00,171.55,1
485.00,172.83,1
90.00,177.78,1
389.00,184.38,1
130.00,191.55,1
257.00,198.14,1
346.00,204.79,1
99.00,211.74,1
158.00,215.83,1
111.00,216.13,1
267.00,214.57,1
319.00,214.26,1
238.00,216.40,1
478.00,221.42,1
198.00,229.44,1
221.00,237.00,1
650.00,245.58,1
279.00,258.96,1
218.00,272.35,1
356.00,282.38,1
149.00,289.58,1
280.00,293.17,1
223.00,293.90,1
295.00,293.17,1
89.00,290.35,1
168.00,283.90,1
136.00,274.23,1
82.00,262.09,1
176.00,248.12,1
176.00,234.34,1
100.00,221.30,1
231.00,209.09,1
275.00,199.82,1
239.00,194.63,1
703.00,196.29,1
262.00,206.92,1
168.00,219.68,1
295.00,229.48,1
654.00,241.04,1
143.00,256.31,1
251.00,269.29,1
303.00,278.09,1
475.00,286.59,1
376.00,297.08,1
103.00,306.22,1
268.00,310.04,1
188.00,309.47,1
382.00,307.29,1
103.00,304.19,1
502.00,300.77,1
605.00,302.41,1
225.00,309.68,1
205.00,315.38,1
152.00,315.76,1
149.00,311.02,1
181.00,302.35,1
159.00,291.27,1
145.00,278.54,1
417.00,266.80,1
363.00,260.20,1
368.00,259.10,1
491.00,262.80,1
302.00,270.66,1
415.00,280.18,1
436.00,291.13,1
164.00,301.84,1
368.00,309.34,1
487.00,316.28,1
417.00,325.69,1
410.00,336.40,1
413.00,347.06,1
531.00,358.31,1
363.00,370.22,1
248.00,379.46,1
417.00,384.41,1
429.00,387.95,1
201.00,390.01,1
142.00,386.67,1
290.00,377.73,1
168.00,365.81,1
284.00,352.12,1
222.00,337.99,1
202.00,323.75,1
184.00,308.89,1
153.00,293.36,1
306.00,278.42,1
269.00,266.41,1
360.00,258.43,1
445.00,255.70,1
359.00,258.49,1
478.00,265.68,1
434.00,276.85,1
396.00,290.60,1
351.00,304.49,1
367.00,317.10,1
305.00,327.68,1
450.00,336.68,1
356.00,345.30,1
492.00,354.10,1
377.00,363.29,1
393.00,371.81,1
386.00,378.80,1
338.00,384.01,1
400.00,387.34,1
279.00,388.79,1
216.00,386.75,1
519.00,382.55,1
180.00,378.55,1
287.00,372.63,1
258.00,364.13,1
474.00,356.19,1
239.00,350.32,1
380.00,345.29,1
859.00,345.45,1
558.00,356.13,1
546.00,373.29,1
351.00,390.53,1
278.00,403.34,1
533.00,411.64,1
475.00,419.38,1
526.00,428.03,1
285.00,435.42,1
440.00,439.30,1
620.00,442.48,1
450.00,447.89,1
596.00,454.72,1
551.00,463.01,1
470.00,471.92,1
546.00,479.93,1
286.00,485.42,1
350.00,485.67,1
260.00,480.09,1
249.00,469.18,1
158.00,452.94,1
197.00,431.90,1
285.00,408.47,1
319.00,386.14,1
279.00,366.33,1
144.00,347.57,1
386.00,329.69,1
426.00,316.29,1
511.00,310.23,1
425.00,310.83,1
426.00,315.79,1
318.00,322.35,1
448.00,329.16,1
419.00,336.95,1
745.00,348.62,1
254.00,363.87,1
564.00,378.45,1
278.00,390.73,1
378.00,399.52,1
368.00,404.59,1
244.00,406.27,1
366.00,404.17,1
588.00,402.14,1
266.00,402.24,1
235.00,400.17,1
160.00,392.77,1
212.00,380.52,1
331.00,366.16,1
180.00,351.85,1
164.00,336.38,1
148.00,318.86,1
180.00,300.28,1
188.00,282.00,1
310.00,265.93,1
301.00,254.11,1
370.00,247.31,1
567.00,247.28,1
513.00,255.83,1
338.00,269.84,1
577.00,286.17,1
559.00,306.13,1
655.00,330.68,1
329.00,356.56,1
369.00,378.33,1
302.00,393.71,1
625.00,405.59,1
539.00,418.48,1
306.00,431.07,1
567.00,440.58,1
745.00,451.30,1
554.00,466.22,1
536.00,481.89,1
287.00,493.67,1
427.00,498.95,1
432.00,499.49,1
319.00,496.70,1
203.00,488.71,1
427.00,475.98,1
208.00,460.99,1
242.00,443.35,1
231.00,422.86,1
346.00,401.99,1
604.00,385.47,1
720.00,378.93,1
424.00,381.94,1
481.00,388.53,1
545.00,396.66,1
490.00,406.82,1
244.00,415.71,1
322.00,419.45,1
324.00,418.35,1
371.00,414.76,1
650.00,412.51,1
666.00,416.54,1
686.00,427.99,1
567.00,444.15,1
714.00,462.74,1
728.00,484.11,1
362.00,505.30,1
425.00,520.17,1
375.00,527.36,1
283.00,527.43,1
454.00,521.50,1
393.00,512.81,1
300.00,501.96,1
458.00,489.06,1
382.00,476.30,1
349.00,463.83,1
272.00,450.15,1
357.00,435.22,1
392.00,420.87,1
469.00,409.36,1
769.00,404.43,1
278.00,406.20,1
382.00,408.24,1
646.00,410.24,1
300.00,414.51,1
604.00,419.34,1
508.00,425.85,1
798.00,436.72,1
709.00,453.86,1
318.00,472.85,1
543.00,487.26,1
403.00,497.04,1
468.00,503.02,1
444.00,505.68,1
368.00,505.22,1
416.00,501.36,1
424.00,495.24,1
252.00,486.75,1
286.00,474.22,1
384.00,458.91,1
344.00,443.68,1
311.00,428.86,1
334.00,414.14,1
687.00,403.04,1
388.00,398.62,1
453.00,397.96,1
599.00,399.95,1
745.00,408.05,1
639.00,423.39,1
225.00,439.63,1
336.00,449.18,1
337.00,451.82,1
466.00,451.02,1
435.00,449.58,1
352.00,447.57,1
473.00,444.55,1
313.00,440.87,1
297.00,434.98,1
316.00,426.21,1
433.00,416.70,1
238.00,407.42,1
316.00,397.02,1
349.00,386.04,1
425.00,376.84,1
392.00,370.55,1
410.00,366.92,1
418.00,365.53,1
374.00,365.80,1
440.00,367.19,1
269.00,368.71,1
311.00,368.31,1
405.00,366.53,1
583.00,367.19,1
443.00,372.23,1
638.00,381.19,1
453.00,393.42,1
493.00,406.57,1
422.00,418.51,1
285.00,427.13,1
538.00,432.21,1
513.00,437.27,1
382.00,442.76,1
554.00,447.43,1
655.00,453.94,1
732.00,465.39,1
408.00,479.56,1
532.00,491.67,1
353.00,499.71,1
389.00,502.73,1
282.00,500.12,1
290.00,491.92,1
277.00,478.82,1
544.00,464.49,1
347.00,452.39,1
262.00,440.61,1
235.00,426.20,1
694.00,412.95,1
519.00,407.05,1
526.00,407.82,1
596.00,412.87,1
584.00,422.15,1
314.00,432.42,1
383.00,439.10,1
346.00,441.37,1
499.00,441.52,1
423.00,441.64,1
410.00,441.63,1
342.00,440.13,1
407.00,436.82,1
627.00,434.60,1
309.00,434.83,1
458.00,434.71,1
573.00,435.11,1
273.00,436.56,1
227.00,434.33,1
376.00,427.28,1
264.00,418.04,1
257.00,406.76,1
236.00,393.04,1
199.00,377.28,1
268.00,360.24,1
383.00,344.60,1
598.00,334.82,1
632.00,334.69,1
319.00,341.64,1
411.00,349.53,1
578.00,358.19,1
357.00,368.89,1
317.00,378.12,1
305.00,383.31,1
257.00,384.30,1
443.00,382.76,1
566.00,383.07,1
652.00,389.11,1
293.00,398.71,1
602.00,408.04,1
304.00,416.53,1
320.00,421.84,1
299.00,422.16,1
240.00,417.92,1
307.00,409.82,1
312.00,399.72,1
406.00,389.87,1
354.00,381.71,1
354.00,375.03,1
279.00,368.64,1
326.00,361.81,1
398.00,355.64,1
667.00,354.01,1
613.00,360.52,1
474.00,373.22,1
579.00,388.28,1
663.00,405.90,1
312.00,424.26,1
611.00,439.88,1
558.00,454.49,1
571.00,469.60,1
471.00,483.50,1
513.00,494.83,1
416.00,502.89,1
404.00,506.80,1
572.00,507.87,1
618.00,509.81,1
395.00,512.64,1
386.00,512.66,1
292.00,507.75,1
252.00,497.25,1
213.00,481.11,1
306.00,461.02,1
223.00,439.12,1
307.00,416.69,1
362.00,395.78,1
375.00,378.44,1
534.00,366.36,1
371.00,360.06,1
500.00,358.12,1
488.00,360.21,1
434.00,365.71,1
383.00,372.19,1
504.00,378.90,1
462.00,386.80,1
644.00,397.19,1
542.00,410.87,1
698.00,427.75,1
561.00,447.21,1
505.00,466.45,1
558.00,483.25,1
431.00,496.98,1
356.00,505.62,1
298.00,507.33,1
258.00,501.76,1
249.00,489.68,1
324.00,473.12,1
249.00,454.31,1
295.00,434.20,1
305.00,413.96,1
320.00,395.02,1
469.00,379.25,1
295.00,367.61,1
368.00,358.41,1
401.00,351.42,1
595.00,349.16,1
365.00,352.04,1
558.00,358.16,1
379.00,366.37,1
467.00,375.23,1
365.00,383.43,1
594.00,391.79,1
535.00,402.51,1
354.00,414.06,1
519.00,423.70,1
635.00,433.79,1
452.00,445.70,1
452.00,456.48,1
241.00,462.75,1
310.00,462.44,1
224.00,455.75,1
279.00,444.13,1
339.00,429.82,1
200.00,414.25,1
384.00,397.99,1
279.00,382.76,1
261.00,368.47,1
470.00,355.94,1
471.00,348.56,1
310.00,345.66,1
280.00,343.37,1
467.00,341.32,1
485.00,342.55,1
384.00,347.21,1
452.00,353.39,1
368.00,360.08,1
241.00,365.08,1
326.00,366.51,1
460.00,366.64,1
651.00,370.36,1
357.00,378.54,1
399.00,386.84,1
289.00,392.28,1
170.00,392.85,1
119.00,386.37,1
148.00,373.27,1
201.00,355.93,1
270.00,337.76,1
367.00,321.95,1
142.00,308.78,1
361.00,296.91,1
268.00,287.45,1
396.00,281.46,1
278.00,278.69,1
326.00,277.96,1
241.00,277.89,1
358.00,278.30,1
225.00,279.17,1
448.00,281.00,1
360.00,285.36,1
409.00,292.28,1
267.00,299.86,1
365.00,306.52,1
377.00,312.81,1
357.00,319.46,1
250.00,325.04,1
413.00,329.01,1
261.00,332.20,1
230.00,333.26,1
292.00,331.39,1
423.00,329.23,1
328.00,328.84,1
296.00,329.04,1
322.00,328.57,1
489.00,329.17,1
240.00,331.48,1
537.00,334.75,1
263.00,339.21,1
599.00,345.17,1
439.00,353.97,1
321.00,363.83,1
543.00,372.72,1
361.00,381.77,1
411.00,389.88,1
430.00,396.48,1
408.00,402.27,1
424.00,407.17,1
239.00,409.78,1
375.00,408.69,1
434.00,406.10,1
296.00,403.42,1
309.00,399.06,1
381.00,393.23,1
383.00,387.81,1
305.00,382.88,1
133.00,375.76,1
183.00,364.15,1
172.00,348.71,1
326.00,332.46,1
213.00,317.70,1
301.00,304.68,1
347.00,294.32,1
463.00,288.79,1
617.00,290.76,1
465.00,300.48,1
397.00,314.06,1
413.00,327.81,1
465.00,341.38,1
489.00,355.56,1
634.00,371.82,1
572.00,391.18,1
502.00,411.87,1
419.00,430.47,1
510.00,445.65,1
484.00,458.35,1
616.00,470.17,1
578.00,482.60,1
603.00,495.71,1
615.00,509.14,1
184.00,519.18,1
277.00,520.11,1
240.00,511.52,1
210.00,496.01,1
282.00,475.50,1
276.00,452.78,1
291.00,429.83,1
301.00,407.75,1
295.00,387.30,1
625.00,371.51,1
277.00,362.32,1
320.00,355.77,1
421.00,350.08,1
417.00,347.24,1
444.00,347.68,1
566.00,352.01,1
346.00,359.59,1
423.00,367.38,1
564.00,375.68,1
554.00,386.98,1
450.00,400.38,1
458.00,413.14,1
369.00,423.50,1
564.00,431.92,1
419.00,439.87,1
279.00,445.23,1
185.00,444.16,1
342.00,436.79,1
354.00,426.77,1
301.00,416.21,1
318.00,404.94,1
240.00,392.68,1
451.00,380.70,1
360.00,371.43,1
399.00,365.11,1
323.00,360.48,1
383.00,356.84,1
528.00,355.67,1
388.00,358.15,1
534.00,363.41,1
498.00,371.62,1
406.00,381.60,1
450.00,391.12,1
620.00,401.38,1
323.00,412.55,1
468.00,421.73,1
777.00,431.63,1
572.00,446.38,1
484.00,462.79,1
383.00,475.85,1
259.00,482.45,1
280.00,481.10,1
344.00,473.72,1
406.00,463.78,1
305.00,452.95,1
220.00,439.95,1
236.00,423.63,1
213.00,404.67,1
244.00,384.33,1
345.00,364.82,1
259.00,347.79,1
416.00,333.93,1
414.00,324.82,1
449.00,321.17,1
281.00,321.01,1
294.00,321.07,1
331.00,320.41,1
499.00,321.35,1
269.00,324.66,1
288.00,327.39,1
485.00,329.63,1
219.00,332.65,1
426.00,335.10,1
316.00,337.35,1
438.00,340.28,1
373.00,344.20,1
229.00,347.47,1
155.00,346.59,1
187.00,340.42,1
252.00,330.88,1
234.00,320.33,1
356.00,310.61,1
244.00,302.81,1
198.00,295.48,1
336.00,288.21,1
288.00,282.74,1
548.00,281.32,1
332.00,285.16,1
399.00,292.06,1
447.00,300.70,1
300.00,310.51,1
523.00,320.70,1
324.00,331.65,1
264.00,340.87,1
383.00,346.81,1
534.00,352.79,1
206.00,359.37,1
268.00,362.50,1
376.00,362.10,1
367.00,361.29,1
223.00,359.74,1
244.00,355.38,1
564.00,350.85,1
229.00,349.08,1
179.00,346.11,1
208.00,338.95,1
185.00,328.68,1
222.00,316.60,1
528.00,306.52,1
153.00,300.61,1
410.00,296.46,1
473.00,295.48,1
383.00,299.44,1
436.00,306.42,1
227.00,313.85,1
501.00,320.63,1
139.00,326.48,1
168.00,327.94,1
201.00,323.68,1
224.00,316.27,1
364.00,308.54,1
278.00,302.65,1
338.00,298.57,1
777.00,299.92,1
494.00,310.82,1
335.00,326.19,1
356.00,339.65,1
298.00,349.73,1
122.00,354.73,1
255.00,353.33,1
351.00,348.66,1
164.00,342.83,1
306.00,335.20,1
174.00,326.14,1
178.00,315.32,1
225.00,302.88,1
199.00,290.24,1
448.00,279.89,1
313.00,274.43,1
347.00,273.02,1
527.00,275.63,1
229.00,281.97,1
259.00,287.76,1
286.00,291.16,1
527.00,295.35,1
183.00,301.40,1
344.00,306.26,1
408.00,310.40,1
393.00,316.16,1
370.00,323.02,1
403.00,330.26,1
314.00,337.17,1
172.00,341.21,1
215.00,340.22,1
141.00,334.28,1
226.00,324.71,1
116.00,312.55,1
179.00,298.19,1
221.00,283.17,1
205.00,269.21,1
158.00,256.22,1
212.00,243.94,1
431.00,234.92,1
426.00,232.74,1
475.00,238.08,1
168.00,247.04,1
198.00,254.01,1
181.00,257.02,1
161.00,256.74,1
224.00,254.04,1
279.00,250.93,1
403.00,250.07,1
233.00,252.06,1
328.00,255.15,1
229.00,258.31,1
356.00,261.61,1
314.00,265.87,1
226.00,270.33,1
214.00,272.88,1
205.00,272.85,1
179.00,270.42,1
186.00,265.83,1
149.00,259.32,1
261.00,251.95,1
149.00,244.80,1
284.00,238.24,1
236.00,233.25,1
247.00,230.04,1
345.00,228.90,1
279.00,230.51,1
215.00,233.36,1
350.00,236.57,1
524.00,243.13,1
283.00,253.93,1
216.00,264.54,1
238.00,271.72,1
202.00,275.58,1
160.00,276.03,1
299.00,274.04,1
334.00,272.49,1
503.00,274.48,1
257.00,280.12,1
234.00,285.48,1
439.00,289.75,1
175.00,294.04,1
262.00,296.25,1
235.00,295.84,1
184.00,293.28,1
348.00,289.49,1
194.00,285.92,1
214.00,281.59,1
207.00,275.81,1
220.00,269.28,1
172.00,262.18,1
230.00,254.65,1
301.00,248.23,1
339.00,244.84,1
276.00,244.60,1
248.00,245.76,1
580.00,249.69,1
249.00,258.23,1
476.00,269.05,1
256.00,280.42,1
255.00,290.07,1
328.00,296.85,1
592.00,304.62,1
261.00,315.18,1
411.00,325.38,1
152.00,332.58,1
214.00,334.70,1
379.00,333.16,1
340.00,331.83,1
241.00,330.58,1
486.00,329.52,1
194.00,329.47,1
114.00,326.66,1
202.00,318.84,1
113.00,307.49,1
173.00,293.62,1
389.00,280.37,1
219.00,270.75,1
250.00,263.40,1
343.00,257.89,1
242.00,254.96,1
530.00,255.53,1
339.00,261.13,1
224.00,268.63,1
478.00,275.92,1
424.00,285.62,1
473.00,298.46,1
643.00,315.06,1
158.00,333.12,1
264.00,345.88,1
210.00,351.49,1
126.00,350.72,1
295.00,344.72,1
105.00,335.51,1
396.00,324.85,1
284.00,315.76,1
218.00,308.19,1
129.00,299.28,1
126.00,287.52,1
165.00,273.58,1
112.00,258.63,1
134.00,243.04,1
99.00,227.12,1
522.00,214.57,1
180.00,208.93,1
212.00,206.78,1
265.00,205.49,1
118.00,204.82,1
161.00,203.01,1
125.00,199.58,1
141.00,194.93,1
153.00,189.57,1
196.00,184.55,1
376.00,182.25,1
208.00,184.05,1
158.00,187.18,1
348.00,190.58,1
290.00,196.36,1
140.00,203.09,1
71.00,206.78,1
93.00,205.84,1
144.00,201.59,1
277.00,197.14,1
105.00,193.87,1
100.00,189.83,1
160.00,184.31,1
104.00,178.36,1
39.00,171.29,1
132.00,162.82,1
435.00,157.11,1
203.00,157.57,1
144.00,160.87,1
188.00,163.66,1
382.00,167.84,1
109.00,174.27,1
96.00,179.14,1
196.00,181.03,1
440.00,184.17,1
206.00,191.04,1
98.00,197.79,1
287.00,202.05,1
332.00,206.91,1
81.00,212.29,1
258.00,215.56,1
220.00,217.66,1
427.00,221.39,1
221.00,227.63,1
97.00,232.84,1
229.00,234.41,1
119.00,233.41,1
177.00,230.23,1
138.00,225.25,1
250.00,219.83,1
253.00,215.82,1
85.00,212.58,1
159.00,207.89,1
279.00,203.09,1
412.00,202.09,1
131.00,204.84,1
190.00,207.30,1
197.00,208.16,1
190.00,208.33,1
185.00,207.86,1
253.00,207.36,1
166.00,207.20,1
142.00,206.23,1
218.00,204.18,1
250.00,202.73,1
404.00,204.22,1
183.00,208.88,1
259.00,214.03,1
188.00,218.21,1
375.00,222.52,1
281.00,228.53,1
180.00,234.77,1
285.00,239.40,1
553.00,245.77,1
181.00,255.48,1
86.00,262.67,1
99.00,263.12,1
87.00,257.80,1
67.00,247.95,1
149.00,235.30,1
63.00,221.42,1
112.00,206.70,1
74.00,191.65,1
194.00,177.63,1
88.00,165.65,1
175.00,155.58,1
215.00,148.18,1
153.00,143.94,1
124.00,141.30,1
359.00,140.90,1
409.00,146.35,1
300.00,157.86,1
379.00,172.86,1
241.00,189.27,1
430.00,206.18,1
303.00,223.82,1
139.00,239.54,1
186.00,249.87,1
260.00,255.81,1
300.00,260.18,1
188.00,263.56,1
210.00,264.72,1
259.00,264.01,1
246.00,262.78,1
246.00,261.40,1
321.00,260.47,1
354.00,261.42,1
266.00,264.21,1
381.00,268.07,1
484.00,274.66,1
257.00,283.85,1
431.00,293.26,1
208.00,301.69,1
280.00,307.42,1
290.00,310.34,1
194.00,311.01,1
522.00,311.15,1
383.00,314.37,1
276.00,319.35,1
328.00,323.00,1
374.00,325.88,1
418.00,329.65,1
231.00,333.54,1
330.00,335.46,1
244.00,335.19,1
268.00,332.85,1
426.00,330.04,1
268.00,328.48,1
226.00,326.25,1
227.00,321.56,1
341.00,315.80,1
237.00,310.45,1
478.00,306.82,1
543.00,308.32,1
282.00,314.59,1
306.00,320.64,1
296.00,324.46,1
323.00,326.70,1
318.00,328.02,1
255.00,328.21,1
499.00,328.48,1
310.00,330.75,1
527.00,335.13,1
348.00,341.59,1
387.00,348.51,1
416.00,354.97,1
353.00,361.14,1
306.00,365.69,1
186.00,366.53,1
260.00,362.74,1
306.00,356.21,1
362.00,349.66,1
229.00,343.52,1
269.00,336.49,1
232.00,328.26,1
161.00,318.49,1
240.00,307.07,1
227.00,295.41,1
438.00,286.16,1
346.00,281.68,1
354.00,281.23,1
467.00,284.21,1
479.00,291.69,1
370.00,302.61,1
346.00,313.85,1
275.00,323.06,1
620.00,331.92,1
454.00,344.01,1
276.00,356.75,1
268.00,365.15,1
460.00,369.97,1
235.00,373.16,1
325.00,373.60,1
313.00,371.47,1
228.00,367.27,1
297.00,360.77,1
198.00,352.32,1
231.00,341.83,1
222.00,329.84,1
393.00,318.65,1
186.00,309.48,1
189.00,300.17,1
193.00,289.45,1
290.00,278.89,1
277.00,270.33,1
382.00,265.01,1
260.00,262.97,1
266.00,262.39,1
308.00,262.37,1
434.00,264.56,1
436.00,270.82,1
296.00,279.89,1
190.00,287.59,1
349.00,292.43,1
259.00,295.91,1
411.00,299.33,1
382.00,304.12,1
392.00,310.70,1
321.00,317.73,1
588.00,325.96,1
335.00,336.63,1
262.00,346.17,1
324.00,351.73,1
184.00,353.32,1
196.00,350.21,1
206.00,342.70,1
288.00,333.06,1
252.00,323.29,1
247.00,313.75,1
303.00,304.80,1
170.00,296.37,1
312.00,288.06,1
374.00,281.88,1
188.00,278.20,1
445.00,276.08,1
478.00,278.22,1
380.00,285.41,1
387.00,294.88,1
282.00,304.20,1
478.00,313.05,1
270.00,321.88,1
430.00,329.92,1
233.00,336.39,1
232.00,339.45,1
243.00,338.32,1
513.00,336.45,1
432.00,338.02,1
258.00,341.54,1
422.00,344.24,1
256.00,346.13,1
304.00,346.34,1
389.00,345.42,1
275.00,344.51,1
220.00,342.00,1
189.00,336.26,1
164.00,327.07,1
193.00,315.12,1
175.00,301.60,1
297.00,288.31,1
188.00,276.58,1
463.00,267.92,1
307.00,264.23,1
642.00,266.94,1
268.00,275.60,1
573.00,287.52,1
310.00,301.31,1
361.00,314.67,1
290.00,325.35,1
504.00,334.65,1
416.00,344.85,1
218.00,354.04,1
399.00,359.66,1
280.00,362.74,1
308.00,363.55,1
401.00,362.86,1
466.00,363.36,1
641.00,368.13,1
210.00,375.77,1
193.00,379.52,1
218.00,376.54,1
422.00,370.48,1
203.00,364.07,1
180.00,355.47,1
319.00,344.45,1
167.00,332.81,1
289.00,320.71,1
339.00,309.88,1
248.00,301.45,1
383.00,295.15,1
576.00,293.72,1
360.00,298.60,1
398.00,306.44,1
432.00,315.40,1
325.00,324.90,1
373.00,333.40,1
503.00,341.86,1
416.00,351.84,1
432.00,362.40,1
354.00,371.96,1
448.00,380.05,1
313.00,386.55,1
424.00,391.07,1
364.00,394.18,1
302.00,395.52,1
184.00,392.95,1
492.00,387.59,1
233.00,382.29,1
310.00,376.06,1
292.00,368.35,1
249.00,359.74,1
197.00,349.41,1
150.00,336.53,1
355.00,322.63,1
528.00,312.89,1
529.00,311.22,1
525.00,317.17,1
410.00,327.68,1
335.00,338.73,1
366.00,347.87,1
471.00,356.03,1
402.00,364.62,1
351.00,372.52,1
768.00,381.69,1
563.00,396.38,1
426.00,413.61,1
427.00,428.25,1
363.00,438.76,1
534.00,446.18,1
550.00,453.44,1
215.00,459.24,1
220.00,458.39,1
198.00,449.63,1
351.00,436.03,1
236.00,420.65,1
186.00,403.37,1
165.00,383.33,1
170.00,361.03,1
224.00,338.17,1
284.00,317.07,1
301.00,299.59,1
262.00,285.89,1
522.00,277.15,1
334.00,274.96,1
323.00,276.74,1
518.00,281.31,1
481.00,290.72,1
390.00,303.79,1
416.00,317.55,1
451.00,331.34,1
367.00,344.82,1
576.00,358.22,1
337.00,371.92,1
552.00,384.94,1
501.00,398.18,1
412.00,411.32,1
331.00,421.37,1
183.00,425.44,1
208.00,421.93,1
132.00,411.22,1
182.00,394.83,1
212.00,375.12,1
155.00,353.99,1
142.00,331.70,1
131.00,308.47,1
159.00,285.23,1
230.00,263.76,1
328.00,246.55,1
399.00,236.04,1
361.00,232.57,1
596.00,236.44,1
264.00,246.72,1
409.00,259.09,1
414.00,272.31,1
437.00,287.23,1
498.00,303.86,1
506.00,322.51,1
490.00,342.61,1
317.00,361.47,1
578.00,377.92,1
431.00,393.69,1
564.00,409.24,1
264.00,422.59,1
82.00,428.48,1
139.00,423.47,1
329.00,411.34,1
169.00,396.43,1
218.00,379.28,1
260.00,360.84,1
282.00,343.32,1
133.00,326.57,1
245.00,309.59,1
250.00,293.66,1
613.00,283.04,1
343.00,280.67,1
444.00,284.02,1
412.00,290.79,1
599.00,301.77,1
415.00,316.88,1
675.00,335.34,1
413.00,356.31,1
518.00,377.15,1
543.00,397.01,1
532.00,416.63,1
484.00,435.05,1
383.00,450.23,1
489.00,461.25,1
423.00,469.12,1
462.00,474.45,1
537.00,478.38,1
324.00,480.92,1
283.00,479.08,1
276.00,471.39,1
232.00,458.82,1
258.00,442.30,1
237.00,423.26,1
229.00,402.69,1
293.00,381.92,1
185.00,361.75,1
294.00,342.36,1
522.00,327.01,1
519.00,319.86,1
473.00,320.77,1
599.00,327.91,1
468.00,340.21,1
447.00,354.71,1
463.00,369.11,1
560.00,383.83,1
603.00,400.42,1
630.00,419.62,1
710.00,441.56,1
668.00,466.13,1
578.00,491.12,1
670.00,514.48,1
510.00,535.29,1
677.00,552.97,1
714.00,569.45,1
267.00,582.74,1
209.00,585.61,1
270.00,576.21,1
354.00,559.10,1
366.00,538.74,1
227.00,516.24,1
320.00,491.47,1
330.00,466.25,1
408.00,443.13,1
168.00,421.78,1
302.00,400.25,1
409.00,380.40,1
578.00,366.77,1
536.00,361.71,1
522.00,363.93,1
813.00,373.32,1
698.00,391.72,1
429.00,414.52,1
498.00,435.13,1
630.00,453.39,1
443.00,470.47,1
754.00,486.69,1
603.00,504.06,1
706.00,522.62,1
500.00,540.26,1
856.00,556.99,1
462.00,573.41,1
242.00,583.57,1
345.00,582.66,1
269.00,572.54,1
314.00,555.66,1
278.00,534.14,1
197.00,508.89,1
438.00,482.02,1
277.00,456.82,1
175.00,432.18,1
407.00,407.67,1
368.00,386.78,1
376.00,370.70,1
342.00,358.35,1
518.00,350.17,1
621.00,348.94,1
695.00,356.85,1
845.00,374.74,1
490.00,399.73,1
604.00,425.64,1
468.00,449.16,1
510.00,469.13,1
526.00,485.41,1
439.00,498.26,1
488.00,507.15,1
346.00,511.67,1
308.00,510.48,1
179.00,502.09,1
343.00,487.41,1
272.00,469.51,1
232.00,449.60,1
239.00,427.60,1
229.00,404.49,1
268.00,381.50,1
432.00,361.31,1
150.00,344.62,1
378.00,329.73,1
596.00,319.99,1
444.00,318.72,1
702.00,325.31,1
473.00,338.90,1
386.00,354.84,1
551.00,370.07,1
392.00,384.99,1
449.00,398.34,1
447.00,409.67,1
506.00,420.03,1
461.00,429.88,1
496.00,439.07,1
460.00,447.35,1
524.00,454.89,1
696.00,463.81,1
433.00,474.70,1
344.00,483.02,1
313.00,485.20,1
181.00,480.19,1
309.00,468.58,1
349.00,453.72,1
235.00,437.67,1
279.00,420.06,1
292.00,401.77,1
732.00,387.78,1
670.00,384.40,1
352.00,389.22,1
369.00,394.44,1
600.00,399.34,1
432.00,406.42,1
549.00,415.05,1
585.00,425.39,1
355.00,436.34,1
505.00,445.10,1
430.00,451.88,1
771.00,459.76,1
765.00,473.22,1
820.00,493.65,1
556.00,517.37,1
773.00,540.68,1
378.00,561.01,1
318.00,573.16,1
451.00,575.48,1
447.00,571.97,1
359.00,564.48,1
287.00,552.13,1
275.00,534.41,1
213.00,511.97,1
557.00,488.37,1
206.00,466.95,1
364.00,446.24,1
273.00,425.71,1
310.00,406.08,1
468.00,389.00,1
317.00,376.07,1
549.00,367.47,1
454.00,364.27,1
571.00,366.60,1
337.00,372.27,1
485.00,378.58,1
463.00,385.50,1
346.00,392.55,1
434.00,398.07,1
684.00,404.79,1
483.00,415.49,1
370.00,426.59,1
627.00,436.21,1
252.00,444.60,1
188.00,447.22,1
300.00,442.07,1
244.00,432.06,1
231.00,418.53,1
498.00,404.36,1
243.00,392.37,1
327.00,381.12,1
267.00,369.58,1
376.00,358.81,1
499.00,351.33,1
336.00,348.17,1
601.00,348.90,1
303.00,353.12,1
602.00,359.62,1
398.00,368.43,1
412.00,377.92,1
371.00,385.79,1
420.00,392.03,1
332.00,396.56,1
478.00,399.79,1
533.00,404.09,1
225.00,408.62,1
298.00,409.11,1
473.00,406.63,1
369.00,404.64,1
421.00,403.24,1
342.00,401.68,1
254.00,398.43,1
311.00,392.39,1
267.00,384.25,1
223.00,374.17,1
266.00,362.22,1
227.00,349.25,1
302.00,336.28,1
270.00,324.40,1
330.00,314.34,1
315.00,306.60,1
333.00,301.28,1
410.00,298.82,1
384.00,299.81,1
589.00,305.26,1
283.00,314.65,1
365.00,323.95,1
328.00,331.38,1
450.00,338.24,1
395.00,345.69,1
438.00,353.84,1
464.00,362.69,1
531.00,373.14,1
332.00,384.14,1
366.00,392.68,1
236.00,396.90,1
278.00,396.11,1
234.00,390.84,1
211.00,381.80,1
208.00,369.33,1
242.00,354.82,1
200.00,339.42,1
139.00,322.90,1
147.00,304.80,1
221.00,286.36,1
257.00,269.86,1
329.00,257.21,1
472.00,250.57,1
408.00,251.18,1
210.00,255.74,1
350.00,260.49,1
416.00,266.47,1
230.00,273.88,1
366.00,280.72,1
429.00,288.16,1
312.00,296.99,1
368.00,305.62,1
367.00,313.78,1
426.00,322.23,1
478.00,332.02,1
303.00,342.42,1
216.00,349.73,1
195.00,351.42,1
212.00,347.83,1
135.00,339.79,1
152.00,327.72,1
394.00,314.59,1
188.00,303.55,1
183.00,292.99,1
366.00,282.88,1
368.00,276.44,1
306.00,274.07,1
577.00,276.10,1
285.00,282.97,1
444.00,292.03,1
309.00,301.53,1
611.00,312.61,1
505.00,327.59,1
415.00,344.94,1
378.00,360.89,1
444.00,374.42,1
544.00,387.29,1
459.00,400.74,1
577.00,414.59,1
585.00,429.55,1
487.00,445.20,1
468.00,459.12,1
397.00,469.57,1
352.00,475.29,1
240.00,475.01,1
358.00,468.91,1
266.00,458.87,1
352.00,446.32,1
299.00,432.51,1
270.00,417.80,1
294.00,402.15,1
315.00,386.61,1
154.00,370.92,1
261.00,354.05,1
313.00,337.67,1
169.00,322.79,1
294.00,308.62,1
138.00,295.02,1
300.00,282.11,1
375.00,272.17,1
217.00,266.15,1
123.00,260.47,1
232.00,253.28,1
482.00,248.27,1
427.00,249.72,1
253.00,255.74,1
282.00,261.90,1
263.00,266.85,1
204.00,270.14,1
216.00,271.04,1
216.00,269.77,1
321.00,267.90,1
284.00,267.05,1
232.00,266.86,1
181.00,265.56,1
169.00,262.09,1
150.00,256.28,1
120.00,248.25,1
116.00,238.10,1
184.00,226.92,1
278.00,217.21,1
173.00,210.21,1
344.00,205.93,1
135.00,204.11,1
265.00,203.25,1
302.00,203.88,1
385.00,208.00,1
143.00,214.31,1
248.00,219.62,1
384.00,224.85,1
258.00,231.93,1
211.00,238.82,1
364.00,244.79,1
409.00,252.39,1
282.00,261.92,1
207.00,270.26,1
233.00,275.34,1
241.00,277.65,1
173.00,277.56,1
179.00,274.62,1
163.00,269.04,1
272.00,262.31,1
262.00,256.53,1
156.00,251.53,1
142.00,245.31,1
202.00,237.75,1
251.00,230.72,1
376.00,226.70,1
247.00,226.46,1
206.00,227.70,1
362.00,229.56,1
383.00,234.21,1
319.00,242.01,1
230.00,250.29,1
339.00,257.54,1
377.00,265.16,1
251.00,273.30,1
420.00,281.19,1
556.00,291.52,1
356.00,305.38,1
196.00,317.92,1
272.00,325.35,1
400.00,329.67,1
201.00,332.57,1
270.00,332.62,1
224.00,329.61,1
260.00,324.50,1
191.00,317.60,1
220.00,308.95,1
148.00,298.58,1
274.00,287.35,1
189.00,276.62,1
161.00,266.03,1
207.00,255.13,1
219.00,244.98,1
513.00,238.75,1
386.00,239.61,1
159.00,244.30,1
490.00,249.67,1
176.00,256.38,1
239.00,261.93,1
228.00,264.76,1
309.00,266.44,1
481.00,269.90,1
394.00,277.42,1
252.00,286.54,1
165.00,292.77,1
288.00,295.01,1
264.00,295.24,1
217.00,294.19,1
258.00,291.55,1
190.00,287.52,1
303.00,282.73,1
254.00,278.42,1
106.00,273.52,1
151.00,265.85,1
97.00,255.39,1
132.00,242.90,1
111.00,229.29,1
163.00,215.64,1
171.00,203.15,1
181.00,192.61,1
167.00,184.02,1
239.00,177.66,1
114.00,173.23,1
142.00,169.17,1
118.00,164.74,1
237.00,161.01,1
203.00,159.44,1
301.00,160.78,1
314.00,165.75,1
119.00,172.73,1
100.00,177.68,1
302.00,180.70,1
98.00,183.64,1
225.00,185.77,1
107.00,186.67,1
135.00,185.92,1
226.00,184.19,1
186.00,183.17,1
81.00,181.96,1
126.00,178.93,1
67.00,173.98,1
89.00,167.32,1
109.00,159.64,1
184.00,152.57,1
158.00,147.42,1
127.00,143.81,1
60.00,140.21,1
204.00,136.56,1
177.00,134.61,1
208.00,135.04,1
47.00,136.19,1
184.00,136.58,1
112.00,136.71,1
171.00,137.08,1
82.00,137.25,1
242.00,137.62,1
113.00,138.97,1
264.00,141.46,1
117.00,144.97,1
228.00,148.85,1
127.00,152.66,1
88.00,155.21,1
56.00,154.95,1
154.00,152.52,1
182.00,150.15,1
50.00,148.08,1
75.00,144.56,1
179.00,140.23,1
62.00,136.38,1
141.00,132.62,1
73.00,128.82,1
144.00,125.23,1
142.00,122.53,1
215.00,121.75,1
48.00,122.27,1
286.00,123.56,1
128.00,126.65,1
158.00,130.60,1
61.00,133.45,1
139.00,134.66,1
46.00,134.30,1
160.00,132.82,1
111.00,131.24,1
138.00,130.00,1
123.00,128.98,1
83.00,127.80,1
94.00,125.83,1
178.00,123.88,1
128.00,123.09,1
106.00,122.89,1
177.00,122.94,1
150.00,123.96,1
112.00,125.50,1
69.00,126.18,1
102.00,125.44,1
145.00,124.18,1
81.00,123.02,1
144.00,121.81,1
206.00,121.61,1
86.00,122.75,1
82.00,123.37,1
202.00,123.49,1
114.00,124.47,1
58.00,125.14,1
78.00,124.04,1
86.00,121.57,1
104.00,118.59,1
130.00,115.91,1
183.00,114.58,1
81.00,114.55,1
286.00,115.98,1
195.00,120.27,1
183.00,126.64,1
70.00,132.51,1
96.00,136.03,1
167.00,137.76,1
187.00,139.61,1
86.00,141.58,1
442.00,145.05,1
358.00,153.88,1
100.00,165.93,1
84.00,174.87,1
108.00,178.98,1
54.00,179.10,1
44.00,175.36,1
128.00,168.93,1
161.00,162.26,1
52.00,155.97,1
67.00,148.76,1
128.00,140.97,1
53.00,133.50,1
160.00,126.66,1
85.00,121.06,1
50.00,115.94,1
430.00,113.30,1
211.00,116.77,1
286.00,124.92,1
107.00,134.37,1
220.00,143.05,1
72.00,150.03,1
155.00,154.65,1
72.00,156.80,1
137.00,156.84,1
482.00,158.54,1
291.00,166.13,1
204.00,176.90,1
113.00,185.95,1
202.00,191.88,1
52.00,194.74,1
87.00,193.73,1
133.00,189.50,1
71.00,183.53,1
193.00,176.79,1
168.00,170.99,1
79.00,165.96,1
234.00,161.27,1
216.00,158.71,1
74.00,157.63,1
223.00,156.46,1
53.00,155.12,1
112.00,152.62,1
51.00,148.37,1
118.00,142.98,1
112.00,137.45,1
199.00,133.18,1
69.00,130.31,1
87.00,127.33,1
124.00,123.88,1
178.00,121.41,1
145.00,120.72,1
283.00,122.41,1
235.00,127.48,1
132.00,134.49,1
93.00,140.26,1
120.00,143.61,1
93.00,144.91,1
146.00,144.85,1
127.00,144.24,1
222.00,144.17,1
46.00,144.44,1
101.00,143.30,1
223.00,141.59,1
87.00,140.85,1
122.00,139.93,1
147.00,138.54,1
213.00,138.11,1
45.00,138.32,1
192.00,138.00,1
116.00,137.71,1
170.00,137.84,1
65.00,137.68,1
139.00,136.64,1
56.00,134.62,1
285.00,133.06,1
94.00,133.44,1
116.00,134.19,1
128.00,134.07,1
177.00,134.09,1
88.00,134.39,1
86.00,133.80,1
216.00,132.86,1
95.00,132.84,1
84.00,132.48,1
303.00,132.50,1
114.00,134.80,1
145.00,137.68,1
54.00,139.10,1
51.00,138.09,1
127.00,135.07,1
46.00,131.21,1
76.00,126.37,1
149.00,121.37,1
79.00,117.31,1
100.00,113.70,1
173.00,110.95,1
79.00,109.53,1
171.00,108.97,1
339.00,111.24,1
204.00,118.00,1
361.00,128.40,1
352.00,142.64,1
485.00,161.59,1
83.00,182.23,1
330.00,200.00,1
197.00,214.64,1
92.00,225.41,1
79.00,229.94,1
67.00,228.37,1
250.00,223.43,1
210.00,218.71,1
80.00,214.09,1
117.00,207.51,1
140.00,199.38,1
73.00,190.49,1
105.00,180.64,1
167.00,170.90,1
113.00,162.41,1
182.00,155.35,1
77.00,149.43,1
332.00,145.52,1
73.00,144.50,1
309.00,145.45,1
50.00,147.50,1
181.00,149.05,1
59.00,149.19,1
228.00,148.71,1
235.00,149.64,1
87.00,151.89,1
66.00,152.49,1
90.00,150.43,1
118.00,146.89,1
170.00,143.45,1
52.00,140.30,1
82.00,136.20,1
329.00,133.10,1
172.00,133.96,1
123.00,136.78,1
103.00,138.71,1
86.00,139.00,1
203.00,138.57,1
56.00,138.19,1
158.00,137.23,1
174.00,136.48,1
270.00,137.83,1
51.00,140.64,1
92.00,141.96,1
83.00,140.87,1
77.00,138.13,1
39.00,133.77,1
53.00,127.74,1
176.00,121.59,1
199.00,117.90,1
49.00,116.37,1
202.00,115.48,1
157.00,116.04,1
68.00,117.46,1
145.00,118.28,1
231.00,119.87,1
98.00,122.94,1
222.00,126.57,1
179.00,131.11,1
169.00,136.43,1
196.00,141.85,1
122.00,146.93,1
67.00,150.13,1
226.00,151.57,1
341.00,154.78,1
235.00,161.56,1
207.00,169.79,1
59.00,176.29,1
166.00,179.41,1
111.00,180.01,1
123.00,178.73,1
133.00,175.91,1
92.00,171.93,1
179.00,167.33,1
310.00,164.58,1
72.00,164.30,1
192.00,164.00,1
185.00,163.64,1
276.00,164.89,1
129.00,167.54,1
76.00,169.06,1
149.00,168.19,1
164.00,166.40,1
218.00,165.28,1
65.00,164.47,1
131.00,162.36,1
94.00,158.87,1
80.00,154.26,1
103.00,148.58,1
138.00,142.85,1
176.00,138.37,1
198.00,136.09,1
92.00,135.34,1
50.00,133.87,1
82.00,130.60,1
53.00,126.00,1
178.00,121.36,1
75.00,117.83,1
159.00,115.29,1
78.00,113.44,1
510.00,115.12,1
243.00,123.75,1
292.00,136.90,1
142.00,150.39,1
313.00,163.01,1
39.00,173.89,1
180.00,181.12,1
382.00,187.08,1
230.00,195.14,1
354.00,204.72,1
64.00,213.51,1
101.00,217.93,1
54.00,216.71,1
148.00,211.58,1
144.00,204.74,1
105.00,197.25,1
101.00,188.79,1
47.00,179.03,1
203.00,168.97,1
74.00,160.10,1
221.00,152.81,1
71.00,147.06,1
330.00,143.56,1
136.00,143.32,1
250.00,145.48,1
54.00,148.01,1
346.00,150.87,1
41.00,154.58,1
153.00,157.08,1
129.00,157.72,1
230.00,158.29,1
94.00,159.14,1
233.00,159.90,1
147.00,161.04,1
326.00,163.62,1
55.00,167.23,1
114.00,168.99,1
84.00,167.74,1
153.00,164.85,1
211.00,162.17,1
83.00,160.22,1
190.00,158.13,1
67.00,155.69,1
74.00,151.97,1
86.00,146.60,1
148.00,140.92,1
324.00,137.78,1
46.00,137.83,1
189.00,138.32,1
70.00,138.20,1
255.00,138.37,1
300.00,141.21,1
134.00,146.88,1
200.00,152.69,1
226.00,158.35,1
43.00,163.15,1
163.00,165.30,1
109.00,165.41,1
114.00,164.10,1
176.00,161.91,1
59.00,159.22,1
93.00,155.10,1
54.00,149.28,1
131.00,142.65,1
76.00,136.12,1
110.00,129.90,1
64.00,123.85,1
99.00,117.93,1
78.00,112.34,1
99.00,107.30,1
86.00,102.92,1
78.00,99.06,1
104.00,95.72,1
191.00,93.98,1
103.00,94.43,1
179.00,96.43,1
110.00,99.50,1
76.00,102.46,1
44.00,103.85,1
115.00,103.75,1
67.00,103.07,1
265.00,103.40,1
131.00,106.29,1
198.00,110.99,1
251.00,117.32,1
220.00,125.87,1
51.00,134.35,1
130.00,140.10,1
127.00,143.43,1
139.00,145.54,1
129.00,146.75,1
112.00,147.02,1
110.00,146.18,1
75.00,144.07,1
119.00,140.84,1
87.00,137.02,1
78.00,132.65,1
127.00,128.00,1
66.00,123.51,1
110.00,119.08,1
58.00,114.60,1
323.00,111.95,1
71.00,112.64,1
355.00,116.24,1
402.00,124.97,1
198.00,138.74,1
152.00,152.47,1
99.00,162.83,1
85.00,168.91,1
75.00,170.77,1
246.00,170.51,1
163.00,170.71,1
182.00,171.45,1
175.00,172.15,1
77.00,172.02,1
55.00,169.39,1
68.00,163.90,1
138.00,157.03,1
243.00,151.47,1
103.00,148.25,1
240.00,146.61,1
166.00,146.72,1
71.00,147.27,1
146.00,146.57,1
125.00,145.22,1
178.00,144.14,1
135.00,143.64,1
203.00,143.90,1
164.00,145.16,1
404.00,149.08,1
45.00,155.54,1
68.00,159.93,1
167.00,160.84,1
124.00,160.56,1
142.00,159.63,1
237.00,158.98,1
115.00,159.27,1
86.00,158.80,1
224.00,157.41,1
136.00,156.69,1
115.00,156.01,1
93.00,154.13,1
74.00,150.71,1
134.00,146.21,1
186.00,142.33,1
383.00,142.04,1
264.00,147.22,1
66.00,154.39,1
65.00,158.55,1
144.00,159.26,1
149.00,158.68,1
135.00,157.77,1
243.00,157.33,1
211.00,158.71,1
136.00,161.13,1
56.00,162.09,1
213.00,161.27,1
76.00,159.91,1
142.00,157.79,1
79.00,154.58,1
162.00,150.84,1
187.00,147.89,1
129.00,146.26,1
219.00,145.69,1
164.00,146.48,1
47.00,147.15,1
149.00,146.13,1
61.00,143.89,1
290.00,142.06,1
165.00,142.67,1
158.00,144.87,1
215.00,147.50,1
88.00,150.22,1
90.00,151.29,1
100.00,150.15,1
84.00,147.37,1
116.00,143.57,1
74.00,139.16,1
108.00,134.28,1
219.00,130.35,1
309.00,130.12,1
55.00,133.06,1
87.00,135.06,1
104.00,134.87,1
108.00,133.59,1
287.00,133.22,1
204.00,135.86,1
127.00,140.18,1
66.00,143.14,1
76.00,143.42,1
56.00,141.15,1
147.00,137.53,1
257.00,135.25,1
188.00,136.08,1
88.00,138.17,1
167.00,139.57,1
79.00,140.16,1
129.00,139.72,1
100.00,138.36,1
109.00,136.36,1
114.00,133.90,1
170.00,131.80,1
136.00,130.72,1
94.00,130.00,1
75.00,128.46,1
65.00,125.59,1
107.00,121.83,1
44.00,117.61,1
43.00,112.48,1
93.00,106.70,1
134.00,101.77,1
124.00,98.69,1
242.00,98.26,1
234.00,101.63,1
71.00,107.32,1
381.00,114.34,1
177.00,124.26,1
116.00,134.73,1
106.00,142.47,1
90.00,147.11,1
103.00,148.96,1
243.00,149.89,1
178.00,151.99,1
150.00,154.76,1
184.00,157.22,1
59.00,158.66,1
42.00,157.33,1
233.00,154.22,1
192.00,152.55,1
105.00,152.20,1
150.00,151.46,1
173.00,150.67,1
123.00,150.21,1
48.00,148.72,1
146.00,145.68,1
213.00,143.13,1
72.00,141.79,1
49.00,139.43,1
178.00,135.90,1
148.00,133.31,1
148.00,132.07,1
250.00,132.52,1
133.00,134.97,1
191.00,138.23,1
96.00,141.18,1
195.00,143.53,1
71.00,145.17,1
79.00,145.05,1
47.00,142.41,1
154.00,138.40,1
92.00,134.46,1
133.00,130.92,1
53.00,127.29,1
140.00,123.45,1
71.00,119.79,1
54.00,115.83,1
323.00,113.14,1
70.00,113.73,1
88.00,114.97,1
124.00,115.18,1
93.00,115.07,1
83.00,114.43,1
174.00,113.74,1
66.00,113.56,1
319.00,114.85,1
116.00,118.82,1
159.00,123.79,1
184.00,128.58,1
112.00,133.26,1
320.00,138.43,1
126.00,145.04,1
55.00,150.44,1
115.00,152.47,1
72.00,151.91,1
96.00,149.38,1
58.00,145.17,1
124.00,139.94,1
53.00,134.29,1
250.00,129.53,1
241.00,128.21,1
64.00,129.53,1
74.00,129.90,1
143.00,128.82,1
133.00,127.81,1
105.00,127.06,1
81.00,125.80,1
324.00,125.57,1
123.00,128.30,1
97.00,131.66,1
187.00,134.02,1
66.00,135.82,1
390.00,138.56,1
85.00,143.75,1
104.00,148.44,1
364.00,152.52,1
176.00,158.93,1
453.00,168.27,1
271.00,181.01,1
299.00,195.43,1
142.00,208.29,1
94.00,216.77,1
112.00,219.68,1
91.00,217.95,1
167.00,213.22,1
134.00,207.20,1
90.00,200.10,1
227.00,192.55,1
72.00,185.54,1
136.00,178.26,1
136.00,170.79,1
183.00,164.35,1
158.00,159.48,1
272.00,156.92,1
396.00,158.88,1
120.00,164.91,1
202.00,170.98,1
106.00,175.14,1
182.00,177.42,1
180.00,178.66,1
224.00,180.02,1
240.00,182.28,1
183.00,185.32,1
219.00,188.32,1
111.00,190.42,1
197.00,190.99,1
182.00,190.77,1
298.00,191.41,1
296.00,194.46,1
167.00,199.11,1
86.00,201.98,1
232.00,202.19,1
139.00,201.33,1
177.00,199.69,1
96.00,196.70,1
99.00,191.77,1
145.00,185.29,1
96.00,178.24,1
149.00,171.00,1
267.00,165.30,1
380.00,164.33,1
314.00,169.33,1
360.00,178.90,1
154.00,190.16,1
260.00,200.10,1
149.00,207.84,1
212.00,213.18,1
325.00,217.62,1
356.00,223.89,1
409.00,233.28,1
391.00,245.65,1
385.00,259.99,1
299.00,274.40,1
280.00,286.71,1
186.00,295.23,1
124.00,298.26,1
94.00,295.03,1
112.00,286.25,1
167.00,274.09,1
154.00,260.75,1
218.00,247.71,1
164.00,235.84,1
216.00,225.32,1
322.00,217.45,1
222.00,213.28,1
356.00,212.32,1
224.00,214.16,1
391.00,218.36,1
340.00,225.53,1
273.00,234.65,1
188.00,242.70,1
203.00,247.81,1
216.00,250.18,1
243.00,250.96,1
186.00,250.58,1
254.00,249.18,1
450.00,249.34,1
275.00,253.09,1
428.00,259.38,1
363.00,267.97,1
212.00,276.94,1
272.00,283.36,1
288.00,287.48,1
209.00,289.83,1
394.00,291.12,1
242.00,292.72,1
178.00,292.97,1
324.00,291.09,1
178.00,288.32,1
308.00,284.84,1
597.00,284.29,1
313.00,289.51,1
383.00,297.24,1
291.00,304.62,1
405.00,311.48,1
432.00,319.10,1
448.00,328.55,1
302.00,338.35,1
464.00,347.15,1
300.00,355.01,1
388.00,361.24,1
471.00,366.81,1
388.00,373.12,1
356.00,378.83,1
486.00,383.75,1
284.00,388.13,1
367.00,390.36,1
342.00,390.37,1
392.00,389.39,1
390.00,388.30,1
404.00,387.67,1
272.00,386.51,1
361.00,383.66,1
442.00,380.67,1
240.00,378.09,1
327.00,373.95,1
300.00,368.30,1
537.00,363.93,1
319.00,362.58,1
419.00,362.76,1
455.00,364.24,1
365.00,367.34,1
524.00,371.68,1
257.00,376.51,1
493.00,380.39,1
380.00,384.17,1
302.00,387.20,1
371.00,387.88,1
282.00,386.52,1
290.00,382.81,1
423.00,377.96,1
361.00,374.14,1
248.00,370.39,1
228.00,364.26,1
278.00,355.66,1
279.00,346.13,1
189.00,335.90,1
184.00,323.98,1
139.00,309.95,1
179.00,294.30,1
177.00,278.25,1
288.00,263.64,1
388.00,253.28,1
423.00,249.34,1
321.00,250.97,1
378.00,255.91,1
383.00,263.30,1
413.00,273.09,1
279.00,283.83,1
469.00,294.52,1
351.00,305.88,1
340.00,316.88,1
393.00,326.54,1
417.00,335.84,1
443.00,345.64,1
422.00,355.92,1
650.00,368.00,1
512.00,383.49,1
392.00,399.67,1
223.00,411.29,1
262.00,415.60,1
230.00,413.12,1
377.00,406.66,1
351.00,399.33,1
241.00,391.46,1
288.00,381.77,1
217.00,370.32,1
199.00,356.94,1
541.00,344.52,1
244.00,336.31,1
272.00,329.71,1
263.00,322.48,1
316.00,315.53,1
334.00,309.98,1
281.00,305.98,1
231.00,302.14,1
304.00,297.88,1
207.00,293.42,1
300.00,288.76,1
303.00,284.84,1
251.00,282.01,1
572.00,281.92,1
342.00,286.91,1
541.00,296.09,1
264.00,307.26,1
275.00,316.69,1
277.00,322.38,1
209.00,324.62,1
567.00,326.02,1
146.00,328.63,1
167.00,328.22,1
163.00,322.37,1
239.00,313.33,1
255.00,303.49,1
339.00,294.97,1
279.00,288.75,1
321.00,284.57,1
382.00,282.75,1
401.00,284.33,1
392.00,289.22,1
372.00,296.26,1
473.00,305.12,1
404.00,316.05,1
424.00,328.02,1
432.00,340.20,1
560.00,353.50,1
489.00,368.82,1
414.00,384.41,1
387.00,397.63,1
438.00,407.96,1
304.00,415.27,1
300.00,418.18,1
230.00,415.93,1
203.00,408.38,1
277.00,396.61,1
176.00,382.26,1
211.00,365.63,1
212.00,347.58,1
324.00,330.29,1
304.00,315.86,1
191.00,303.73,1
506.00,294.33,1
332.00,290.17,1
257.00,289.21,1
429.00,289.46,1
462.00,293.14,1
414.00,300.89,1
471.00,311.41,1
443.00,323.99,1
582.00,338.89,1
504.00,356.50,1
374.00,374.35,1
504.00,390.06,1
458.00,404.31,1
466.00,417.37,1
521.00,429.29,1
438.00,440.25,1
476.00,449.50,1
606.00,458.17,1
334.00,466.32,1
227.00,469.47,1
367.00,465.86,1
249.00,457.67,1
312.00,446.01,1
242.00,431.60,1
311.00,415.51,1
299.00,399.14,1
361.00,384.01,1
646.00,373.61,1
501.00,371.19,1
426.00,374.22,1
452.00,379.05,1
476.00,385.13,1
598.00,393.60,1
523.00,405.19,1
528.00,418.53,1
591.00,432.79,1
666.00,448.99,1
464.00,466.20,1
482.00,481.02,1
433.00,491.77,1
381.00,497.96,1
576.00,500.78,1
474.00,502.96,1
359.00,503.54,1
331.00,499.88,1
353.00,491.90,1
197.00,479.75,1
198.00,462.45,1
266.00,440.98,1
193.00,417.70,1
294.00,394.02,1
359.00,372.41,1
357.00,355.00,1
358.00,341.86,1
538.00,333.91,1
539.00,333.16,1
308.00,337.48,1
271.00,341.39,1
341.00,342.91,1
503.00,344.76,1
561.00,350.61,1
308.00,359.41,1
402.00,367.27,1
466.00,374.15,1
292.00,380.44,1
492.00,385.39,1
382.00,390.12,1
483.00,395.19,1
397.00,400.41,1
603.00,406.69,1
631.00,416.51,1
350.00,428.52,1
335.00,437.25,1
356.00,440.76,1
247.00,439.56,1
248.00,433.18,1
278.00,422.44,1
300.00,409.35,1
356.00,396.08,1
373.00,384.34,1
355.00,374.77,1
613.00,369.14,1
287.00,368.10,1
555.00,369.57,1
346.00,372.88,1
561.00,378.03,1
588.00,386.49,1
448.00,398.22,1
327.00,408.94,1
435.00,416.24,1
359.00,420.87,1
590.00,424.88,1
332.00,429.37,1
634.00,434.19,1
308.00,439.27,1
558.00,443.55,1
408.00,447.28,1
495.00,450.77,1
508.00,454.29,1
279.00,456.74,1
288.00,454.66,1
266.00,447.24,1
288.00,435.92,1
322.00,422.52,1
315.00,408.64,1
345.00,395.30,1
289.00,382.78,1
560.00,372.87,1
271.00,366.89,1
372.00,362.41,1
382.00,358.56,1
421.00,356.67,1
356.00,356.52,1
520.00,358.28,1
518.00,363.64,1
321.00,371.21,1
255.00,376.38,1
182.00,376.17,1
241.00,370.69,1
280.00,362.03,1
199.00,351.75,1
432.00,341.49,1
307.00,333.73,1
366.00,328.48,1
289.00,324.61,1
178.00,320.21,1
118.00,312.55,1
127.00,300.82,1
218.00,286.79,1
118.00,272.26,1
183.00,257.45,1
152.00,242.92,1
226.00,229.75,1
166.00,218.51,1
258.00,209.49,1
132.00,202.44,1
113.00,195.64,1
298.00,189.42,1
173.00,185.72,1
418.00,185.61,1
211.00,189.48,1
411.00,196.52,1
363.00,206.91,1
265.00,219.58,1
238.00,231.30,1
255.00,240.79,1
305.00,248.75,1
441.00,257.37,1
227.00,267.10,1
575.00,277.86,1
443.00,291.91,1
164.00,306.38,1
140.00,314.72,1
122.00,315.31,1
94.00,309.22,1
225.00,298.68,1
105.00,286.13,1
197.00,272.34,1
378.00,260.11,1
192.00,251.67,1
228.00,245.12,1
174.00,238.83,1
247.00,232.95,1
248.00,228.36,1
337.00,226.26,1
171.00,226.23,1
214.00,226.10,1
200.00,225.13,1
313.00,224.60,1
428.00,227.18,1
105.00,232.17,1
169.00,234.97,1
318.00,235.61,1
424.00,238.49,1
413.00,245.89,1
301.00,256.22,1
201.00,265.66,1
194.00,271.44,1
186.00,273.24,1
192.00,271.80,1
121.00,267.42,1
153.00,260.07,1
125.00,250.37,1
187.00,239.62,1
206.00,229.35,1
220.00,220.74,1
338.00,215.03,1
151.00,212.24,1
157.00,209.68,1
230.00,206.54,1
269.00,204.66,1
365.00,205.83,1
545.00,212.78,1
400.00,226.40,1
236.00,242.30,1
261.00,255.73,1
250.00,265.80,1
272.00,273.19,1
183.00,277.82,1
415.00,280.85,1
402.00,285.58,1
274.00,292.12,1
308.00,297.84,1
182.00,301.18,1
161.00,300.59,1
118.00,295.33,1
231.00,286.72,1
136.00,276.57,1
192.00,265.44,1
257.00,254.62,1
341.00,246.63,1
368.00,243.24,1
139.00,242.67,1
354.00,242.49,1
151.00,242.59,1
190.00,241.64,1
282.00,239.63,1
395.00,239.70,1
259.00,242.80,1
180.00,246.18,1
228.00,247.59,1
325.00,248.42,1
222.00,249.94,1
122.00,250.20,1
39.00,246.29,1
78.00,237.45,1
41.00,224.87,1
262.00,211.35,1
47.00,199.15,1
242.00,188.23,1
162.00,179.45,1
93.00,172.29,1
125.00,165.06,1
88.00,157.66,1
96.00,150.10,1
44.00,142.07,1
77.00,133.40,1
61.00,124.55,1
99.00,116.15,1
84.00,108.77,1
141.00,102.94,1
106.00,99.00,1
39.00,95.99,1
81.00,92.71,1
38.00,89.12,1
53.00,85.17,1
156.00,81.84,1
133.00,80.72,1
60.00,81.19,1
206.00,82.66,1
88.00,85.67,1
99.00,89.12,1
160.00,92.48,1
81.00,96.11,1
125.00,99.39,1
142.00,102.50,1
141.00,106.03,1
44.00,109.07,1
52.00,110.08,1
42.00,108.78,1
51.00,105.72,1
41.00,101.40,1
72.00,96.46,1
82.00,91.73,1
93.00,87.82,1
74.00,84.77,1
49.00,82.05,1
46.00,79.07,1
100.00,76.18,1
60.00,73.99,1
97.00,72.51,1
42.00,71.44,1
46.00,70.13,1
52.00,68.35,1
40.00,66.31,1
47.00,64.05,1
43.00,61.68,1
62.00,59.44,1
116.00,58.13,1
59.00,58.13,1
82.00,58.83,1
283.00,61.61,1
127.00,68.08,1
111.00,76.11,1
102.00,83.43,1
54.00,89.27,1
114.00,93.43,1
60.00,96.32,1
161.00,98.59,1
148.00,101.44,1
143.00,105.22,1
151.00,109.45,1
180.00,114.20,1
246.00,120.33,1
95.00,127.35,1
188.00,133.64,1
173.00,139.32,1
152.00,144.70,1
295.00,150.39,1
249.00,157.92,1
184.00,166.50,1
165.00,173.98,1
306.00,180.69,1
236.00,188.20,1
101.00,194.96,1
178.00,198.74,1
260.00,200.97,1
274.00,204.06,1
381.00,209.50,1
129.00,216.34,1
120.00,220.65,1
132.00,220.75,1
88.00,217.44,1
90.00,210.99,1
115.00,202.28,1
120.00,192.59,1
143.00,182.95,1
119.00,173.92,1
139.00,165.60,1
174.00,158.53,1
106.00,152.81,1
140.00,147.76,1
151.00,143.48,1
227.00,141.02,1
273.00,141.74,1
114.00,144.91,1
190.00,148.25,1
260.00,152.11,1
170.00,157.30,1
181.00,162.49,1
286.00,167.84,1
147.00,173.78,1
220.00,179.16,1
217.00,183.98,1
186.00,188.50,1
233.00,192.49,1
180.00,196.04,1
311.00,199.74,1
157.00,203.86,1
166.00,206.79,1
174.00,207.65,1
222.00,207.52,1
553.00,210.26,1
94.00,217.22,1
137.00,222.58,1
113.00,223.23,1
130.00,220.38,1
198.00,215.62,1
396.00,212.52,1
205.00,213.06,1
225.00,214.94,1
161.00,216.02,1
211.00,215.94,1
267.00,215.77,1
134.00,215.78,1
158.00,214.35,1
288.00,212.28,1
255.00,211.86,1
100.00,211.96,1
279.00,211.10,1
504.00,213.05,1
311.00,220.74,1
206.00,230.30,1
137.00,237.05,1
170.00,239.73,1
209.00,239.49,1
97.00,237.05,1
85.00,231.34,1
230.00,223.44,1
106.00,215.43,1
119.00,206.85,1
140.00,197.44,1
130.00,188.12,1
141.00,179.29,1
164.00,171.41,1
203.00,165.31,1
375.00,163.03,1
303.00,166.34,1
221.00,173.31,1
123.00,180.05,1
190.00,184.65,1
141.00,187.34,1
162.00,188.43,1
127.00,187.92,1
124.00,185.76,1
243.00,183.08,1
149.00,181.26,1
157.00,179.66,1
252.00,178.41,1
357.00,179.98,1
166.00,184.60,1
142.00,188.88,1
140.00,190.75,1
170.00,190.76,1
103.00,189.27,1
92.00,185.74,1
167.00,180.66,1
104.00,175.19,1
119.00,169.31,1
189.00,163.64,1
132.00,159.12,1
103.00,155.02,1
288.00,151.96,1
90.00,150.98,1
154.00,150.40,1
263.00,150.45,1
221.00,153.00,1
308.00,158.27,1
127.00,165.03,1
122.00,170.36,1
167.00,173.21,1
324.00,176.10,1
226.00,181.10,1
280.00,187.65,1
102.00,193.77,1
211.00,197.75,1
148.00,199.78,1
205.00,200.60,1
163.00,200.55,1
120.00,199.25,1
163.00,196.37,1
146.00,192.57,1
45.00,187.43,1
301.00,181.76,1
152.00,178.04,1
95.00,175.11,1
131.00,171.01,1
298.00,167.65,1
185.00,167.12,1
183.00,168.22,1
149.00,169.28,1
187.00,170.01,1
330.00,172.01,1
96.00,175.65,1
184.00,178.44,1
286.00,180.86,1
167.00,184.36,1
94.00,186.82,1
104.00,186.27,1
96.00,182.98,1
208.00,178.59,1
135.00,174.69,1
374.00,172.99,1
270.00,175.50,1
192.00,180.79,1
163.00,185.59,1
219.00,189.19,1
108.00,191.51,1
168.00,191.91,1
82.00,190.21,1
207.00,187.08,1
198.00,184.24,1
208.00,182.70,1
130.00,181.64,1
347.00,181.58,1
386.00,185.53,1
230.00,193.56,1
311.00,202.86,1
216.00,212.06,1
390.00,221.42,1
344.00,232.31,1
349.00,244.68,1
302.00,257.12,1
420.00,269.44,1
194.00,280.94,1
308.00,289.61,1
265.00,295.47,1
424.00,300.59,1
404.00,307.09,1
363.00,315.08,1
406.00,323.46,1
357.00,331.80,1
168.00,337.78,1
207.00,338.59,1
143.00,333.99,1
188.00,324.96,1
106.00,312.50,1
146.00,297.18,1
150.00,280.20,1
100.00,262.54,1
368.00,246.38,1
229.00,234.80,1
279.00,227.37,1
239.00,222.69,1
222.00,219.89,1
310.00,218.70,1
243.00,219.55,1
359.00,222.54,1
262.00,227.56,1
470.00,235.05,1
392.00,246.21,1
327.00,259.66,1
298.00,272.41,1
416.00,284.17,1
247.00,295.10,1
310.00,303.73,1
258.00,309.51,1
231.00,312.41,1
112.00,311.15,1
166.00,304.94,1
118.00,294.77,1
125.00,281.64,1
201.00,266.96,1
175.00,252.78,1
135.00,239.31,1
336.00,227.62,1
412.00,221.28,1
216.00,220.55,1
159.00,221.01,1
404.00,221.81,1
520.00,227.41,1
371.00,239.26,1
191.00,252.38,1
270.00,262.44,1
290.00,269.85,1
247.00,275.61,1
413.00,280.78,1
294.00,286.74,1
383.00,293.25,1
466.00,301.14,1
313.00,310.67,1
195.00,318.28,1
189.00,320.88,1
173.00,318.31,1
188.00,311.83,1
96.00,301.88,1
116.00,288.37,1
150.00,272.49,1
137.00,255.98,1
134.00,239.56,1
236.00,224.45,1
374.00,213.66,1
362.00,209.60,1
256.00,210.81,1
146.00,213.21,1
226.00,214.36,1
244.00,215.10,1
297.00,216.90,1
201.00,219.71,1
430.00,223.93,1
234.00,230.43,1
243.00,237.20,1
214.00,242.22,1
331.00,246.30,1
289.00,250.91,1
218.00,255.43,1
151.00,257.64,1
127.00,256.12,1
163.00,251.19,1
135.00,243.99,1
142.00,235.22,1
346.00,227.11,1
126.00,221.37,1
95.00,215.42,1
185.00,207.89,1
141.00,200.29,1
123.00,192.77,1
260.00,186.03,1
374.00,183.19,1
136.00,184.43,1
148.00,185.85,1
227.00,186.22,1
247.00,187.37,1
366.00,191.03,1
210.00,197.33,1
215.00,203.87,1
450.00,211.12,1
337.00,221.68,1
451.00,235.44,1
157.00,249.67,1
166.00,259.89,1
317.00,265.72,1
416.00,271.41,1
326.00,278.98,1
179.00,285.81,1
127.00,288.25,1
125.00,285.12,1
170.00,277.82,1
116.00,267.90,1
98.00,255.56,1
228.00,242.18,1
176.00,230.04,1
147.00,219.21,1
201.00,209.28,1
267.00,201.57,1
321.00,197.82,1
228.00,197.85,1
232.00,199.70,1
352.00,203.16,1
448.00,210.55,1
502.00,223.73,1
419.00,241.90,1
609.00,263.90,1
395.00,288.72,1
467.00,313.53,1
541.00,337.49,1
419.00,360.80,1
411.00,381.39,1
333.00,397.43,1
297.00,407.80,1
287.00,412.18,1
450.00,412.80,1
186.00,410.96,1
341.00,405.49,1
225.00,396.95,1
185.00,385.37,1
292.00,371.12,1
198.00,356.01,1
323.00,341.08,1
310.00,328.00,1
449.00,318.75,1
578.00,315.98,1
426.00,320.34,1
578.00,329.71,1
427.00,342.54,1
354.00,355.76,1
473.00,367.34,1
422.00,378.22,1
237.00,386.82,1
418.00,391.40,1
473.00,394.72,1
611.00,400.55,1
405.00,409.11,1
546.00,418.36,1
173.00,425.35,1
179.00,425.40,1
264.00,417.80,1
234.00,405.99,1
256.00,391.75,1
146.00,375.31,1
327.00,357.63,1
211.00,340.70,1
152.00,324.01,1
96.00,305.62,1
467.00,288.25,1
263.00,276.22,1
420.00,269.65,1
508.00,269.10,1
298.00,274.15,1
366.00,281.11,1
349.00,288.50,1
494.00,297.47,1
556.00,310.15,1
501.00,326.96,1
443.00,345.48,1
418.00,363.07,1
503.00,379.17,1
429.00,394.18,1
436.00,407.41,1
269.00,416.99,1
295.00,420.93,1
426.00,420.60,1
400.00,419.22,1
317.00,417.06,1
157.00,411.45,1
218.00,400.55,1
230.00,385.80,1
175.00,368.88,1
148.00,349.81,1
283.00,329.95,1
444.00,313.54,1
257.00,302.52,1
427.00,295.62,1
565.00,294.48,1
403.00,300.19,1
604.00,310.93,1
299.00,324.62,1
391.00,337.47,1
356.00,347.96,1
457.00,357.32,1
376.00,366.25,1
487.00,374.94,1
392.00,383.56,1
474.00,391.85,1
332.00,399.01,1
584.00,405.49,1
347.00,412.28,1
260.00,416.49,1
378.00,416.19,1
291.00,413.02,1
587.00,409.73,1
360.00,408.78,1
285.00,407.69,1
295.00,403.51,1
246.00,396.20,1
276.00,386.33,1
196.00,374.28,1
551.00,362.81,1
359.00,355.80,1
581.00,354.01,1
567.00,358.24,1
454.00,367.56,1
482.00,378.66,1
563.00,390.95,1
416.00,404.12,1
519.00,416.59,1
574.00,429.06,1
494.00,442.22,1
330.00,453.24,1
698.00,461.93,1
454.00,471.31,1
531.00,480.53,1
539.00,488.63,1
476.00,495.87,1
343.00,500.13,1
312.00,499.05,1
298.00,492.08,1
256.00,480.14,1
221.00,463.74,1
266.00,443.90,1
228.00,422.28,1
279.00,400.15,1
183.00,378.12,1
201.00,355.81,1
390.00,335.15,1
402.00,319.80,1
361.00,310.48,1
379.00,305.56,1
360.00,303.95,1
548.00,306.36,1
324.00,312.80,1
401.00,320.53,1
230.00,327.02,1
485.00,332.26,1
304.00,337.69,1
524.00,344.02,1
457.00,352.45,1
296.00,361.54,1
390.00,368.37,1
293.00,372.68,1
360.00,374.67,1
233.00,374.05,1
298.00,370.47,1
236.00,364.31,1
288.00,356.30,1
228.00,347.00,1
521.00,338.92,1
332.00,334.81,1
380.00,333.60,1
226.00,332.54,1
474.00,331.54,1
313.00,332.15,1
473.00,334.63,1
602.00,340.87,1
438.00,351.93,1
229.00,362.81,1
421.00,369.96,1
429.00,375.56,1
294.00,380.40,1
295.00,382.33,1
216.00,380.18,1
335.00,374.74,1
355.00,368.46,1
716.00,366.07,1
455.00,370.74,1
209.00,377.22,1
332.00,379.61,1
220.00,377.89,1
253.00,372.56,1
287.00,364.54,1
234.00,355.13,1
297.00,344.93,1
142.00,333.80,1
352.00,322.00,1
151.00,310.62,1
152.00,298.35,1
232.00,284.81,1
415.00,273.63,1
539.00,269.35,1
618.00,274.78,1
302.00,287.00,1
306.00,299.42,1
382.00,309.67,1
232.00,317.98,1
108.00,321.63,1
242.00,319.41,1
399.00,315.34,1
289.00,312.82,1
351.00,311.56,1
324.00,311.17,1
518.00,313.13,1
420.00,319.09,1
372.00,327.40,1
282.00,334.84,1
214.00,338.87,1
276.00,338.89,1
248.00,336.06,1
369.00,332.20,1
319.00,329.08,1
350.00,327.05,1
234.00,325.04,1
254.00,321.61,1
628.00,319.72,1
567.00,324.96,1
398.00,336.13,1
433.00,348.40,1
412.00,360.08,1
544.00,371.94,1
552.00,385.68,1
571.00,401.74,1
499.00,418.82,1
587.00,435.81,1
681.00,453.80,1
305.00,471.11,1
204.00,480.99,1
347.00,481.29,1
378.00,476.11,1
334.00,468.26,1
308.00,457.98,1
257.00,444.99,1
310.00,429.69,1
287.00,413.49,1
207.00,396.49,1
237.00,378.16,1
219.00,359.14,1
296.00,340.84,1
502.00,326.56,1
298.00,318.11,1
526.00,314.60,1
514.00,316.98,1
392.00,324.38,1
450.00,333.75,1
378.00,343.68,1
422.00,353.32,1
536.00,363.51,1
370.00,374.66,1
461.00,385.10,1
281.00,393.30,1
532.00,399.35,1
384.00,405.05,1
485.00,410.74,1
474.00,416.60,1
672.00,424.69,1
235.00,433.79,1
376.00,438.86,1
216.00,438.11,1
243.00,431.71,1
274.00,420.53,1
311.00,407.23,1
273.00,393.31,1
280.00,379.07,1
269.00,364.82,1
438.00,352.31,1
526.00,345.01,1
298.00,342.86,1
457.00,342.95,1
389.00,344.94,1
440.00,348.90,1
300.00,353.35,1
482.00,357.63,1
497.00,363.65,1
518.00,372.72,1
517.00,384.29,1
279.00,395.53,1
457.00,403.64,1
430.00,409.86,1
535.00,416.35,1
555.00,424.52,1
344.00,433.17,1
347.00,438.54,1
445.00,440.37,1
263.00,439.56,1
282.00,434.78,1
215.00,425.35,1
282.00,412.22,1
320.00,397.71,1
325.00,383.84,1
455.00,372.39,1
451.00,365.34,1
553.00,363.69,1
524.00,367.69,1
286.00,374.20,1
550.00,380.38,1
597.00,388.93,1
389.00,400.22,1
371.00,410.00,1
521.00,417.53,1
430.00,424.68,1
407.00,430.85,1
351.00,434.45,1
316.00,434.60,1
358.00,431.38,1
266.00,425.36,1
317.00,416.71,1
338.00,406.61,1
250.00,395.76,1
354.00,384.28,1
257.00,372.89,1
133.00,360.19,1
225.00,344.78,1
155.00,327.76,1
154.00,309.69,1
108.00,290.41,1
313.00,271.78,1
260.00,256.87,1
350.00,246.82,1
237.00,240.98,1
282.00,237.70,1
356.00,236.91,1
395.00,240.03,1
324.00,246.62,1
336.00,254.86,1
462.00,264.73,1
295.00,276.34,1
302.00,287.21,1
552.00,297.98,1
384.00,311.15,1
382.00,324.95,1
647.00,339.55,1
562.00,358.00,1
387.00,378.03,1
412.00,395.20,1
278.00,407.46,1
133.00,412.45,1
157.00,408.42,1
150.00,396.79,1
256.00,380.62,1
192.00,362.78,1
165.00,343.90,1
288.00,324.84,1
403.00,309.09,1
197.00,297.55,1
304.00,288.05,1
494.00,282.06,1
322.00,281.49,1
405.00,284.59,1
443.00,290.54,1
319.00,298.77,1
487.00,308.16,1
494.00,319.89,1
353.00,333.33,1
503.00,346.61,1
504.00,360.64,1
417.00,375.32,1
374.00,388.21,1
559.00,399.43,1
572.00,411.80,1
459.00,425.45,1
472.00,437.97,1
302.00,447.07,1
244.00,450.13,1
231.00,446.00,1
212.00,435.64,1
202.00,420.42,1
179.00,401.50,1
228.00,380.29,1
304.00,359.36,1
301.00,340.96,1
310.00,325.78,1
565.00,315.77,1
313.00,312.26,1
298.00,311.60,1
340.00,311.13,1
433.00,312.15,1
464.00,316.44,1
495.00,324.62,1
381.00,335.28,1
361.00,345.69,1
658.00,356.73,1
510.00,371.41,1
492.00,388.29,1
442.00,404.29,1
325.00,417.14,1
592.00,427.00,1
375.00,435.96,1
556.00,444.03,1
244.00,449.77,1
355.00,450.79,1
307.00,447.03,1
292.00,439.76,1
343.00,429.85,1
196.00,417.78,1
242.00,402.81,1
193.00,385.27,1
395.00,367.64,1
267.00,352.42,1
437.00,340.50,1
419.00,333.08,1
423.00,330.54,1
345.00,330.99,1
284.00,331.95,1
408.00,332.61,1
416.00,334.66,1
512.00,339.67,1
585.00,349.06,1
223.00,360.39,1
295.00,368.02,1
254.00,370.40,1
298.00,369.05,1
539.00,367.31,1
381.00,368.40,1
207.00,369.51,1
130.00,365.76,1
196.00,356.25,1
241.00,343.55,1
193.00,329.73,1
308.00,316.03,1
299.00,304.33,1
145.00,294.06,1
306.00,283.92,1
359.00,276.06,1
243.00,271.44,1
277.00,268.24,1
303.00,266.03,1
220.00,264.67,1
259.00,263.17,1
443.00,263.10,1
459.00,267.61,1
215.00,275.23,1
369.00,282.32,1
532.00,290.66,1
512.00,303.52,1
246.00,318.19,1
320.00,329.75,1
497.00,339.06,1
383.00,348.98,1
520.00,359.73,1
413.00,371.19,1
213.00,380.51,1
199.00,383.61,1
303.00,380.85,1
194.00,374.42,1
163.00,364.13,1
307.00,351.09,1
185.00,337.50,1
128.00,322.65,1
172.00,305.76,1
178.00,288.19,1
317.00,272.28,1
361.00,260.86,1
252.00,254.21,1
282.00,250.25,1
435.00,249.33,1
258.00,252.04,1
309.00,256.19,1
310.00,260.69,1
478.00,267.12,1
286.00,276.02,1
439.00,286.01,1
208.00,295.48,1
449.00,303.69,1
349.00,311.94,1
445.00,321.05,1
369.00,330.64,1
271.00,339.02,1
316.00,344.31,1
210.00,346.12,1
310.00,344.67,1
305.00,341.55,1
199.00,337.12,1
261.00,330.55,1
243.00,322.58,1
194.00,313.63,1
358.00,304.61,1
444.00,298.89,1
550.00,299.55,1
336.00,305.63,1
363.00,313.28,1
250.00,319.58,1
357.00,323.88,1
575.00,329.21,1
231.00,336.75,1
310.00,342.47,1
489.00,346.56,1
535.00,353.28,1
506.00,363.81,1
515.00,376.88,1
453.00,390.80,1
426.00,403.74,1
413.00,414.41,1
450.00,422.88,1
213.00,427.95,1
269.00,427.07,1
170.00,419.86,1
262.00,407.69,1
191.00,392.25,1
200.00,374.51,1
262.00,355.69,1
247.00,337.62,1
241.00,320.97,1
396.00,307.00,1
329.00,297.49,1
498.00,293.26,1
364.00,294.33,1
315.00,298.16,1
281.00,301.75,1
386.00,304.95,1
522.00,310.33,1
412.00,319.45,1
223.00,328.78,1
283.00,334.43,1
276.00,336.42,1
470.00,337.60,1
154.00,338.66,1
238.00,336.65,1
386.00,332.37,1
449.00,330.19,1
194.00,329.85,1
307.00,328.13,1
239.00,324.61,1
240.00,319.66,1
379.00,314.40,1
258.00,310.38,1
234.00,306.39,1
210.00,300.95,1
177.00,293.75,1
242.00,285.22,1
325.00,277.46,1
380.00,272.91,1
570.00,274.11,1
629.00,283.84,1
310.00,299.50,1
482.00,315.80,1
455.00,332.06,1
291.00,347.36,1
349.00,358.95,1
373.00,367.11,1
448.00,373.94,1
218.00,379.05,1
482.00,381.66,1
296.00,383.24,1
405.00,383.99,1
337.00,383.78,1
401.00,383.16,1
196.00,381.05,1
338.00,376.14,1
177.00,368.61,1
218.00,358.22,1
284.00,345.83,1
277.00,333.77,1
224.00,322.34,1
331.00,311.72,1
294.00,303.10,1
296.00,296.57,1
316.00,291.74,1
384.00,289.28,1
429.00,290.39,1
452.00,295.68,1
339.00,303.82,1
412.00,312.74,1
296.00,321.24,1
454.00,329.13,1
358.00,337.16,1
430.00,345.34,1
329.00,352.93,1
386.00,359.21,1
358.00,364.17,1
301.00,367.48,1
345.00,368.62,1
270.00,367.72,1
306.00,364.72,1
227.00,359.54,1
407.00,353.35,1
200.00,347.22,1
283.00,340.08,1
233.00,331.65,1
218.00,322.23,1
313.00,312.53,1
220.00,303.61,1
492.00,297.11,1
242.00,294.33,1
227.00,292.43,1
232.00,288.94,1
360.00,285.43,1
764.00,287.46,1
392.00,298.54,1
489.00,313.98,1
327.00,329.36,1
480.00,343.58,1
304.00,356.18,1
224.00,364.80,1
269.00,367.62,1
378.00,367.04,1
675.00,368.54,1
383.00,375.01,1
242.00,381.44,1
194.00,382.43,1
135.00,376.78,1
146.00,364.99,1
258.00,349.61,1
219.00,333.61,1
243.00,318.17,1
142.00,302.92,1
161.00,286.97,1
328.00,271.90,1
207.00,259.91,1
346.00,251.25,1
389.00,247.02,1
228.00,246.84,1
214.00,247.30,1
370.00,247.95,1
245.00,250.17,1
237.00,252.65,1
374.00,255.22,1
238.00,258.84,1
288.00,262.44,1
502.00,267.39,1
246.00,275.03,1
380.00,283.11,1
341.00,291.03,1
461.00,300.02,1
181.00,308.88,1
256.00,314.29,1
189.00,315.33,1
174.00,312.38,1
107.00,305.12,1
261.00,294.80,1
130.00,283.50,1
129.00,270.88,1
197.00,257.16,1
147.00,243.75,1
203.00,231.24,1
314.00,221.27,1
383.00,216.42,1
172.00,215.93,1
298.00,216.89,1
502.00,220.97,1
281.00,229.87,1
324.00,240.50,1
467.00,252.19,1
280.00,265.43,1
563.00,279.87,1
228.00,295.09,1
254.00,307.42,1
227.00,314.60,1
392.00,318.73,1
366.00,322.72,1
196.00,325.99,1
416.00,327.39,1
171.00,327.53,1
92.00,323.83,1
107.00,314.16,1
86.00,299.54,1
120.00,281.82,1
167.00,263.09,1
116.00,244.85,1
139.00,227.33,1
114.00,210.68,1
84.00,194.75,1
283.00,180.89,1
421.00,173.24,1
311.00,173.73,1
216.00,178.82,1
196.00,184.55,1
136.00,188.93,1
216.00,191.67,1
84.00,192.79,1
326.00,193.12,1
193.00,194.67,1
83.00,195.98,1
146.00,194.66,1
128.00,191.37,1
148.00,187.07,1
140.00,182.27,1
81.00,176.79,1
115.00,170.21,1
130.00,163.20,1
88.00,156.32,1
90.00,149.18,1
124.00,142.06,1
122.00,135.75,1
114.00,130.46,1
75.00,125.63,1
64.00,120.52,1
188.00,115.88,1
88.00,112.90,1
219.00,111.72,1
148.00,112.73,1
102.00,114.90,1
90.00,116.40,1
127.00,117.06,1
58.00,117.01,1
121.00,116.10,1
60.00,114.53,1
138.00,112.69,1
146.00,111.55,1
115.00,111.51,1
184.00,112.43,1
284.00,115.77,1
90.00,121.44,1
77.00,126.21,1
204.00,129.36,1
158.00,132.79,1
196.00,136.92,1
241.00,142.08,1
153.00,148.17,1
122.00,153.43,1
205.00,157.32,1
90.00,160.21,1
369.00,163.35,1
198.00,168.84,1
65.00,174.29,1
191.00,176.95,1
126.00,177.84,1
334.00,179.06,1
77.00,181.26,1
72.00,181.58,1
92.00,178.34,1
128.00,173.14,1
66.00,166.88,1
168.00,160.13,1
117.00,153.99,1
247.00,149.60,1
330.00,149.14,1
68.00,151.92,1
194.00,154.46,1
113.00,155.99,1
168.00,156.85,1
50.00,156.44,1
54.00,153.63,1
64.00,148.24,1
228.00,142.63,1
168.00,139.35,1
252.00,139.00,1
74.00,140.33,1
127.00,141.05,1
252.00,141.73,1
59.00,143.27,1
177.00,144.21,1
47.00,143.95,1
271.00,143.47,1
150.00,144.47,1
61.00,145.68,1
298.00,146.50,1
123.00,148.73,1
59.00,150.49,1
134.00,149.93,1
299.00,149.73,1
226.00,152.59,1
244.00,157.94,1
373.00,165.79,1
335.00,177.25,1
51.00,189.14,1
69.00,196.09,1
98.00,197.23,1
135.00,194.84,1
112.00,190.55,1
90.00,184.70,1
198.00,178.18,1
175.00,172.79,1
240.00,169.50,1
68.00,167.39,1
67.00,163.89,1
66.00,158.03,1
43.00,150.31,1
79.00,141.37,1
86.00,132.28,1
74.00,123.67,1
72.00,115.57,1
225.00,109.27,1
76.00,105.83,1
62.00,103.35,1
38.00,100.01,1
109.00,96.21,1
270.00,94.49,1
191.00,97.02,1
480.00,105.14,1
423.00,120.96,1
97.00,140.80,1
212.00,158.07,1
66.00,170.78,1
178.00,179.10,1
139.00,184.14,1
74.00,186.23,1
99.00,184.82,1
126.00,180.92,1
112.00,175.77,1
58.00,169.42,1
78.00,161.50,1
45.00,152.26,1
94.00,142.38,1
49.00,132.49,1
68.00,122.76,1
81.00,113.49,1
94.00,105.37,1
111.00,98.86,1
158.00,94.57,1
286.00,94.09,1
135.00,97.79,1
225.00,103.86,1
52.00,110.30,1
229.00,116.17,1
64.00,121.54,1
182.00,126.05,1
126.00,129.89,1
180.00,133.60,1
86.00,136.72,1
185.00,139.02,1
242.00,141.94,1
64.00,145.54,1
110.00,147.44,1
84.00,147.04,1
147.00,145.37,1
67.00,142.96,1
96.00,139.51,1
92.00,135.17,1
151.00,130.96,1
211.00,128.44,1
150.00,128.26,1
292.00,130.54,1
321.00,136.64,1
327.00,147.26,1
44.00,158.89,1
110.00,166.81,1
248.00,171.54,1
161.00,175.80,1
110.00,178.84,1
299.00,180.86,1
195.00,183.89,1
187.00,187.35,1
92.00,189.25,1
172.00,188.89,1
136.00,187.09,1
167.00,184.59,1
244.00,182.49,1
219.00,182.09,1
120.00,182.40,1
162.00,181.72,1
63.00,179.39,1
129.00,175.13,1
106.00,169.63,1
132.00,163.73,1
235.00,158.83,1
163.00,156.18,1
363.00,156.70,1
69.00,159.84,1
48.00,161.48,1
157.00,160.00,1
61.00,157.08,1
220.00,153.79,1
286.00,152.75,1
75.00,154.08,1
117.00,154.57,1
247.00,154.42,1
110.00,155.16,1
164.00,155.81,1
139.00,155.92,1
112.00,155.42,1
122.00,153.91,1
102.00,151.46,1
105.00,148.14,1
391.00,146.53,1
163.00,149.17,1
57.00,152.65,1
119.00,153.51,1
123.00,152.54,1
125.00,150.78,1
165.00,148.91,1
368.00,149.38,1
95.00,153.05,1
50.00,155.80,1
119.00,155.33,1
49.00,152.60,1
109.00,148.17,1
200.00,143.77,1
90.00,140.62,1
125.00,137.75,1
210.00,135.56,1
80.00,134.59,1
188.00,134.02,1
166.00,134.30,1
167.00,135.74,1
371.00,139.61,1
170.00,146.89,1
215.00,155.22,1
66.00,161.91,1
124.00,165.52,1
83.00,166.05,1
48.00,163.71,1
110.00,158.89,1
131.00,153.26,1
186.00,148.54,1
70.00,144.77,1
54.00,140.26,1
103.00,134.50,1
74.00,128.43,1
102.00,122.48,1
57.00,116.68,1
177.00,111.66,1
127.00,108.61,1
232.00,108.21,1
126.00,110.25,1
347.00,115.05,1
53.00,122.17,1
257.00,129.42,1
94.00,136.11,1
136.00,141.49,1
59.00,144.39,1
81.00,144.57,1
71.00,142.29,1
59.00,138.19,1
344.00,134.90,1
164.00,135.56,1
294.00,139.58,1
111.00,145.16,1
61.00,149.37,1
154.00,150.81,1
187.00,151.51,1
124.00,152.42,1
184.00,153.20,1
242.00,154.79,1
77.00,157.06,1
180.00,158.34,1
115.00,158.64,1
78.00,157.65,1
86.00,154.60,1
146.00,150.46,1
101.00,146.29,1
95.00,141.93,1
41.00,136.66,1
88.00,130.30,1
112.00,123.87,1
66.00,118.01,1
120.00,112.66,1
125.00,108.44,1
77.00,105.34,1
207.00,103.52,1
127.00,103.85,1
229.00,106.36,1
169.00,110.98,1
155.00,116.80,1
152.00,122.58,1
108.00,127.61,1
171.00,131.66,1
178.00,135.57,1
140.00,139.59,1
108.00,142.69,1
69.00,143.85,1
122.00,143.00,1
154.00,141.48,1
54.00,139.65,1
240.00,137.79,1
104.00,137.09,1
151.00,136.98,1
272.00,137.97,1
60.00,140.40,1
83.00,141.53,1
109.00,140.46,1
80.00,138.15,1
270.00,136.28,1
154.00,136.76,1
300.00,139.86,1
140.00,144.99,1
476.00,152.85,1
114.00,163.72,1
93.00,173.15,1
105.00,177.91,1
265.00,180.34,1
195.00,183.10,1
157.00,185.85,1
193.00,187.60,1
147.00,188.43,1
166.00,188.21,1
80.00,186.43,1
141.00,182.76,1
72.00,177.49,1
72.00,170.55,1
94.00,162.20,1
128.00,153.68,1
139.00,146.17,1
72.00,139.58,1
290.00,134.70,1
135.00,133.05,1
174.00,133.47,1
157.00,134.68,1
127.00,136.23,1
58.00,136.79,1
386.00,137.90,1
215.00,142.83,1
173.00,150.05,1
257.00,157.33,1
140.00,164.51,1
72.00,169.55,1
102.00,170.95,1
80.00,169.27,1
98.00,165.36,1
287.00,161.58,1
269.00,161.15,1
128.00,163.39,1
153.00,165.29,1
78.00,165.49,1
126.00,163.76,1
90.00,160.51,1
82.00,155.95,1
53.00,149.86,1
219.00,143.64,1
96.00,139.01,1
74.00,134.91,1
104.00,130.20,1
55.00,125.10,1
109.00,119.75,1
52.00,114.41,1
88.00,109.05,1
214.00,105.04,1
264.00,104.95,1
164.00,108.92,1
104.00,114.09,1
96.00,118.11,1
76.00,120.34,1
43.00,120.45,1
140.00,119.02,1
270.00,118.91,1
203.00,122.20,1
245.00,128.33,1
157.00,135.78,1
129.00,142.64,1
143.00,147.73,1
76.00,150.77,1
101.00,151.39,1
64.00,149.66,1
59.00,145.76,1
228.00,141.37,1
136.00,138.75,1
114.00,137.26,1
125.00,135.63,1
127.00,133.96,1
53.00,131.83,1
78.00,128.42,1
168.00,124.69,1
182.00,122.67,1
191.00,123.07,1
227.00,125.86,1
246.00,131.22,1
87.00,137.62,1
174.00,142.84,1
176.00,147.14,1
391.00,153.13,1
49.00,160.95,1
96.00,166.40,1
105.00,167.90,1
205.00,167.71,1
79.00,166.93,1
105.00,164.65,1
79.00,160.51,1
53.00,154.65,1
119.00,147.56,1
86.00,140.41,1
433.00,136.29,1
203.00,138.27,1
101.00,142.98,1
60.00,145.67,1
97.00,145.52,1
104.00,143.54,1
130.00,140.88,1
204.00,138.89,1
211.00,139.02,1
207.00,141.41,1
78.00,144.38,1
163.00,146.18,1
106.00,146.94,1
160.00,147.08,1
59.00,146.31,1
114.00,144.13,1
104.00,140.94,1
96.00,137.29,1
148.00,133.65,1
111.00,130.63,1
159.00,128.38,1
270.00,128.22,1
87.00,130.36,1
109.00,132.26,1
252.00,133.92,1
87.00,136.55,1
67.00,138.11,1
94.00,137.31,1
53.00,134.70,1
206.00,131.61,1
128.00,129.84,1
136.00,129.14,1
49.00,128.05,1
82.00,125.59,1
273.00,123.59,1
75.00,123.80,1
137.00,124.50,1
284.00,126.15,1
84.00,129.76,1
162.00,133.30,1
68.00,135.51,1
190.00,136.73,1
146.00,138.06,1
172.00,139.91,1
132.00,141.84,1
112.00,143.14,1
89.00,143.07,1
73.00,141.26,1
118.00,138.14,1
92.00,134.51,1
138.00,130.94,1
65.00,127.48,1
86.00,123.55,1
61.00,118.94,1
42.00,113.56,1
75.00,107.52,1
100.00,101.78,1
137.00,97.47,1
295.00,96.52,1
122.00,99.60,1
95.00,103.90,1
121.00,107.31,1
80.00,109.79,1
156.00,111.65,1
75.00,113.24,1
289.00,115.64,1
160.00,120.38,1
66.00,125.57,1
273.00,130.03,1
100.00,135.02,1
121.00,139.25,1
119.00,141.65,1
99.00,142.58,1
139.00,142.34,1
162.00,141.89,1
71.00,141.28,1
328.00,141.37,1
88.00,143.52,1
76.00,145.20,1
59.00,144.13,1
65.00,140.68,1
127.00,136.02,1
98.00,131.42,1
287.00,128.64,1
275.00,130.12,1
178.00,135.35,1
83.00,140.76,1
48.00,143.47,1
131.00,143.36,1
60.00,141.58,1
276.00,139.90,1
93.00,139.83,1
268.00,141.19,1
50.00,143.17,1
252.00,145.08,1
154.00,147.59,1
134.00,150.35,1
173.00,152.40,1
83.00,153.57,1
140.00,153.33,1
123.00,152.08,1
152.00,150.55,1
55.00,148.40,1
152.00,145.26,1
117.00,142.01,1
49.00,138.42,1
44.00,133.24,1
182.00,127.53,1
322.00,125.04,1
238.00,127.85,1
167.00,133.76,1
285.00,140.93,1
200.00,149.49,1
156.00,158.01,1
81.00,164.15,1
120.00,166.97,1
74.00,166.84,1
161.00,164.73,1
91.00,161.71,1
224.00,158.75,1
173.00,157.15,1
237.00,157.43,1
62.00,158.30,1
67.00,157.23,1
76.00,153.46,1
96.00,148.10,1
124.00,142.36,1
76.00,136.76,1
95.00,131.04,1
178.00,126.04,1
135.00,122.92,1
66.00,120.74,1
275.00,119.59,1
89.00,120.59,1
135.00,122.23,1
98.00,123.21,1
172.00,124.03,1
130.00,125.29,1
96.00,126.47,1
239.00,127.82,1
107.00,130.25,1
103.00,132.39,1
107.00,133.10,1
86.00,132.56,1
57.00,130.51,1
133.00,127.38,1
75.00,124.07,1
263.00,121.99,1
99.00,122.18,1
168.00,123.48,1
153.00,125.27,1
78.00,127.04,1
255.00,128.86,1
252.00,132.97,1
176.00,139.44,1
95.00,145.52,1
57.00,148.81,1
68.00,148.65,1
69.00,145.76,1
102.00,141.28,1
319.00,138.11,1
199.00,138.93,1
331.00,143.69,1
212.00,151.46,1
50.00,159.01,1
121.00,163.03,1
119.00,164.06,1
544.00,166.90,1
106.00,174.48,1
270.00,182.95,1
79.00,189.33,1
130.00,192.48,1
254.00,193.39,1
127.00,194.01,1
93.00,193.02,1
127.00,189.51,1
84.00,184.13,1
175.00,177.82,1
194.00,172.34,1
131.00,168.21,1
83.00,163.96,1
109.00,158.66,1
79.00,152.51,1
130.00,146.05,1
58.00,139.59,1
232.00,134.01,1
77.00,130.31,1
154.00,127.66,1
102.00,125.45,1
111.00,123.50,1
112.00,121.54,1
102.00,119.64,1
118.00,117.82,1
58.00,115.82,1
244.00,114.42,1
99.00,114.92,1
82.00,115.83,1
328.00,117.59,1
40.00,121.50,1
167.00,125.20,1
120.00,127.96,1
100.00,130.01,1
189.00,131.48,1
66.00,132.75,1
234.00,133.91,1
208.00,136.51,1
176.00,140.79,1
139.00,145.18,1
218.00,149.28,1
174.00,153.64,1
123.00,157.57,1
113.00,159.75,1
72.00,159.58,1
107.00,157.15,1
154.00,153.75,1
58.00,149.98,1
110.00,145.31,1
63.00,139.76,1
161.00,134.20,1
70.00,129.29,1
229.00,125.68,1
115.00,124.10,1
184.00,124.12,1
116.00,124.99,1
142.00,126.14,1
96.00,126.94,1
60.00,126.59,1
139.00,125.08,1
153.00,123.85,1
115.00,123.46,1
70.00,122.83,1
105.00,121.26,1
142.00,119.53,1
95.00,118.27,1
100.00,116.98,1
108.00,115.45,1
373.00,116.16,1
342.00,122.79,1
326.00,135.27,1
214.00,150.24,1
432.00,166.48,1
156.00,183.53,1
174.00,198.01,1
182.00,208.12,1
396.00,216.64,1
265.00,226.22,1
358.00,236.63,1
574.00,249.56,1
362.00,266.70,1
219.00,283.45,1
401.00,296.75,1
218.00,307.26,1
126.00,313.04,1
189.00,312.53,1
129.00,307.09,1
397.00,299.72,1
100.00,292.66,1
280.00,284.87,1
117.00,275.92,1
120.00,265.22,1
126.00,252.28,1
102.00,237.99,1
174.00,223.42,1
260.00,210.83,1
421.00,203.55,1
311.00,202.94,1
338.00,207.21,1
197.00,213.42,1
404.00,220.48,1
222.00,228.69,1
160.00,235.70,1
229.00,239.61,1
256.00,241.87,1
201.00,243.38,1
271.00,244.16,1
329.00,245.54,1
453.00,249.92,1
197.00,256.84,1
180.00,262.10,1
70.00,262.57,1
205.00,258.57,1
234.00,252.86,1
106.00,246.59,1
132.00,238.40,1
126.00,228.41,1
120.00,217.41,1
117.00,205.83,1
82.00,193.81,1
499.00,184.71,1
215.00,182.49,1
365.00,185.42,1
416.00,192.74,1
230.00,203.72,1
303.00,215.09,1
128.00,224.58,1
129.00,230.02,1
208.00,231.40,1
147.00,230.51,1
256.00,228.47,1
213.00,226.58,1
174.00,224.72,1
238.00,222.48,1
259.00,220.93,1
384.00,221.89,1
283.00,226.14,1
147.00,230.97,1
192.00,233.36,1
143.00,233.03,1
106.00,229.88,1
103.00,223.64,1
107.00,214.97,1
101.00,204.68,1
110.00,193.56,1
162.00,182.69,1
520.00,176.31,1
400.00,178.93,1
358.00,188.94,1
438.00,203.10,1
170.00,218.79,1
241.00,231.90,1
206.00,241.28,1
207.00,247.52,1
294.00,251.63,1
392.00,256.24,1
302.00,262.72,1
235.00,269.14,1
114.00,272.42,1
198.00,271.32,1
226.00,267.60,1
288.00,263.68,1
369.00,261.65,1
340.00,262.77,1
314.00,266.18,1
141.00,269.13,1
122.00,268.38,1
172.00,263.55,1
123.00,256.04,1
72.00,245.88,1
58.00,232.69,1
262.00,218.69,1
158.00,206.93,1
96.00,196.73,1
244.00,187.39,1
230.00,180.83,1
179.00,177.17,1
196.00,175.01,1
261.00,174.47,1
283.00,176.59,1
307.00,181.77,1
408.00,190.47,1
309.00,202.68,1
403.00,217.08,1
269.00,232.28,1
348.00,246.81,1
325.00,260.37,1
245.00,272.34,1
290.00,281.57,1
114.00,287.00,1
236.00,287.86,1
168.00,285.23,1
132.00,279.58,1
141.00,270.79,1
62.00,259.06,1
202.00,245.43,1
82.00,231.48,1
127.00,217.29,1
177.00,203.57,1
136.00,191.52,1
146.00,180.95,1
119.00,171.45,1
329.00,164.48,1
651.00,165.60,1
516.00,178.75,1
627.00,202.09,1
363.00,230.79,1
534.00,260.60,1
442.00,290.16,1
414.00,318.15,1
376.00,342.51,1
447.00,363.03,1
397.00,380.40,1
439.00,394.90,1
452.00,407.14,1
318.00,416.70,1
430.00,422.73,1
485.00,427.08,1
451.00,431.57,1
242.00,434.17,1
156.00,430.80,1
271.00,420.70,1
354.00,407.78,1
201.00,394.24,1
217.00,378.93,1
347.00,362.88,1
252.00,348.30,1
147.00,333.94,1
329.00,319.18,1
435.00,307.66,1
449.00,302.39,1
595.00,304.45,1
475.00,313.46,1
456.00,326.54,1
474.00,341.12,1
515.00,356.81,1
370.00,372.44,1
658.00,387.84,1
546.00,405.20,1
415.00,422.88,1
558.00,438.33,1
711.00,454.12,1
537.00,471.89,1
694.00,490.33,1
531.00,508.45,1
448.00,523.62,1
215.00,531.32,1
259.00,529.03,1
263.00,518.01,1
226.00,500.74,1
323.00,479.61,1
222.00,456.74,1
242.00,432.57,1
232.00,407.68,1
267.00,383.34,1
532.00,362.89,1
405.00,349.81,1
320.00,342.03,1
545.00,337.95,1
336.00,338.20,1
381.00,340.41,1
491.00,343.98,1
362.00,349.61,1
391.00,355.61,1
538.00,362.30,1
378.00,370.67,1
696.00,381.24,1
639.00,396.60,1
437.00,415.10,1
351.00,430.83,1
492.00,442.02,1
400.00,450.23,1
195.00,453.88,1
326.00,450.85,1
344.00,443.48,1
190.00,433.15,1
277.00,419.22,1
302.00,403.43,1
275.00,387.66,1
218.00,371.69,1
184.00,354.68,1
215.00,336.65,1
586.00,321.76,1
399.00,314.61,1
557.00,314.80,1
558.00,321.74,1
438.00,333.81,1
518.00,348.08,1
642.00,364.95,1
296.00,383.04,1
799.00,400.91,1
312.00,419.47,1
595.00,436.39,1
662.00,452.71,1
448.00,469.71,1
761.00,486.31,1
495.00,503.22,1
564.00,518.57,1
586.00,531.34,1
438.00,541.44,1
462.00,547.11,1
254.00,546.68,1
271.00,538.52,1
279.00,523.42,1
312.00,504.06,1
209.00,481.80,1
262.00,457.16,1
363.00,432.38,1
341.00,410.23,1
392.00,391.71,1
728.00,380.01,1
515.00,378.24,1
639.00,384.24,1
669.00,396.48,1
496.00,413.20,1
515.00,430.21,1
300.00,444.00,1
366.00,452.00,1
477.00,455.62,1
503.00,458.38,1
514.00,461.83,1
589.00,466.72,1
340.00,471.81,1
344.00,473.39,1
516.00,471.67,1
573.00,470.88,1
334.00,471.22,1
339.00,468.92,1
391.00,463.24,1
254.00,454.99,1
291.00,443.44,1
315.00,429.49,1
313.00,414.89,1
458.00,401.63,1
224.00,390.29,1
444.00,379.92,1
525.00,373.05,1
386.00,371.08,1
613.00,373.11,1
256.00,377.81,1
423.00,381.69,1
172.00,382.54,1
179.00,378.30,1
383.00,370.07,1
358.00,362.34,1
371.00,356.66,1
288.00,352.01,1
576.00,349.46,1
255.00,349.99,1
604.00,352.80,1
397.00,358.67,1
518.00,367.17,1
300.00,375.82,1
441.00,382.85,1
340.00,388.10,1
322.00,391.19,1
293.00,391.14,1
263.00,387.81,1
339.00,381.99,1
394.00,375.97,1
215.00,370.04,1
390.00,363.33,1
397.00,357.72,1
571.00,356.17,1
480.00,359.90,1
391.00,366.74,1
527.00,374.64,1
402.00,383.51,1
239.00,390.55,1
365.00,393.21,1
306.00,392.78,1
580.00,392.35,1
256.00,393.29,1
356.00,392.98,1
363.00,390.74,1
291.00,387.46,1
515.00,384.23,1
298.00,382.45,1
447.00,381.34,1
330.00,380.46,1
249.00,378.42,1
167.00,372.58,1
398.00,363.91,1
316.00,355.86,1
518.00,350.76,1
359.00,349.45,1
278.00,349.42,1
252.00,347.50,1
613.00,346.09,1
504.00,350.05,1
461.00,358.73,1
462.00,369.07,1
339.00,379.00,1
408.00,386.80,1
543.00,393.98,1
448.00,402.48,1
346.00,410.39,1
317.00,414.85,1
443.00,416.25,1
326.00,416.18,1
516.00,415.68,1
601.00,417.78,1
676.00,425.35,1
361.00,436.17,1
448.00,445.22,1
149.00,448.97,1
300.00,445.60,1
261.00,436.55,1
283.00,424.37,1
330.00,410.68,1
366.00,397.51,1
210.00,384.86,1
242.00,371.02,1
415.00,357.39,1
366.00,347.13,1
492.00,341.41,1
411.00,340.36,1
591.00,344.13,1
463.00,352.66,1
383.00,363.20,1
395.00,372.63,1
342.00,379.99,1
562.00,386.59,1
214.00,392.71,1
443.00,396.21,1
375.00,397.97,1
588.00,400.88,1
455.00,406.42,1
594.00,414.47,1
329.00,423.18,1
335.00,428.89,1
343.00,430.13,1
234.00,427.19,1
258.00,419.58,1
376.00,409.23,1
259.00,398.31,1
286.00,386.60,1
259.00,373.92,1
160.00,359.87,1
153.00,343.30,1
168.00,324.57,1
484.00,307.66,1
383.00,297.23,1
354.00,292.76,1
416.00,292.15,1
455.00,295.59,1
484.00,303.44,1
392.00,314.39,1
441.00,326.43,1
266.00,337.52,1
305.00,345.36,1
328.00,349.82,1
690.00,355.32,1
461.00,365.62,1
637.00,379.99,1
316.00,395.33,1
528.00,408.78,1
376.00,419.93,1
305.00,427.62,1
161.00,428.73,1
198.00,422.20,1
343.00,410.74,1
281.00,398.02,1
175.00,384.12,1
206.00,367.77,1
154.00,349.26,1
169.00,329.27,1
190.00,308.84,1
421.00,291.11,1
374.00,279.65,1
433.00,274.97,1
366.00,275.64,1
558.00,281.25,1
500.00,292.63,1
653.00,309.89,1
383.00,330.93,1
552.00,352.26,1
390.00,372.34,1
488.00,390.35,1
548.00,406.95,1
355.00,422.14,1
346.00,432.96,1
436.00,439.09,1
254.00,441.41,1
250.00,438.37,1
154.00,429.01,1
94.00,413.08,1
108.00,390.95,1
216.00,365.55,1
146.00,339.82,1
184.00,314.73,1
147.00,290.72,1
111.00,267.72,1
113.00,245.39,1
251.00,225.16,1
114.00,208.36,1
212.00,194.42,1
232.00,183.76,1
343.00,178.01,1
150.00,176.61,1
322.00,177.68,1
302.00,181.71,1
131.00,187.51,1
321.00,193.03,1
223.00,199.09,1
136.00,204.57,1
278.00,208.37,1
169.00,211.48,1
344.00,214.78,1
334.00,220.02,1
159.00,226.40,1
222.00,230.98,1
272.00,234.05,1
110.00,235.88,1
143.00,234.71,1
139.00,230.47,1
126.00,224.14,1
187.00,216.69,1
87.00,208.71,1
169.00,200.13,1
170.00,191.91,1
105.00,184.39,1
112.00,176.66,1
124.00,168.68,1
245.00,162.05,1
233.00,158.64,1
161.00,158.01,1
301.00,159.42,1
328.00,164.26,1
366.00,173.44,1
219.00,185.31,1
216.00,196.64,1
128.00,205.17,1
250.00,210.80,1
132.00,214.39,1
300.00,216.76,1
202.00,219.11,1
428.00,223.03,1
448.00,231.11,1
230.00,242.50,1
130.00,251.71,1
155.00,255.72,1
147.00,255.17,1
182.00,251.49,1
89.00,245.33,1
111.00,236.41,1
84.00,225.00,1
164.00,212.56,1
101.00,200.31,1
220.00,189.21,1
188.00,180.55,1
292.00,175.34,1
279.00,174.32,1
191.00,176.38,1
208.00,179.31,1
313.00,183.23,1
146.00,188.24,1
398.00,194.12,1
283.00,202.32,1
458.00,213.63,1
211.00,226.85,1
280.00,238.98,1
219.00,248.47,1
260.00,255.55,1
330.00,261.31,1
332.00,267.42,1
239.00,273.41,1
100.00,276.43,1
80.00,273.79,1
78.00,265.49,1
78.00,252.97,1
133.00,238.07,1
52.00,222.17,1
64.00,205.23,1
143.00,188.25,1
89.00,172.75,1
65.00,158.45,1
229.00,146.04,1
179.00,137.61,1
443.00,135.22,1
276.00,140.05,1
316.00,149.95,1
302.00,162.50,1
164.00,175.64,1
240.00,187.00,1
332.00,197.53,1
244.00,208.50,1
201.00,218.39,1
144.00,225.19,1
332.00,229.70,1
281.00,234.54,1
152.00,239.11,1
243.00,241.52,1
346.00,243.49,1
118.00,245.66,1
84.00,244.67,1
236.00,240.13,1
223.00,235.18,1
127.00,230.32,1
110.00,223.86,1
176.00,215.84,1
224.00,208.27,1
127.00,201.84,1
380.00,197.39,1
221.00,196.66,1
195.00,198.00,1
413.00,200.94,1
305.00,207.52,1
427.00,217.70,1
233.00,229.76,1
131.00,239.78,1
198.00,245.19,1
440.00,249.17,1
347.00,255.80,1
338.00,264.55,1
280.00,273.24,1
225.00,280.08,1
323.00,284.72,1
528.00,290.41,1
178.00,298.05,1
140.00,302.45,1
199.00,301.20,1
212.00,296.45,1
92.00,288.92,1
133.00,278.05,1
98.00,264.33,1
118.00,248.84,1
94.00,232.40,1
110.00,215.67,1
53.00,198.82,1
112.00,182.13,1
308.00,168.27,1
328.00,160.95,1
306.00,160.59,1
236.00,164.74,1
472.00,172.88,1
145.00,184.32,1
169.00,194.62,1
220.00,201.79,1
229.00,207.49,1
482.00,214.56,1
424.00,226.24,1
308.00,241.19,1
420.00,256.65,1
274.00,271.70,1
238.00,284.11,1
120.00,291.35,1
148.00,292.36,1
66.00,287.41,1
196.00,278.05,1
77.00,266.12,1
201.00,252.82,1
96.00,239.11,1
171.00,225.41,1
72.00,211.75,1
57.00,197.43,1
154.00,182.79,1
280.00,170.96,1
294.00,164.69,1
368.00,164.80,1
411.00,171.42,1
205.00,182.38,1
352.00,194.41,1
203.00,206.32,1
383.00,217.99,1
379.00,230.84,1
279.00,244.72,1
219.00,256.74,1
178.00,264.72,1
228.00,268.64,1
170.00,269.35,1
190.00,267.19,1
108.00,262.14,1
129.00,254.04,1
134.00,243.55,1
154.00,232.06,1
141.00,220.47,1
146.00,209.18,1
166.00,198.62,1
141.00,189.15,1
71.00,179.98,1
84.00,170.09,1
218.00,160.72,1
264.00,154.80,1
228.00,153.25,1
141.00,154.12,1
190.00,155.48,1
123.00,156.70,1
241.00,158.05,1
177.00,160.33,1
250.00,163.75,1
172.00,167.96,1
418.00,174.02,1
161.00,182.53,1
235.00,191.03,1
203.00,198.06,1
230.00,204.05,1
153.00,208.60,1
92.00,210.33,1
130.00,208.57,1
109.00,204.15,1
130.00,197.99,1
79.00,190.43,1
112.00,181.69,1
109.00,172.44,1
470.00,166.34,1
57.00,165.38,1
149.00,165.25,1
116.00,163.55,1
136.00,161.12,1
84.00,157.85,1
239.00,154.63,1
141.00,152.87,1
281.00,153.12,1
140.00,155.24,1
127.00,157.41,1
127.00,158.15,1
139.00,157.78,1
176.00,157.07,1
376.00,158.53,1
216.00,163.86,1
548.00,173.74,1
134.00,187.49,1
151.00,199.72,1
129.00,207.10,1
171.00,210.64,1
143.00,211.44,1
62.00,209.31,1
182.00,204.46,1
94.00,198.31,1
239.00,192.10,1
106.00,186.64,1
83.00,180.72,1
105.00,173.34,1
113.00,165.35,1
86.00,157.25,1
146.00,149.44,1
180.00,143.18,1
336.00,140.65,1
202.00,142.82,1
78.00,146.54,1
206.00,149.17,1
70.00,150.87,1
272.00,152.28,1
122.00,154.40,1
281.00,157.50,1
160.00,161.62,1
200.00,166.03,1
179.00,170.00,1
322.00,174.68,1
201.00,180.95,1
122.00,186.72,1
72.00,189.19,1
93.00,187.72,1
215.00,184.29,1
144.00,181.11,1
230.00,178.77,1
196.00,177.69,1
88.00,176.87,1
201.00,175.13,1
81.00,172.74,1
70.00,168.77,1
109.00,162.87,1
308.00,157.94,1
172.00,156.39,1
224.00,157.34,1
109.00,158.89,1
152.00,159.72,1
120.00,159.46,1
76.00,157.85,1
302.00,156.15,1
217.00,157.15,1
243.00,160.81,1
111.00,165.00,1
340.00,169.40,1
295.00,176.14,1
237.00,185.09,1
134.00,193.25,1
109.00,198.12,1
69.00,198.73,1
142.00,195.79,1
118.00,190.97,1
142.00,185.28,1
88.00,178.88,1
89.00,171.45,1
63.00,162.85,1
67.00,153.25,1
67.00,143.04,1
355.00,135.14,1
127.00,132.18,1
220.00,132.43,1
109.00,133.83,1
156.00,135.39,1
164.00,136.93,1
110.00,138.48,1
125.00,139.29,1
155.00,139.54,1
330.00,141.45,1
160.00,146.30,1
116.00,151.48,1
135.00,154.78,1
165.00,156.71,1
331.00,159.58,1
139.00,164.47,1
136.00,168.90,1
58.00,170.57,1
128.00,169.29,1
138.00,166.45,1
132.00,163.22,1
190.00,160.26,1
74.00,157.55,1
66.00,153.63,1
86.00,147.98,1
108.00,141.64,1
107.00,135.52,1
61.00,129.55,1
398.00,125.93,1
145.00,127.33,1
144.00,131.07,1
106.00,134.02,1
127.00,135.82,1
60.00,136.17,1
152.00,135.21,1
73.00,133.62,1
194.00,132.06,1
291.00,132.76,1
305.00,137.83,1
232.00,146.49,1
225.00,156.46,1
156.00,165.80,1
184.00,173.37,1
107.00,178.61,1
127.00,181.01,1
89.00,180.54,1
177.00,178.20,1
120.00,175.17,1
115.00,171.47,1
162.00,167.21,1
118.00,163.05,1
80.00,158.44,1
76.00,152.62,1
61.00,145.53,1
256.00,139.09,1
327.00,137.04,1
127.00,139.50,1
236.00,143.53,1
58.00,147.28,1
139.00,149.31,1
50.00,149.07,1
165.00,147.29,1
71.00,144.79,1
199.00,142.29,1
89.00,140.30,1
316.00,139.87,1
310.00,143.49,1
230.00,151.12,1
177.00,159.76,1
92.00,166.63,1
105.00,170.17,1
115.00,170.68,1
216.00,169.96,1
94.00,169.09,1
82.00,166.85,1
115.00,162.71,1
123.00,157.77,1
46.00,152.15,1
57.00,145.09,1
47.00,136.60,1
112.00,127.80,1
258.00,121.27,1
312.00,120.14,1
235.00,124.53,1
166.00,131.61,1
50.00,137.74,1
132.00,141.12,1
178.00,143.08,1
230.00,145.79,1
72.00,148.89,1
187.00,150.97,1
106.00,152.11,1
159.00,152.55,1
228.00,153.24,1
94.00,154.56,1
78.00,154.53,1
117.00,152.42,1
135.00,149.47,1
54.00,145.92,1
158.00,141.72,1
70.00,137.48,1
169.00,133.57,1
126.00,130.59,1
71.00,128.08,1
78.00,124.80,1
111.00,120.96,1
99.00,117.35,1
79.00,113.93,1
297.00,112.16,1
129.00,113.74,1
61.00,116.29,1
118.00,117.41,1
144.00,118.02,1
89.00,118.68,1
129.00,118.98,1
39.00,118.46,1
48.00,116.26,1
396.00,115.14,1
210.00,119.20,1
218.00,126.90,1
85.00,134.62,1
140.00,140.40,1
101.00,143.98,1
42.00,145.08,1
212.00,144.38,1
84.00,143.63,1
163.00,142.79,1
116.00,141.78,1
174.00,141.02,1
57.00,140.09,1
72.00,137.72,1
177.00,134.47,1
123.00,132.10,1
366.00,132.48,1
149.00,136.77,1
377.00,144.16,1
181.00,153.99,1
168.00,163.89,1
96.00,171.05,1
42.00,174.18,1
97.00,173.02,1
332.00,171.11,1
392.00,173.55,1
764.00,185.33,1
274.00,206.35,1
79.00,227.01,1
101.00,239.51,1
234.00,245.35,1
107.00,247.24,1
195.00,245.78,1
76.00,241.28,1
100.00,233.55,1
121.00,223.18,1
101.00,211.58,1
66.00,198.98,1
84.00,185.44,1
65.00,171.50,1
64.00,157.53,1
78.00,143.94,1
103.00,131.51,1
128.00,121.13,1
257.00,114.34,1
233.00,112.69,1
157.00,114.98,1
131.00,118.53,1
162.00,122.11,1
74.00,125.17,1
77.00,126.55,1
151.00,126.53,1
399.00,128.75,1
208.00,135.75,1
147.00,144.53,1
184.00,152.10,1
141.00,158.24,1
51.00,161.94,1
288.00,163.76,1
190.00,166.49,1
254.00,170.69,1
62.00,174.52,1
117.00,175.75,1
102.00,174.16,1
90.00,170.59,1
70.00,165.16,1
76.00,158.13,1
104.00,150.26,1
129.00,142.72,1
117.00,136.22,1
117.00,130.75,1
131.00,126.26,1
343.00,124.61,1
187.00,127.56,1
166.00,132.89,1
117.00,137.81,1
183.00,141.81,1
312.00,146.74,1
183.00,153.87,1
140.00,160.96,1
256.00,166.98,1
180.00,172.92,1
309.00,179.37,1
113.00,185.88,1
144.00,190.29,1
164.00,192.01,1
152.00,192.11,1
77.00,190.31,1
178.00,186.63,1
139.00,182.38,1
83.00,177.56,1
80.00,171.19,1
58.00,163.16,1
57.00,153.74,1
156.00,144.18,1
246.00,137.27,1
200.00,134.53,1
125.00,134.40,1
147.00,134.80,1
182.00,135.61,1
244.00,138.00,1
180.00,142.33,1
206.00,147.63,1
343.00,154.51,1
196.00,163.71,1
283.00,173.72,1
222.00,183.73,1
346.00,194.17,1
225.00,205.10,1
173.00,214.64,1
154.00,220.77,1
132.00,223.17,1
131.00,222.15,1
244.00,219.30,1
67.00,215.55,1
97.00,209.47,1
118.00,201.04,1
75.00,191.36,1
140.00,181.03,1
374.00,173.24,1
254.00,171.06,1
254.00,173.14,1
423.00,178.81,1
239.00,188.32,1
449.00,200.46,1
162.00,213.82,1
202.00,224.95,1
326.00,233.35,1
272.00,241.33,1
228.00,248.49,1
248.00,253.78,1
386.00,258.58,1
239.00,264.11,1
336.00,269.50,1
502.00,276.38,1
392.00,286.83,1
124.00,296.95,1
168.00,301.46,1
125.00,299.74,1
76.00,292.60,1
147.00,280.97,1
115.00,266.79,1
117.00,251.24,1
280.00,236.32,1
184.00,224.30,1
62.00,213.62,1
333.00,203.73,1
306.00,198.06,1
183.00,196.53,1
388.00,197.61,1
173.00,201.29,1
403.00,206.84,1
219.00,214.14,1
319.00,222.21,1
280.00,230.40,1
317.00,238.89,1
201.00,246.67,1
175.00,251.80,1
242.00,253.90,1
379.00,255.68,1
383.00,260.03,1
290.00,266.61,1
314.00,273.35,1
226.00,278.88,1
172.00,281.64,1
182.00,280.64,1
242.00,277.02,1
179.00,272.08,1
208.00,266.01,1
365.00,260.54,1
481.00,259.54,1
256.00,263.30,1
183.00,267.17,1
285.00,268.76,1
374.00,270.40,1
230.00,273.15,1
190.00,274.66,1
220.00,273.58,1
305.00,271.43,1
510.00,271.91,1
276.00,276.53,1
259.00,281.82,1
267.00,285.27,1
268.00,287.22,1
302.00,288.34,1
230.00,288.77,1
362.00,288.83,1
288.00,289.59,1
276.00,290.64,1
498.00,292.88,1
160.00,296.75,1
230.00,298.52,1
231.00,297.01,1
168.00,293.13,1
249.00,287.23,1
224.00,280.59,1
259.00,274.16,1
189.00,267.91,1
208.00,261.28,1
188.00,254.14,1
367.00,248.18,1
378.00,246.23,1
274.00,248.16,1
319.00,251.73,1
230.00,255.57,1
348.00,259.36,1
279.00,263.61,1
371.00,268.70,1
270.00,274.37,1
319.00,279.77,1
360.00,285.11,1
349.00,291.23,1
251.00,297.07,1
356.00,301.67,1
233.00,305.06,1
285.00,306.71,1
358.00,307.42,1
235.00,308.01,1
280.00,307.42,1
199.00,305.01,1
180.00,300.20,1
186.00,292.72,1
176.00,283.39,1
135.00,272.49,1
190.00,260.42,1
210.00,248.64,1
233.00,238.44,1
349.00,231.29,1
562.00,230.61,1
285.00,236.94,1
