62.00,105.03,1
55.00,100.60,1
65.00,95.85,1
64.00,91.13,1
88.00,86.85,1
57.00,83.18,1
111.00,80.23,1
63.00,78.17,1
86.00,76.69,1
49.00,75.37,1
98.00,74.21,1
104.00,73.76,1
62.00,74.03,1
127.00,74.73,1
75.00,76.01,1
72.00,77.37,1
104.00,78.51,1
103.00,79.94,1
87.00,81.67,1
60.00,83.07,1
39.00,83.42,1
100.00,82.89,1
108.00,82.63,1
84.00,83.00,1
89.00,83.55,1
57.00,83.85,1
109.00,83.88,1
37.00,83.71,1
136.00,83.45,1
55.00,83.50,1
54.00,83.26,1
58.00,82.15,1
42.00,80.32,1
36.00,77.75,1
62.00,74.67,1
49.00,71.59,1
104.00,69.06,1
67.00,67.54,1
59.00,66.61,1
82.00,65.90,1
70.00,65.62,1
89.00,65.81,1
50.00,66.24,1
38.00,66.26,1
90.00,65.86,1
216.00,66.97,1
55.00,70.41,1
71.00,73.99,1
74.00,76.49,1
106.00,78.55,1
135.00,81.01,1
65.00,83.85,1
110.00,86.33,1
139.00,88.88,1
36.00,91.38,1
130.00,93.08,1
46.00,94.11,1
50.00,94.03,1
36.00,92.36,1
49.00,89.41,1
44.00,85.69,1
62.00,81.66,1
62.00,77.80,1
61.00,74.33,1
62.00,71.27,1
82.00,68.79,1
108.00,67.41,1
82.00,67.27,1
68.00,67.76,1
103.00,68.54,1
83.00,69.83,1
121.00,71.72,1
99.00,74.30,1
66.00,76.98,1
71.00,78.97,1
34.00,79.87,1
80.00,79.73,1
36.00,78.88,1
72.00,77.47,1
62.00,75.83,1
142.00,74.88,1
92.00,75.31,1
105.00,76.72,1
36.00,78.04,1
63.00,78.45,1
61.00,78.00,1
82.00,77.28,1
56.00,76.50,1
81.00,75.66,1
52.00,74.74,1
63.00,73.63,1
87.00,72.54,1
81.00,71.94,1
58.00,71.64,1
71.00,71.26,1
70.00,70.85,1
66.00,70.49,1
113.00,70.48,1
85.00,71.27,1
49.00,72.25,1
64.00,72.66,1
45.00,72.38,1
132.00,72.15,1
100.00,72.96,1
81.00,74.59,1
127.00,76.58,1
46.00,78.71,1
101.00,80.37,1
55.00,81.47,1
165.00,82.73,1
150.00,85.37,1
226.00,90.30,1
37.00,96.35,1
277.00,102.52,1
78.00,109.37,1
215.00,116.33,1
106.00,122.84,1
106.00,128.13,1
52.00,130.95,1
71.00,131.08,1
47.00,128.80,1
313.00,126.76,1
56.00,127.05,1
105.00,127.45,1
81.00,126.40,1
146.00,124.83,1
331.00,125.34,1
208.00,130.02,1
136.00,136.60,1
148.00,142.27,1
131.00,146.52,1
188.00,149.85,1
190.00,153.19,1
87.00,156.07,1
57.00,156.57,1
152.00,154.68,1
59.00,151.58,1
310.00,149.01,1
54.00,148.18,1
66.00,146.65,1
320.00,144.82,1
470.00,148.36,1
270.00,158.84,1
126.00,170.97,1
326.00,181.54,1
85.00,190.71,1
103.00,196.30,1
260.00,198.61,1
147.00,200.16,1
65.00,199.83,1
266.00,197.44,1
522.00,198.34,1
201.00,205.07,1
51.00,211.46,1
523.00,216.15,1
143.00,222.85,1
146.00,228.46,1
314.00,231.37,1
104.00,233.17,1
192.00,232.73,1
248.00,230.78,1
790.00,233.90,1
206.00,245.43,1
199.00,257.66,1
96.00,264.20,1
110.00,264.49,1
192.00,260.15,1
138.00,253.47,1
182.00,245.38,1
538.00,239.72,1
137.00,239.02,1
57.00,237.77,1
250.00,233.07,1
64.00,226.92,1
52.00,218.29,1
67.00,206.39,1
55.00,192.50,1
146.00,178.24,1
119.00,165.35,1
212.00,155.02,1
369.00,149.61,1
674.00,154.21,1
378.00,169.89,1
188.00,189.62,1
819.00,211.34,1
312.00,238.52,1
42.00,263.56,1
256.00,279.28,1
246.00,288.59,1
354.00,295.23,1
176.00,299.84,1
62.00,299.71,1
311.00,294.72,1
65.00,287.39,1
125.00,276.93,1
174.00,263.83,1
166.00,250.43,1
147.00,237.33,1
119.00,224.31,1
198.00,211.82,1
42.00,199.91,1
84.00,187.28,1
341.00,176.04,1
294.00,170.51,1
59.00,168.85,1
40.00,165.74,1
84.00,159.71,1
138.00,152.69,1
186.00,146.82,1
117.00,142.70,1
52.00,138.75,1
79.00,133.62,1
90.00,127.78,1
80.00,121.92,1
264.00,117.69,1
98.00,116.46,1
135.00,116.59,1
51.00,116.30,1
39.00,114.50,1
220.00,112.23,1
48.00,111.14,1
57.00,109.73,1
133.00,107.44,1
62.00,105.34,1
37.00,102.68,1
49.00,98.77,1
221.00,95.48,1
92.00,94.65,1
64.00,94.77,1
169.00,94.95,1
140.00,96.44,1
71.00,98.68,1
142.00,100.64,1
160.00,103.05,1
58.00,105.78,1
56.00,107.10,1
62.00,106.49,1
159.00,105.31,1
68.00,104.64,1
81.00,103.78,1
41.00,101.93,1
84.00,99.19,1
80.00,96.21,1
78.00,93.43,1
72.00,90.78,1
60.00,88.09,1
40.00,85.06,1
51.00,81.52,1
53.00,77.73,1
46.00,73.97,1
39.00,70.18,1
244.00,68.02,1
59.00,68.98,1
79.00,71.09,1
210.00,73.86,1
81.00,78.36,1
125.00,83.29,1
88.00,87.75,1
145.00,91.94,1
133.00,96.30,1
79.00,100.48,1
127.00,103.79,1
69.00,106.20,1
83.00,107.40,1
199.00,108.35,1
207.00,111.16,1
56.00,115.17,1
43.00,117.40,1
168.00,117.77,1
56.00,117.75,1
200.00,117.81,1
74.00,118.34,1
59.00,118.20,1
55.00,116.22,1
70.00,112.82,1
278.00,110.41,1
122.00,111.12,1
78.00,112.94,1
36.00,113.18,1
116.00,111.81,1
115.00,110.23,1
65.00,108.79,1
65.00,106.66,1
108.00,104.01,1
45.00,101.24,1
127.00,98.48,1
43.00,95.95,1
59.00,93.09,1
100.00,90.00,1
163.00,88.17,1
114.00,88.34,1
46.00,89.17,1
50.00,88.96,1
96.00,87.86,1
160.00,87.43,1
42.00,88.00,1
105.00,88.41,1
112.00,88.81,1
81.00,89.56,1
71.00,90.03,1
46.00,89.62,1
156.00,88.98,1
208.00,90.25,1
140.00,94.16,1
67.00,98.61,1
77.00,101.63,1
97.00,103.17,1
59.00,103.66,1
75.00,103.00,1
154.00,102.09,1
64.00,101.72,1
147.00,101.62,1
70.00,101.72,1
53.00,101.25,1
57.00,99.46,1
84.00,96.87,1
74.00,94.16,1
57.00,91.39,1
112.00,88.73,1
115.00,87.06,1
56.00,86.20,1
234.00,86.51,1
127.00,89.28,1
50.00,92.88,1
110.00,95.33,1
156.00,97.55,1
46.00,99.89,1
60.00,100.92,1
108.00,100.60,1
62.00,99.83,1
74.00,98.47,1
91.00,96.66,1
36.00,94.51,1
72.00,91.69,1
230.00,89.90,1
225.00,91.88,1
68.00,96.53,1
72.00,100.45,1
127.00,102.91,1
93.00,104.83,1
143.00,106.59,1
120.00,108.54,1
126.00,110.64,1
105.00,112.52,1
88.00,113.72,1
53.00,113.64,1
92.00,112.18,1
159.00,110.64,1
163.00,110.56,1
170.00,112.27,1
89.00,114.76,1
36.00,116.04,1
38.00,114.83,1
47.00,111.41,1
295.00,108.65,1
53.00,108.65,1
76.00,109.01,1
51.00,107.79,1
42.00,105.11,1
65.00,101.25,1
89.00,97.12,1
156.00,94.08,1
43.00,92.33,1
87.00,90.67,1
117.00,89.17,1
176.00,89.19,1
114.00,91.08,1
212.00,94.62,1
112.00,99.57,1
181.00,105.14,1
90.00,110.57,1
100.00,114.85,1
84.00,117.39,1
59.00,118.13,1
44.00,116.80,1
144.00,114.33,1
433.00,115.01,1
175.00,121.50,1
71.00,129.48,1
37.00,134.18,1
58.00,134.96,1
187.00,133.91,1
36.00,132.55,1
126.00,130.30,1
100.00,127.49,1
52.00,124.26,1
41.00,119.71,1
49.00,113.79,1
91.00,107.44,1
78.00,101.62,1
38.00,96.18,1
82.00,90.82,1
41.00,85.75,1
70.00,80.99,1
57.00,76.66,1
55.00,72.81,1
45.00,69.23,1
124.00,66.44,1
104.00,65.40,1
88.00,65.95,1
103.00,67.36,1
124.00,69.65,1
72.00,72.61,1
77.00,75.30,1
70.00,77.30,1
242.00,80.06,1
105.00,84.99,1
51.00,90.10,1
178.00,94.18,1
104.00,98.39,1
142.00,102.72,1
180.00,107.31,1
50.00,111.82,1
64.00,114.39,1
73.00,114.63,1
46.00,113.11,1
72.00,110.17,1
198.00,107.49,1
44.00,106.14,1
109.00,104.87,1
104.00,103.47,1
128.00,102.66,1
107.00,102.51,1
108.00,102.72,1
80.00,102.82,1
105.00,102.58,1
103.00,102.25,1
64.00,101.72,1
103.00,100.72,1
82.00,99.53,1
101.00,98.38,1
68.00,97.16,1
79.00,95.62,1
99.00,93.98,1
120.00,92.91,1
85.00,92.54,1
114.00,92.53,1
102.00,92.90,1
44.00,93.10,1
80.00,92.41,1
88.00,91.23,1
70.00,90.02,1
82.00,88.68,1
98.00,87.47,1
104.00,86.82,1
70.00,86.57,1
66.00,86.07,1
58.00,85.00,1
73.00,83.48,1
39.00,81.57,1
271.00,80.91,1
61.00,83.07,1
40.00,85.54,1
54.00,86.19,1
148.00,86.27,1
114.00,87.30,1
136.00,89.45,1
191.00,92.90,1
183.00,98.23,1
91.00,104.40,1
35.00,108.93,1
60.00,110.59,1
108.00,110.38,1
50.00,109.24,1
42.00,106.82,1
104.00,103.42,1
60.00,99.98,1
40.00,96.23,1
66.00,91.90,1
112.00,87.93,1
48.00,84.79,1
36.00,81.62,1
64.00,78.03,1
97.00,74.88,1
134.00,73.26,1
68.00,73.21,1
178.00,74.45,1
74.00,77.06,1
76.00,79.82,1
94.00,81.93,1
144.00,84.20,1
102.00,87.13,1
76.00,89.99,1
81.00,91.95,1
39.00,92.69,1
54.00,91.93,1
99.00,90.34,1
91.00,88.98,1
67.00,87.88,1
76.00,86.63,1
40.00,84.95,1
108.00,83.04,1
63.00,81.49,1
45.00,79.91,1
81.00,78.02,1
99.00,76.52,1
81.00,75.84,1
101.00,75.80,1
99.00,76.43,1
35.00,77.14,1
110.00,77.44,1
69.00,77.79,1
68.00,78.09,1
153.00,78.70,1
91.00,80.40,1
102.00,82.66,1
114.00,85.02,1
54.00,87.18,1
110.00,88.68,1
152.00,90.41,1
78.00,92.81,1
128.00,95.17,1
110.00,97.49,1
84.00,99.60,1
87.00,100.92,1
52.00,101.15,1
36.00,99.83,1
94.00,97.33,1
104.00,94.93,1
72.00,93.05,1
37.00,90.90,1
40.00,87.80,1
57.00,83.97,1
36.00,79.85,1
102.00,75.99,1
92.00,73.29,1
56.00,71.64,1
35.00,69.99,1
108.00,68.36,1
95.00,67.71,1
131.00,68.54,1
106.00,70.74,1
102.00,73.76,1
80.00,76.85,1
62.00,79.32,1
67.00,80.82,1
91.00,81.65,1
60.00,82.13,1
73.00,82.13,1
39.00,81.42,1
59.00,79.92,1
42.00,77.78,1
80.00,75.42,1
60.00,73.29,1
58.00,71.39,1
87.00,69.76,1
78.00,68.77,1
52.00,68.19,1
103.00,67.85,1
67.00,68.03,1
87.00,68.60,1
75.00,69.38,1
46.00,70.01,1
39.00,69.88,1
63.00,69.02,1
43.00,67.79,1
48.00,66.25,1
67.00,64.58,1
41.00,63.03,1
156.00,62.28,1
95.00,63.36,1
47.00,65.34,1
38.00,66.55,1
58.00,66.77,1
97.00,66.79,1
94.00,67.47,1
50.00,68.52,1
67.00,69.22,1
110.00,69.89,1
113.00,71.39,1
72.00,73.56,1
59.00,75.38,1
74.00,76.45,1
96.00,77.25,1
146.00,78.71,1
40.00,80.77,1
60.00,82.02,1
57.00,82.04,1
38.00,81.10,1
49.00,79.20,1
36.00,76.55,1
44.00,73.36,1
75.00,70.16,1
64.00,67.54,1
45.00,65.37,1
98.00,63.64,1
74.00,62.83,1
76.00,62.80,1
42.00,62.92,1
115.00,63.20,1
123.00,64.60,1
111.00,67.44,1
128.00,71.27,1
122.00,75.87,1
116.00,80.89,1
40.00,85.29,1
85.00,88.14,1
102.00,89.98,1
85.00,91.48,1
98.00,92.66,1
40.00,93.14,1
64.00,92.42,1
40.00,90.53,1
50.00,87.70,1
49.00,84.20,1
98.00,80.79,1
44.00,77.92,1
53.00,75.13,1
66.00,72.31,1
70.00,69.89,1
48.00,67.84,1
115.00,66.36,1
35.00,65.63,1
48.00,64.83,1
61.00,63.66,1
80.00,62.73,1
92.00,62.55,1
44.00,62.90,1
106.00,63.44,1
84.00,64.58,1
43.00,65.93,1
62.00,66.70,1
80.00,67.11,1
75.00,67.66,1
106.00,68.62,1
76.00,70.10,1
46.00,71.42,1
37.00,71.74,1
79.00,71.25,1
36.00,70.43,1
78.00,69.37,1
47.00,68.25,1
55.00,67.01,1
47.00,65.54,1
52.00,63.92,1
51.00,62.25,1
68.00,60.75,1
67.00,59.70,1
101.00,59.45,1
77.00,60.14,1
53.00,61.22,1
61.00,62.04,1
66.00,62.59,1
91.00,63.29,1
60.00,64.28,1
62.00,65.17,1
83.00,65.89,1
66.00,66.69,1
80.00,67.53,1
136.00,68.93,1
65.00,71.17,1
81.00,73.39,1
53.00,74.97,1
67.00,75.78,1
45.00,75.80,1
74.00,75.22,1
59.00,74.37,1
80.00,73.51,1
78.00,72.88,1
85.00,72.64,1
125.00,73.16,1
38.00,74.21,1
55.00,74.67,1
44.00,74.14,1
43.00,72.80,1
41.00,70.80,1
48.00,68.36,1
72.00,65.96,1
48.00,63.95,1
84.00,62.39,1
138.00,62.07,1
54.00,63.20,1
52.00,64.44,1
72.00,65.15,1
63.00,65.67,1
100.00,66.36,1
135.00,67.97,1
50.00,70.44,1
38.00,72.24,1
97.00,73.06,1
74.00,73.80,1
83.00,74.63,1
117.00,75.74,1
60.00,77.21,1
127.00,78.78,1
58.00,80.44,1
38.00,81.36,1
61.00,80.98,1
58.00,79.82,1
121.00,78.75,1
66.00,78.37,1
82.00,78.26,1
38.00,77.80,1
106.00,77.06,1
80.00,76.68,1
107.00,76.94,1
89.00,77.76,1
53.00,78.61,1
56.00,78.73,1
151.00,78.83,1
106.00,80.14,1
62.00,82.01,1
132.00,83.70,1
58.00,85.40,1
126.00,86.96,1
172.00,89.26,1
98.00,92.75,1
90.00,96.13,1
42.00,98.16,1
127.00,98.94,1
51.00,99.12,1
35.00,98.17,1
76.00,95.83,1
62.00,92.93,1
38.00,89.62,1
92.00,86.04,1
41.00,82.65,1
47.00,79.16,1
64.00,75.54,1
38.00,72.04,1
61.00,68.66,1
65.00,65.68,1
37.00,63.13,1
143.00,61.44,1
102.00,61.63,1
56.00,63.06,1
103.00,64.69,1
118.00,66.93,1
62.00,69.74,1
82.00,72.25,1
104.00,74.50,1
41.00,76.48,1
145.00,78.19,1
67.00,80.20,1
185.00,82.91,1
157.00,87.17,1
76.00,92.29,1
96.00,96.47,1
35.00,98.95,1
52.00,99.36,1
65.00,98.08,1
74.00,95.96,1
36.00,93.23,1
86.00,90.00,1
52.00,86.70,1
65.00,83.44,1
55.00,80.16,1
38.00,76.78,1
57.00,73.22,1
116.00,70.31,1
62.00,68.68,1
63.00,67.68,1
61.00,66.73,1
90.00,66.09,1
76.00,66.03,1
37.00,66.11,1
40.00,65.56,1
65.00,64.48,1
63.00,63.45,1
73.00,62.75,1
117.00,62.84,1
86.00,64.10,1
92.00,66.09,1
136.00,68.78,1
36.00,71.86,1
66.00,74.09,1
96.00,75.52,1
153.00,77.51,1
78.00,80.44,1
136.00,83.68,1
121.00,87.28,1
82.00,90.93,1
115.00,94.01,1
64.00,96.34,1
115.00,97.88,1
118.00,99.22,1
83.00,100.55,1
120.00,101.57,1
85.00,102.37,1
58.00,102.46,1
53.00,101.23,1
127.00,99.35,1
141.00,98.34,1
52.00,98.14,1
131.00,97.85,1
127.00,98.05,1
37.00,98.44,1
123.00,98.17,1
170.00,98.46,1
37.00,99.57,1
127.00,100.17,1
83.00,100.42,1
37.00,100.00,1
58.00,98.15,1
106.00,95.64,1
63.00,93.32,1
110.00,91.30,1
57.00,89.56,1
232.00,89.04,1
60.00,90.54,1
53.00,92.04,1
75.00,92.13,1
62.00,91.34,1
121.00,90.37,1
150.00,90.39,1
103.00,91.76,1
52.00,93.13,1
117.00,93.78,1
80.00,94.19,1
109.00,94.58,1
131.00,95.30,1
47.00,96.15,1
105.00,96.34,1
89.00,96.17,1
129.00,96.26,1
137.00,97.14,1
127.00,98.99,1
48.00,100.76,1
45.00,100.97,1
52.00,99.35,1
38.00,96.39,1
199.00,93.66,1
127.00,93.18,1
217.00,95.29,1
40.00,98.72,1
53.00,100.95,1
60.00,101.01,1
106.00,100.02,1
47.00,98.59,1
57.00,96.36,1
62.00,93.32,1
80.00,90.06,1
148.00,87.67,1
53.00,86.50,1
101.00,85.69,1
117.00,85.32,1
124.00,86.01,1
70.00,87.29,1
42.00,87.90,1
109.00,87.61,1
71.00,87.24,1
131.00,87.23,1
115.00,88.04,1
52.00,89.16,1
68.00,89.44,1
111.00,89.16,1
122.00,89.40,1
122.00,90.59,1
131.00,92.61,1
209.00,96.01,1
84.00,100.64,1
43.00,104.31,1
80.00,105.70,1
42.00,105.27,1
36.00,103.10,1
37.00,99.28,1
62.00,94.49,1
37.00,89.36,1
162.00,84.96,1
62.00,82.33,1
89.00,80.71,1
46.00,79.18,1
68.00,77.44,1
85.00,75.77,1
105.00,74.84,1
100.00,74.93,1
76.00,75.67,1
106.00,76.69,1
114.00,78.27,1
107.00,80.52,1
84.00,82.97,1
91.00,85.12,1
47.00,86.52,1
79.00,86.91,1
55.00,86.47,1
69.00,85.41,1
72.00,83.97,1
98.00,82.67,1
44.00,81.53,1
52.00,79.93,1
57.00,77.76,1
91.00,75.66,1
145.00,74.75,1
48.00,75.13,1
46.00,75.30,1
85.00,74.80,1
78.00,74.38,1
64.00,74.12,1
101.00,74.01,1
70.00,74.26,1
57.00,74.45,1
127.00,74.71,1
76.00,75.64,1
129.00,77.22,1
147.00,79.85,1
109.00,83.61,1
89.00,87.46,1
73.00,90.47,1
190.00,93.28,1
46.00,96.46,1
156.00,99.31,1
116.00,102.12,1
116.00,105.04,1
81.00,107.33,1
102.00,108.66,1
60.00,108.93,1
50.00,107.78,1
36.00,104.94,1
100.00,101.15,1
48.00,97.27,1
68.00,93.28,1
70.00,89.26,1
115.00,85.93,1
36.00,83.33,1
158.00,81.46,1
62.00,80.77,1
57.00,80.37,1
68.00,79.43,1
88.00,78.41,1
127.00,78.11,1
134.00,79.25,1
66.00,81.30,1
111.00,83.28,1
104.00,85.27,1
155.00,87.89,1
98.00,91.21,1
38.00,93.92,1
40.00,94.65,1
115.00,94.00,1
38.00,92.95,1
90.00,91.40,1
232.00,90.93,1
38.00,92.46,1
73.00,93.70,1
66.00,93.60,1
51.00,92.54,1
47.00,90.43,1
66.00,87.58,1
64.00,84.52,1
38.00,81.32,1
47.00,77.73,1
89.00,74.26,1
128.00,72.09,1
66.00,71.45,1
80.00,71.41,1
71.00,71.47,1
107.00,71.88,1
52.00,72.60,1
86.00,73.21,1
43.00,73.45,1
61.00,73.12,1
62.00,72.33,1
60.00,71.37,1
49.00,70.18,1
71.00,68.85,1
49.00,67.55,1
102.00,66.56,1
101.00,66.55,1
52.00,67.28,1
69.00,67.88,1
59.00,68.15,1
49.00,68.05,1
135.00,68.14,1
37.00,68.90,1
35.00,69.23,1
93.00,68.84,1
191.00,69.69,1
39.00,72.29,1
50.00,74.51,1
56.00,75.33,1
72.00,75.40,1
148.00,75.82,1
59.00,77.18,1
82.00,78.53,1
77.00,79.44,1
46.00,79.84,1
76.00,79.52,1
89.00,79.02,1
135.00,79.25,1
67.00,80.32,1
161.00,82.03,1
67.00,84.39,1
62.00,86.35,1
60.00,87.05,1
58.00,86.69,1
63.00,85.52,1
130.00,84.40,1
127.00,84.48,1
79.00,85.58,1
88.00,86.67,1
80.00,87.40,1
68.00,87.68,1
88.00,87.50,1
73.00,87.09,1
43.00,86.19,1
110.00,84.87,1
65.00,83.78,1
85.00,82.87,1
86.00,82.08,1
53.00,81.34,1
49.00,80.06,1
93.00,78.46,1
91.00,77.34,1
44.00,76.57,1
70.00,75.51,1
115.00,74.69,1
62.00,74.58,1
48.00,74.41,1
54.00,73.55,1
73.00,72.36,1
77.00,71.35,1
39.00,70.42,1
81.00,69.34,1
36.00,68.18,1
80.00,66.97,1
41.00,65.79,1
71.00,64.65,1
56.00,63.61,1
99.00,63.06,1
52.00,63.09,1
61.00,63.21,1
36.00,62.95,1
51.00,62.18,1
58.00,61.16,1
69.00,60.31,1
92.00,60.06,1
112.00,60.91,1
129.00,63.24,1
58.00,66.46,1
94.00,69.52,1
99.00,72.40,1
84.00,75.31,1
68.00,77.79,1
74.00,79.54,1
86.00,80.73,1
104.00,81.86,1
58.00,82.92,1
64.00,83.34,1
109.00,83.33,1
38.00,83.22,1
65.00,82.44,1
42.00,80.85,1
71.00,78.79,1
95.00,76.92,1
35.00,75.41,1
83.00,73.81,1
52.00,72.25,1
68.00,70.78,1
62.00,69.39,1
39.00,67.95,1
36.00,66.06,1
72.00,63.95,1
66.00,62.26,1
35.00,60.90,1
88.00,59.70,1
89.00,59.30,1
109.00,60.14,1
70.00,61.92,1
44.00,63.64,1
126.00,65.20,1
122.00,67.69,1
61.00,70.91,1
92.00,73.79,1
95.00,76.36,1
62.00,78.62,1
62.00,80.07,1
66.00,80.58,1
49.00,80.32,1
46.00,79.20,1
36.00,77.20,1
59.00,74.58,1
81.00,72.07,1
48.00,70.01,1
57.00,68.05,1
103.00,66.51,1
89.00,66.06,1
57.00,66.32,1
48.00,66.41,1
138.00,66.68,1
89.00,68.12,1
95.00,70.37,1
102.00,72.90,1
81.00,75.56,1
62.00,77.78,1
66.00,79.14,1
96.00,79.94,1
54.00,80.49,1
56.00,80.39,1
42.00,79.37,1
78.00,77.76,1
69.00,76.17,1
36.00,74.53,1
104.00,72.84,1
67.00,71.72,1
103.00,71.32,1
124.00,71.95,1
48.00,73.34,1
77.00,74.44,1
75.00,75.09,1
59.00,75.47,1
44.00,75.22,1
61.00,74.25,1
60.00,72.92,1
69.00,71.57,1
63.00,70.34,1
94.00,69.46,1
66.00,69.12,1
77.00,69.08,1
93.00,69.35,1
107.00,70.33,1
151.00,72.54,1
118.00,76.20,1
81.00,80.34,1
138.00,84.29,1
142.00,88.64,1
137.00,93.63,1
188.00,99.34,1
81.00,105.32,1
59.00,109.75,1
66.00,111.66,1
58.00,111.45,1
121.00,110.10,1
63.00,108.43,1
59.00,106.10,1
42.00,102.65,1
161.00,99.14,1
53.00,96.65,1
223.00,95.61,1
40.00,96.12,1
119.00,96.82,1
96.00,97.25,1
48.00,97.32,1
75.00,96.35,1
96.00,94.86,1
132.00,93.90,1
98.00,93.85,1
76.00,94.05,1
88.00,93.88,1
124.00,93.76,1
72.00,93.95,1
38.00,93.50,1
126.00,92.34,1
104.00,91.66,1
40.00,91.21,1
78.00,90.01,1
69.00,88.31,1
47.00,86.27,1
100.00,84.03,1
38.00,81.91,1
186.00,80.58,1
131.00,81.39,1
43.00,83.39,1
50.00,84.36,1
48.00,83.89,1
88.00,82.69,1
58.00,81.38,1
84.00,80.07,1
80.00,78.95,1
44.00,77.88,1
92.00,76.63,1
38.00,75.35,1
134.00,74.39,1
48.00,74.12,1
63.00,73.89,1
80.00,73.36,1
78.00,73.03,1
106.00,73.18,1
74.00,73.90,1
92.00,74.86,1
140.00,76.41,1
59.00,78.63,1
62.00,80.36,1
90.00,81.27,1
61.00,81.78,1
162.00,82.57,1
111.00,84.54,1
125.00,87.45,1
68.00,90.32,1
60.00,92.17,1
72.00,92.67,1
119.00,92.66,1
64.00,92.68,1
166.00,93.05,1
89.00,94.26,1
62.00,95.42,1
39.00,95.22,1
42.00,93.43,1
138.00,91.12,1
71.00,89.58,1
119.00,88.74,1
172.00,89.18,1
64.00,90.93,1
91.00,92.49,1
242.00,94.65,1
286.00,100.32,1
42.00,108.38,1
183.00,115.49,1
115.00,121.40,1
44.00,125.65,1
56.00,126.84,1
37.00,125.15,1
52.00,121.22,1
66.00,115.91,1
47.00,109.96,1
145.00,104.32,1
42.00,99.72,1
84.00,95.52,1
358.00,93.85,1
44.00,96.46,1
38.00,99.24,1
69.00,99.64,1
51.00,98.51,1
46.00,96.17,1
53.00,92.83,1
60.00,88.97,1
121.00,85.52,1
52.00,83.00,1
73.00,80.81,1
195.00,79.73,1
95.00,80.90,1
73.00,82.90,1
71.00,84.26,1
103.00,85.14,1
150.00,86.52,1
63.00,88.57,1
103.00,90.33,1
52.00,91.33,1
66.00,91.33,1
202.00,91.50,1
183.00,93.99,1
86.00,98.18,1
134.00,102.16,1
51.00,105.15,1
66.00,106.44,1
52.00,105.83,1
127.00,104.31,1
55.00,102.69,1
47.00,100.41,1
145.00,97.78,1
46.00,95.72,1
33.00,93.21,1
41.00,89.47,1
99.00,85.44,1
221.00,83.35,1
128.00,84.54,1
62.00,87.13,1
70.00,88.87,1
191.00,90.51,1
40.00,92.82,1
162.00,95.09,1
149.00,97.91,1
61.00,101.14,1
63.00,103.01,1
45.00,102.94,1
87.00,101.44,1
47.00,99.15,1
39.00,95.94,1
36.00,91.66,1
41.00,86.63,1
35.00,81.22,1
107.00,76.22,1
80.00,72.63,1
44.00,70.06,1
93.00,67.96,1
36.00,66.31,1
88.00,64.96,1
139.00,64.68,1
42.00,65.74,1
144.00,67.40,1
63.00,69.69,1
36.00,71.66,1
60.00,72.39,1
71.00,72.42,1
76.00,72.35,1
135.00,72.86,1
113.00,74.64,1
70.00,77.09,1
53.00,78.95,1
94.00,79.97,1
77.00,80.74,1
117.00,81.67,1
78.00,82.89,1
59.00,83.83,1
87.00,84.10,1
83.00,84.14,1
65.00,84.01,1
49.00,83.29,1
53.00,81.77,1
221.00,81.02,1
36.00,82.17,1
38.00,83.07,1
47.00,82.31,1
64.00,80.61,1
235.00,80.04,1
93.00,82.15,1
53.00,84.98,1
115.00,86.92,1
100.00,88.68,1
107.00,90.58,1
126.00,92.67,1
56.00,94.62,1
78.00,95.58,1
87.00,95.61,1
72.00,95.15,1
60.00,94.07,1
36.00,92.02,1
66.00,89.05,1
131.00,86.33,1
180.00,85.61,1
110.00,87.22,1
98.00,89.68,1
84.00,91.80,1
168.00,93.97,1
43.00,96.34,1
41.00,97.40,1
57.00,96.46,1
125.00,94.86,1
187.00,94.61,1
95.00,96.21,1
81.00,98.03,1
65.00,98.83,1
87.00,98.62,1
37.00,97.48,1
153.00,95.98,1
298.00,97.00,1
132.00,101.82,1
141.00,107.93,1
119.00,113.41,1
38.00,117.28,1
85.00,118.63,1
105.00,118.32,1
106.00,117.48,1
101.00,116.41,1
78.00,114.93,1
49.00,112.52,1
44.00,108.78,1
39.00,103.78,1
73.00,98.16,1
135.00,93.28,1
73.00,89.94,1
135.00,87.87,1
35.00,86.52,1
52.00,84.76,1
120.00,82.75,1
93.00,81.67,1
132.00,81.77,1
119.00,83.09,1
41.00,84.75,1
121.00,85.87,1
180.00,87.72,1
80.00,90.86,1
330.00,95.80,1
130.00,103.60,1
180.00,112.47,1
93.00,120.31,1
53.00,125.75,1
141.00,128.52,1
108.00,130.04,1
42.00,130.19,1
120.00,128.56,1
116.00,126.35,1
50.00,123.82,1
127.00,120.62,1
37.00,117.01,1
66.00,112.61,1
110.00,107.85,1
40.00,103.36,1
259.00,100.24,1
98.00,99.98,1
40.00,100.59,1
69.00,99.78,1
345.00,100.18,1
62.00,104.01,1
100.00,108.17,1
311.00,112.50,1
54.00,118.51,1
257.00,124.75,1
180.00,131.55,1
45.00,137.85,1
373.00,143.39,1
681.00,155.03,1
42.00,173.50,1
84.00,188.81,1
66.00,196.48,1
240.00,199.58,1
132.00,200.93,1
182.00,200.97,1
162.00,199.80,1
59.00,196.94,1
52.00,190.96,1
74.00,182.04,1
292.00,173.29,1
222.00,168.19,1
171.00,166.24,1
61.00,164.43,1
76.00,160.65,1
48.00,154.63,1
383.00,149.53,1
327.00,150.17,1
106.00,155.17,1
175.00,159.74,1
288.00,164.09,1
191.00,169.76,1
310.00,176.57,1
118.00,183.60,1
283.00,189.73,1
203.00,195.44,1
703.00,204.93,1
655.00,224.20,1
153.00,249.41,1
183.00,269.75,1
61.00,281.07,1
49.00,283.26,1
106.00,277.66,1
68.00,266.96,1
205.00,253.67,1
223.00,240.97,1
162.00,230.07,1
298.00,221.17,1
50.00,213.77,1
270.00,206.60,1
475.00,203.13,1
46.00,204.26,1
245.00,205.08,1
327.00,206.05,1
78.00,208.07,1
190.00,208.26,1
92.00,206.07,1
116.00,201.64,1
115.00,195.19,1
158.00,188.00,1
74.00,180.49,1
59.00,171.80,1
92.00,161.85,1
61.00,151.44,1
86.00,140.98,1
320.00,132.94,1
91.00,129.20,1
61.00,126.74,1
70.00,123.02,1
58.00,118.25,1
42.00,112.60,1
57.00,106.19,1
169.00,100.50,1
340.00,98.95,1
172.00,102.99,1
113.00,109.24,1
271.00,115.91,1
169.00,123.98,1
196.00,132.66,1
95.00,140.30,1
331.00,147.39,1
403.00,157.56,1
148.00,170.70,1
111.00,181.74,1
176.00,188.59,1
152.00,192.66,1
132.00,194.43,1
60.00,193.23,1
121.00,189.02,1
74.00,182.66,1
108.00,174.90,1
304.00,168.13,1
205.00,165.05,1
288.00,165.53,1
59.00,167.38,1
154.00,167.87,1
120.00,166.72,1
246.00,165.62,1
127.00,165.41,1
52.00,164.34,1
513.00,164.26,1
81.00,168.36,1
132.00,172.58,1
108.00,173.80,1
69.00,172.42,1
306.00,170.23,1
243.00,170.59,1
68.00,172.33,1
40.00,171.39,1
99.00,167.02,1
360.00,163.13,1
304.00,164.10,1
135.00,168.55,1
54.00,171.55,1
171.00,171.56,1
342.00,171.99,1
152.00,174.99,1
234.00,178.75,1
547.00,185.35,1
70.00,195.86,1
123.00,204.07,1
99.00,206.98,1
129.00,206.01,1
112.00,202.33,1
207.00,197.46,1
154.00,192.85,1
191.00,188.80,1
159.00,185.23,1
300.00,183.09,1
135.00,182.81,1
37.00,181.57,1
148.00,177.58,1
41.00,171.72,1
160.00,164.81,1
96.00,157.89,1
398.00,153.63,1
98.00,153.50,1
308.00,155.78,1
756.00,164.66,1
186.00,182.57,1
54.00,199.93,1
181.00,210.35,1
65.00,215.31,1
140.00,215.64,1
57.00,212.02,1
113.00,205.29,1
47.00,196.10,1
311.00,186.90,1
117.00,180.22,1
61.00,174.19,1
111.00,166.72,1
42.00,158.20,1
93.00,148.86,1
80.00,139.39,1
278.00,131.98,1
58.00,127.71,1
148.00,124.72,1
216.00,123.05,1
62.00,123.02,1
163.00,123.09,1
252.00,124.36,1
118.00,127.73,1
118.00,131.08,1
186.00,133.75,1
112.00,136.34,1
94.00,137.96,1
89.00,137.84,1
96.00,136.22,1
182.00,134.31,1
68.00,132.79,1
64.00,130.39,1
213.00,127.63,1
147.00,126.59,1
95.00,126.59,1
79.00,125.84,1
224.00,125.05,1
67.00,125.22,1
113.00,125.10,1
178.00,124.76,1
116.00,125.22,1
114.00,125.76,1
45.00,125.23,1
126.00,123.41,1
36.00,120.70,1
221.00,118.10,1
176.00,117.66,1
100.00,119.00,1
69.00,119.77,1
125.00,119.38,1
298.00,120.24,1
105.00,123.78,1
355.00,129.51,1
359.00,139.33,1
262.00,153.26,1
826.00,172.95,1
81.00,198.69,1
56.00,220.30,1
115.00,231.95,1
152.00,236.77,1
88.00,236.72,1
165.00,232.90,1
52.00,226.19,1
405.00,219.17,1
68.00,214.28,1
59.00,208.44,1
131.00,199.71,1
174.00,190.55,1
268.00,183.47,1
114.00,178.84,1
57.00,173.96,1
132.00,167.47,1
119.00,160.63,1
198.00,154.82,1
105.00,150.41,1
138.00,146.60,1
178.00,143.47,1
58.00,140.92,1
122.00,137.76,1
72.00,133.87,1
275.00,130.96,1
191.00,131.12,1
114.00,133.31,1
112.00,134.95,1
130.00,135.60,1
102.00,135.52,1
130.00,134.82,1
52.00,133.24,1
77.00,130.21,1
120.00,126.28,1
127.00,122.79,1
58.00,119.65,1
193.00,116.91,1
212.00,116.39,1
54.00,117.70,1
528.00,121.87,1
181.00,131.68,1
60.00,142.64,1
45.00,149.07,1
73.00,150.84,1
52.00,149.22,1
269.00,146.71,1
224.00,146.70,1
60.00,148.27,1
77.00,148.01,1
131.00,145.78,1
285.00,144.42,1
150.00,145.67,1
120.00,147.64,1
73.00,148.08,1
151.00,146.95,1
68.00,144.88,1
226.00,142.77,1
176.00,142.19,1
72.00,142.43,1
52.00,140.97,1
148.00,137.87,1
89.00,134.56,1
88.00,131.01,1
172.00,127.60,1
293.00,126.79,1
150.00,129.51,1
126.00,133.23,1
62.00,135.48,1
59.00,135.25,1
182.00,133.59,1
46.00,131.79,1
67.00,128.86,1
230.00,125.76,1
68.00,124.17,1
62.00,122.39,1
277.00,120.87,1
51.00,121.24,1
69.00,121.21,1
131.00,119.82,1
50.00,117.95,1
54.00,114.99,1
86.00,110.94,1
45.00,106.43,1
52.00,101.36,1
85.00,96.09,1
195.00,92.35,1
147.00,91.61,1
63.00,92.60,1
160.00,93.87,1
72.00,95.50,1
86.00,96.80,1
83.00,97.29,1
161.00,97.86,1
129.00,99.48,1
76.00,101.52,1
175.00,103.48,1
74.00,105.69,1
49.00,106.94,1
60.00,106.26,1
62.00,104.15,1
60.00,101.11,1
187.00,98.51,1
102.00,97.71,1
88.00,97.84,1
185.00,98.54,1
92.00,100.35,1
144.00,102.66,1
102.00,105.01,1
110.00,107.11,1
97.00,108.63,1
77.00,109.33,1
159.00,109.64,1
170.00,110.92,1
89.00,113.10,1
94.00,114.67,1
149.00,115.59,1
133.00,116.81,1
58.00,117.78,1
112.00,117.61,1
194.00,117.52,1
99.00,118.52,1
100.00,119.43,1
71.00,119.23,1
43.00,117.47,1
63.00,114.07,1
78.00,109.75,1
82.00,105.31,1
71.00,101.04,1
47.00,96.70,1
55.00,92.00,1
62.00,87.20,1
166.00,83.52,1
180.00,82.74,1
156.00,85.05,1
126.00,89.11,1
141.00,93.80,1
39.00,97.96,1
262.00,101.86,1
74.00,106.75,1
75.00,110.94,1
74.00,112.92,1
64.00,113.03,1
98.00,111.85,1
149.00,110.64,1
38.00,109.65,1
43.00,107.48,1
69.00,103.88,1
40.00,99.52,1
49.00,94.54,1
56.00,89.24,1
57.00,84.06,1
80.00,79.40,1
90.00,75.78,1
64.00,73.21,1
125.00,71.67,1
60.00,71.23,1
120.00,71.56,1
85.00,72.63,1
40.00,73.77,1
39.00,73.89,1
51.00,72.93,1
130.00,72.03,1
283.00,73.87,1
173.00,80.01,1
39.00,87.57,1
166.00,93.86,1
128.00,99.67,1
302.00,106.80,1
55.00,115.18,1
166.00,122.51,1
41.00,127.56,1
214.00,130.99,1
48.00,133.54,1
282.00,135.95,1
195.00,139.97,1
160.00,145.29,1
143.00,149.96,1
124.00,153.26,1
61.00,154.43,1
206.00,153.95,1
63.00,152.92,1
41.00,150.15,1
180.00,145.77,1
160.00,142.25,1
170.00,140.42,1
290.00,140.94,1
70.00,143.48,1
101.00,145.05,1
153.00,144.96,1
73.00,144.06,1
124.00,142.12,1
101.00,139.43,1
75.00,136.09,1
130.00,132.21,1
61.00,128.16,1
117.00,123.89,1
181.00,120.48,1
46.00,118.25,1
104.00,115.76,1
107.00,113.02,1
79.00,110.48,1
58.00,107.56,1
77.00,104.04,1
44.00,100.04,1
127.00,96.11,1
76.00,93.04,1
42.00,90.28,1
204.00,88.20,1
174.00,88.88,1
51.00,91.47,1
139.00,93.84,1
69.00,95.83,1
43.00,96.80,1
76.00,96.24,1
44.00,94.60,1
192.00,93.17,1
264.00,94.74,1
130.00,99.83,1
91.00,105.48,1
90.00,109.61,1
122.00,112.36,1
148.00,114.72,1
78.00,116.82,1
218.00,118.87,1
67.00,121.30,1
157.00,123.34,1
68.00,124.52,1
124.00,124.74,1
80.00,124.04,1
180.00,123.24,1
121.00,123.20,1
37.00,122.89,1
86.00,120.90,1
230.00,119.02,1
127.00,119.24,1
72.00,120.07,1
51.00,119.39,1
77.00,116.97,1
39.00,113.27,1
104.00,108.85,1
38.00,104.24,1
51.00,99.19,1
86.00,93.94,1
64.00,89.22,1
117.00,85.41,1
129.00,83.23,1
155.00,83.23,1
110.00,85.01,1
75.00,87.27,1
84.00,88.95,1
61.00,89.78,1
69.00,89.73,1
59.00,88.84,1
69.00,87.34,1
39.00,85.26,1
45.00,82.45,1
88.00,79.37,1
54.00,76.68,1
36.00,74.02,1
225.00,72.45,1
45.00,73.25,1
56.00,74.50,1
149.00,75.52,1
116.00,77.71,1
67.00,80.50,1
99.00,82.85,1
40.00,84.41,1
237.00,86.24,1
123.00,90.03,1
68.00,94.49,1
68.00,97.46,1
89.00,98.92,1
102.00,99.63,1
123.00,100.32,1
124.00,101.43,1
385.00,105.19,1
68.00,112.56,1
50.00,119.16,1
53.00,122.06,1
91.00,122.24,1
142.00,121.45,1
165.00,121.30,1
72.00,121.67,1
124.00,121.50,1
43.00,120.36,1
136.00,118.37,1
60.00,116.04,1
115.00,113.50,1
61.00,110.71,1
143.00,108.07,1
79.00,106.02,1
81.00,104.10,1
145.00,102.40,1
67.00,101.34,1
84.00,100.19,1
42.00,98.28,1
56.00,95.42,1
196.00,92.98,1
87.00,92.48,1
54.00,92.55,1
128.00,92.22,1
130.00,92.55,1
120.00,93.95,1
173.00,96.40,1
62.00,99.44,1
233.00,102.85,1
211.00,108.17,1
214.00,115.80,1
176.00,124.52,1
230.00,133.63,1
163.00,142.75,1
84.00,150.23,1
156.00,154.97,1
72.00,157.31,1
45.00,156.74,1
62.00,152.94,1
63.00,146.92,1
54.00,139.48,1
245.00,132.65,1
89.00,128.32,1
58.00,124.76,1
56.00,120.08,1
146.00,115.16,1
56.00,110.96,1
89.00,106.96,1
78.00,102.96,1
156.00,99.83,1
92.00,98.14,1
100.00,97.25,1
203.00,97.46,1
39.00,98.90,1
207.00,100.77,1
67.00,103.16,1
193.00,105.98,1
97.00,109.18,1
44.00,111.56,1
164.00,112.57,1
135.00,113.80,1
135.00,115.69,1
47.00,117.04,1
152.00,117.32,1
340.00,119.39,1
155.00,125.20,1
90.00,131.61,1
36.00,135.17,1
53.00,135.18,1
42.00,132.21,1
82.00,127.38,1
67.00,121.75,1
124.00,116.26,1
113.00,111.79,1
88.00,108.32,1
101.00,105.32,1
95.00,102.75,1
189.00,101.36,1
43.00,101.23,1
77.00,100.68,1
90.00,99.31,1
62.00,97.61,1
47.00,95.26,1
68.00,92.16,1
288.00,90.66,1
50.00,92.30,1
129.00,94.77,1
155.00,97.34,1
250.00,101.80,1
89.00,107.98,1
85.00,113.35,1
138.00,116.96,1
114.00,119.76,1
87.00,121.67,1
196.00,123.10,1
128.00,125.14,1
86.00,127.00,1
40.00,127.04,1
226.00,126.09,1
247.00,127.32,1
58.00,130.49,1
74.00,132.20,1
42.00,131.15,1
346.00,130.18,1
77.00,131.84,1
138.00,134.03,1
186.00,135.71,1
131.00,137.81,1
62.00,139.05,1
112.00,138.42,1
70.00,136.31,1
48.00,132.64,1
78.00,127.48,1
41.00,121.37,1
70.00,114.59,1
83.00,107.82,1
42.00,101.42,1
51.00,95.00,1
100.00,89.00,1
112.00,84.50,1
52.00,81.40,1
166.00,79.52,1
76.00,79.28,1
183.00,80.62,1
160.00,84.01,1
52.00,88.41,1
122.00,92.02,1
113.00,95.10,1
155.00,98.46,1
60.00,101.75,1
54.00,103.60,1
107.00,103.85,1
103.00,103.68,1
160.00,104.03,1
138.00,105.51,1
54.00,107.19,1
107.00,107.84,1
109.00,107.88,1
54.00,107.48,1
86.00,106.10,1
64.00,103.94,1
55.00,101.07,1
194.00,98.59,1
181.00,98.63,1
141.00,101.17,1
39.00,103.90,1
82.00,105.05,1
70.00,104.70,1
36.00,103.12,1
89.00,100.40,1
219.00,98.60,1
60.00,98.87,1
82.00,99.29,1
137.00,99.30,1
51.00,99.40,1
186.00,99.70,1
96.00,100.92,1
92.00,102.41,1
95.00,103.25,1
210.00,104.54,1
61.00,106.83,1
194.00,109.39,1
59.00,111.93,1
165.00,114.09,1
113.00,116.11,1
112.00,117.97,1
93.00,119.03,1
93.00,119.13,1
130.00,118.65,1
35.00,117.55,1
35.00,114.77,1
45.00,110.09,1
53.00,104.35,1
72.00,98.38,1
38.00,92.53,1
70.00,86.83,1
127.00,82.14,1
42.00,78.90,1
44.00,75.94,1
66.00,72.79,1
104.00,70.31,1
66.00,68.92,1
132.00,68.63,1
76.00,69.51,1
123.00,71.24,1
177.00,74.34,1
64.00,78.71,1
63.00,82.48,1
123.00,85.20,1
113.00,87.93,1
71.00,90.58,1
73.00,92.30,1
227.00,94.24,1
60.00,97.44,1
60.00,100.01,1
221.00,101.97,1
93.00,105.00,1
98.00,108.00,1
39.00,109.40,1
52.00,108.75,1
80.00,106.49,1
76.00,103.62,1
59.00,100.41,1
122.00,97.26,1
118.00,95.14,1
96.00,94.13,1
201.00,94.47,1
63.00,96.23,1
47.00,97.48,1
111.00,97.41,1
230.00,98.26,1
291.00,102.86,1
92.00,110.41,1
252.00,118.52,1
147.00,126.92,1
69.00,134.19,1
108.00,138.54,1
195.00,141.22,1
79.00,143.36,1
127.00,144.21,1
229.00,144.73,1
54.00,145.63,1
95.00,145.07,1
127.00,142.91,1
147.00,140.65,1
94.00,138.53,1
181.00,136.61,1
160.00,135.73,1
121.00,135.72,1
76.00,135.18,1
228.00,134.44,1
35.00,134.12,1
210.00,133.64,1
149.00,133.85,1
152.00,135.06,1
219.00,137.06,1
185.00,140.48,1
36.00,143.59,1
110.00,144.24,1
206.00,143.77,1
48.00,143.38,1
107.00,141.70,1
201.00,139.57,1
97.00,138.35,1
123.00,137.13,1
256.00,136.62,1
79.00,137.65,1
162.00,138.65,1
70.00,138.72,1
49.00,137.06,1
54.00,133.06,1
182.00,128.42,1
61.00,124.61,1
238.00,122.08,1
50.00,120.98,1
159.00,120.25,1
55.00,119.22,1
152.00,117.97,1
296.00,118.56,1
41.00,121.58,1
187.00,124.53,1
224.00,127.95,1
65.00,132.10,1
38.00,134.13,1
126.00,133.45,1
264.00,133.09,1
66.00,134.37,1
154.00,135.45,1
64.00,135.41,1
55.00,133.67,1
44.00,129.74,1
172.00,125.06,1
42.00,120.92,1
130.00,116.96,1
148.00,113.81,1
118.00,112.15,1
210.00,112.10,1
66.00,113.36,1
142.00,114.57,1
205.00,116.29,1
61.00,118.85,1
67.00,120.10,1
144.00,119.88,1
113.00,119.62,1
119.00,119.51,1
131.00,119.45,1
124.00,119.64,1
43.00,119.31,1
107.00,117.73,1
285.00,117.13,1
123.00,119.43,1
62.00,122.13,1
41.00,122.53,1
118.00,120.95,1
188.00,119.58,1
88.00,119.41,1
59.00,118.82,1
191.00,117.72,1
106.00,117.52,1
64.00,117.34,1
384.00,118.44,1
197.00,123.87,1
62.00,130.88,1
42.00,134.87,1
123.00,135.66,1
128.00,135.20,1
160.00,134.83,1
93.00,134.57,1
44.00,133.12,1
199.00,130.75,1
71.00,128.86,1
76.00,126.61,1
264.00,124.73,1
177.00,125.65,1
159.00,128.63,1
135.00,131.85,1
185.00,135.02,1
207.00,138.85,1
67.00,142.68,1
127.00,144.73,1
76.00,144.77,1
126.00,143.36,1
193.00,141.85,1
193.00,141.84,1
160.00,143.25,1
194.00,145.44,1
40.00,147.16,1
319.00,148.50,1
66.00,150.75,1
129.00,152.27,1
136.00,152.20,1
192.00,152.01,1
100.00,151.97,1
62.00,150.67,1
182.00,148.02,1
65.00,145.17,1
94.00,141.57,1
161.00,137.58,1
127.00,134.49,1
212.00,132.88,1
162.00,133.16,1
47.00,133.80,1
194.00,133.57,1
80.00,133.24,1
62.00,132.01,1
105.00,129.25,1
59.00,125.61,1
80.00,121.17,1
39.00,115.92,1
139.00,110.55,1
64.00,105.97,1
78.00,101.83,1
57.00,97.61,1
40.00,93.09,1
144.00,88.89,1
78.00,86.12,1
482.00,87.72,1
206.00,96.35,1
66.00,107.70,1
35.00,115.82,1
57.00,119.77,1
137.00,121.15,1
160.00,122.25,1
156.00,124.11,1
105.00,126.19,1
48.00,127.01,1
53.00,125.52,1
162.00,122.83,1
209.00,121.57,1
77.00,122.05,1
242.00,123.38,1
94.00,125.73,1
84.00,127.60,1
88.00,127.69,1
194.00,127.28,1
91.00,127.46,1
103.00,127.34,1
41.00,125.83,1
146.00,123.25,1
231.00,121.88,1
171.00,123.26,1
91.00,125.71,1
201.00,128.00,1
251.00,131.65,1
43.00,136.26,1
79.00,138.68,1
211.00,139.33,1
192.00,140.95,1
133.00,143.57,1
168.00,145.99,1
379.00,150.00,1
193.00,157.40,1
82.00,164.82,1
223.00,169.81,1
256.00,174.47,1
44.00,178.69,1
82.00,179.51,1
65.00,176.43,1
103.00,170.83,1
79.00,163.81,1
53.00,155.66,1
104.00,146.68,1
73.00,137.77,1
75.00,129.12,1
208.00,121.84,1
175.00,117.79,1
178.00,116.90,1
86.00,117.45,1
178.00,118.36,1
91.00,119.54,1
146.00,120.68,1
47.00,121.09,1
199.00,121.03,1
369.00,123.71,1
236.00,131.35,1
116.00,140.73,1
388.00,150.29,1
191.00,161.60,1
254.00,173.31,1
100.00,183.08,1
45.00,188.56,1
150.00,189.25,1
167.00,187.77,1
69.00,184.99,1
71.00,179.84,1
619.00,176.85,1
71.00,180.14,1
275.00,185.29,1
193.00,189.81,1
380.00,195.57,1
124.00,202.39,1
152.00,207.33,1
65.00,208.30,1
62.00,204.99,1
53.00,197.66,1
69.00,187.55,1
332.00,177.98,1
46.00,171.26,1
165.00,165.37,1
398.00,161.83,1
98.00,162.51,1
203.00,164.25,1
132.00,165.41,1
44.00,165.03,1
45.00,161.41,1
158.00,155.71,1
144.00,150.40,1
54.00,145.53,1
118.00,140.06,1
278.00,135.97,1
112.00,134.86,1
150.00,134.96,1
130.00,135.05,1
80.00,134.69,1
134.00,133.47,1
225.00,132.86,1
234.00,134.80,1
127.00,138.59,1
95.00,141.71,1
263.00,144.19,1
67.00,146.99,1
107.00,148.42,1
90.00,147.65,1
106.00,145.43,1
95.00,142.19,1
168.00,138.87,1
132.00,136.41,1
405.00,136.97,1
220.00,142.43,1
85.00,149.58,1
303.00,155.80,1
158.00,162.39,1
75.00,167.77,1
49.00,169.26,1
67.00,166.76,1
72.00,161.39,1
78.00,154.38,1
305.00,148.35,1
88.00,145.29,1
190.00,143.71,1
49.00,142.03,1
109.00,139.33,1
367.00,137.92,1
170.00,140.70,1
50.00,144.42,1
106.00,145.57,1
60.00,144.29,1
122.00,141.43,1
48.00,137.49,1
83.00,132.41,1
99.00,126.76,1
61.00,121.11,1
65.00,115.15,1
182.00,109.90,1
58.00,106.31,1
204.00,104.24,1
53.00,103.52,1
77.00,102.74,1
82.00,101.14,1
44.00,98.92,1
113.00,96.31,1
53.00,93.80,1
133.00,91.71,1
87.00,90.44,1
187.00,90.60,1
239.00,93.51,1
158.00,99.44,1
44.00,105.64,1
54.00,109.32,1
230.00,111.66,1
154.00,115.28,1
371.00,121.73,1
167.00,131.41,1
244.00,142.29,1
130.00,152.34,1
101.00,159.94,1
104.00,164.00,1
120.00,165.23,1
53.00,163.97,1
43.00,159.78,1
82.00,153.14,1
62.00,145.24,1
142.00,137.32,1
149.00,130.85,1
182.00,126.76,1
66.00,124.26,1
52.00,121.26,1
73.00,116.98,1
54.00,111.94,1
209.00,107.63,1
73.00,105.32,1
119.00,104.00,1
114.00,103.07,1
49.00,102.23,1
383.00,103.13,1
80.00,107.83,1
171.00,113.77,1
107.00,118.89,1
88.00,122.76,1
133.00,125.06,1
168.00,126.98,1
47.00,128.51,1
124.00,128.60,1
93.00,127.62,1
46.00,125.60,1
299.00,123.91,1
423.00,127.39,1
202.00,136.99,1
149.00,147.88,1
139.00,156.54,1
86.00,162.20,1
173.00,165.10,1
103.00,166.26,1
81.00,165.44,1
67.00,162.07,1
144.00,157.11,1
122.00,152.09,1
76.00,147.06,1
111.00,141.56,1
70.00,135.75,1
52.00,129.35,1
76.00,122.29,1
164.00,115.91,1
262.00,112.75,1
139.00,113.48,1
201.00,116.42,1
244.00,121.30,1
304.00,129.22,1
195.00,139.64,1
150.00,149.93,1
127.00,157.93,1
242.00,164.12,1
176.00,169.91,1
262.00,175.77,1
188.00,181.75,1
65.00,186.10,1
122.00,186.90,1
84.00,184.54,1
283.00,181.39,1
254.00,180.48,1
84.00,181.07,1
343.00,181.84,1
81.00,183.46,1
102.00,183.63,1
252.00,182.11,1
34.00,180.21,1
97.00,176.25,1
55.00,169.69,1
60.00,161.28,1
155.00,152.29,1
248.00,145.54,1
49.00,141.38,1
304.00,138.92,1
57.00,138.37,1
177.00,138.30,1
242.00,139.08,1
133.00,141.66,1
123.00,144.16,1
56.00,144.88,1
45.00,142.97,1
257.00,140.10,1
146.00,139.12,1
240.00,140.30,1
104.00,142.60,1
248.00,145.39,1
140.00,148.83,1
259.00,153.03,1
389.00,159.82,1
203.00,169.92,1
181.00,180.04,1
41.00,186.77,1
95.00,188.64,1
52.00,186.18,1
41.00,180.11,1
220.00,172.46,1
194.00,166.53,1
51.00,161.97,1
186.00,157.14,1
39.00,152.08,1
120.00,146.37,1
63.00,140.02,1
189.00,134.15,1
84.00,129.61,1
60.00,125.32,1
288.00,121.98,1
134.00,121.78,1
71.00,122.80,1
138.00,122.92,1
76.00,122.45,1
191.00,122.02,1
74.00,122.06,1
88.00,121.58,1
217.00,121.06,1
53.00,121.42,1
242.00,122.36,1
70.00,124.06,1
129.00,125.47,1
162.00,126.44,1
99.00,127.57,1
238.00,129.16,1
53.00,131.31,1
76.00,132.07,1
106.00,130.83,1
79.00,128.58,1
42.00,125.12,1
359.00,122.68,1
117.00,124.06,1
198.00,127.57,1
82.00,130.94,1
57.00,132.62,1
94.00,131.89,1
75.00,129.62,1
46.00,125.98,1
123.00,121.45,1
68.00,116.96,1
95.00,112.61,1
123.00,108.73,1
202.00,106.68,1
65.00,106.49,1
147.00,106.80,1
127.00,107.52,1
160.00,109.15,1
74.00,111.09,1
58.00,111.91,1
149.00,111.63,1
96.00,111.47,1
187.00,112.03,1
173.00,114.05,1
249.00,118.30,1
38.00,123.47,1
213.00,127.77,1
46.00,131.02,1
219.00,133.49,1
167.00,136.33,1
127.00,139.61,1
84.00,141.66,1
115.00,141.92,1
61.00,140.52,1
54.00,137.19,1
93.00,132.28,1
363.00,129.16,1
244.00,131.38,1
37.00,136.09,1
36.00,138.07,1
100.00,136.74,1
141.00,134.32,1
42.00,131.54,1
63.00,127.46,1
38.00,121.82,1
91.00,115.40,1
91.00,109.28,1
86.00,103.98,1
109.00,99.59,1
154.00,96.74,1
104.00,95.71,1
121.00,95.76,1
44.00,95.85,1
257.00,96.62,1
98.00,99.41,1
153.00,103.26,1
39.00,106.43,1
146.00,108.43,1
109.00,110.00,1
156.00,111.86,1
71.00,113.64,1
207.00,115.41,1
317.00,119.59,1
154.00,127.12,1
62.00,134.32,1
94.00,138.42,1
46.00,139.37,1
40.00,137.34,1
78.00,132.94,1
95.00,127.58,1
162.00,122.84,1
147.00,119.86,1
170.00,118.84,1
137.00,119.28,1
89.00,120.08,1
158.00,120.63,1
85.00,121.10,1
71.00,120.75,1
123.00,119.37,1
48.00,117.38,1
46.00,114.17,1
65.00,109.64,1
43.00,104.38,1
71.00,98.77,1
206.00,94.47,1
123.00,93.11,1
48.00,93.14,1
64.00,92.42,1
64.00,90.80,1
181.00,89.64,1
60.00,89.83,1
189.00,91.06,1
66.00,93.15,1
150.00,95.56,1
59.00,97.74,1
125.00,99.42,1
67.00,100.51,1
100.00,100.99,1
51.00,100.63,1
43.00,99.04,1
47.00,96.08,1
58.00,92.27,1
165.00,89.04,1
157.00,88.15,1
93.00,89.30,1
184.00,91.57,1
100.00,94.92,1
100.00,98.33,1
168.00,101.54,1
145.00,105.41,1
61.00,109.17,1
44.00,110.98,1
87.00,110.64,1
127.00,109.57,1
74.00,108.56,1
78.00,107.12,1
80.00,105.05,1
44.00,102.33,1
58.00,98.73,1
96.00,94.85,1
62.00,91.34,1
245.00,89.52,1
173.00,91.17,1
85.00,95.01,1
46.00,98.00,1
47.00,98.90,1
82.00,98.14,1
68.00,96.61,1
127.00,95.11,1
176.00,94.94,1
49.00,96.05,1
119.00,96.96,1
64.00,97.35,1
189.00,98.04,1
50.00,99.40,1
140.00,100.69,1
47.00,101.46,1
202.00,102.30,1
84.00,103.97,1
134.00,105.97,1
68.00,107.46,1
54.00,107.71,1
266.00,108.00,1
79.00,110.15,1
56.00,112.11,1
110.00,112.37,1
178.00,112.61,1
112.00,113.86,1
38.00,114.68,1
146.00,114.28,1
193.00,114.53,1
174.00,116.77,1
189.00,120.65,1
42.00,124.51,1
183.00,127.10,1
51.00,128.66,1
36.00,128.21,1
64.00,125.19,1
80.00,120.77,1
93.00,116.04,1
79.00,111.45,1
124.00,107.38,1
40.00,103.77,1
86.00,99.99,1
73.00,96.16,1
109.00,92.89,1
90.00,90.49,1
176.00,89.53,1
256.00,91.60,1
63.00,96.39,1
38.00,100.32,1
104.00,101.99,1
73.00,102.52,1
175.00,103.04,1
42.00,103.88,1
171.00,104.64,1
184.00,106.45,1
90.00,109.51,1
53.00,111.67,1
98.00,112.03,1
62.00,111.17,1
114.00,109.61,1
84.00,107.89,1
48.00,105.74,1
136.00,103.22,1
77.00,101.18,1
130.00,99.75,1
144.00,99.34,1
77.00,99.86,1
109.00,100.31,1
54.00,100.22,1
78.00,99.26,1
49.00,97.39,1
94.00,94.97,1
100.00,92.78,1
81.00,91.14,1
94.00,89.83,1
53.00,88.52,1
80.00,86.91,1
87.00,85.29,1
52.00,83.77,1
55.00,81.88,1
48.00,79.46,1
119.00,77.23,1
109.00,76.25,1
79.00,76.41,1
94.00,77.00,1
63.00,77.63,1
87.00,78.08,1
55.00,78.25,1
41.00,77.75,1
36.00,76.23,1
56.00,73.95,1
204.00,72.70,1
200.00,74.82,1
149.00,80.20,1
99.00,86.59,1
74.00,92.06,1
57.00,95.67,1
138.00,97.94,1
101.00,100.01,1
78.00,101.73,1
120.00,102.79,1
90.00,103.57,1
218.00,105.02,1
151.00,108.26,1
52.00,111.87,1
78.00,113.67,1
125.00,114.03,1
108.00,114.13,1
40.00,113.58,1
64.00,111.49,1
44.00,107.96,1
141.00,104.11,1
50.00,100.86,1
74.00,97.66,1
55.00,94.07,1
43.00,90.11,1
42.00,85.63,1
121.00,81.44,1
124.00,78.95,1
116.00,78.47,1
211.00,80.22,1
51.00,83.78,1
70.00,86.88,1
176.00,89.40,1
151.00,93.08,1
81.00,97.43,1
211.00,101.85,1
113.00,106.93,1
187.00,112.42,1
131.00,117.98,1
77.00,122.66,1
70.00,125.10,1
215.00,126.38,1
44.00,127.68,1
80.00,127.62,1
139.00,126.19,1
94.00,124.66,1
74.00,122.69,1
62.00,119.64,1
224.00,116.86,1
121.00,116.11,1
48.00,115.95,1
197.00,115.41,1
57.00,115.32,1
146.00,115.21,1
53.00,114.64,1
45.00,112.87,1
46.00,109.35,1
88.00,104.92,1
150.00,101.17,1
59.00,98.66,1
121.00,96.71,1
43.00,94.88,1
145.00,93.25,1
62.00,92.21,1
133.00,91.69,1
142.00,92.15,1
136.00,94.03,1
93.00,96.55,1
62.00,98.45,1
40.00,98.75,1
66.00,97.41,1
90.00,95.34,1
101.00,93.48,1
44.00,91.75,1
239.00,90.95,1
133.00,92.75,1
84.00,95.95,1
102.00,98.54,1
116.00,100.58,1
73.00,102.18,1
83.00,102.86,1
84.00,102.65,1
97.00,101.96,1
69.00,100.94,1
50.00,99.18,1
129.00,97.03,1
92.00,95.51,1
212.00,95.52,1
118.00,97.62,1
40.00,100.03,1
256.00,102.30,1
102.00,106.06,1
84.00,109.91,1
116.00,112.39,1
57.00,113.63,1
76.00,113.36,1
127.00,112.17,1
178.00,111.76,1
100.00,112.57,1
37.00,112.89,1
140.00,111.99,1
75.00,110.84,1
41.00,109.03,1
75.00,105.96,1
40.00,102.02,1
88.00,97.67,1
66.00,93.46,1
108.00,89.89,1
45.00,86.90,1
54.00,83.84,1
85.00,80.70,1
76.00,78.13,1
100.00,76.39,1
41.00,75.15,1
71.00,73.82,1
74.00,72.49,1
174.00,72.33,1
175.00,74.75,1
157.00,79.77,1
163.00,86.36,1
113.00,93.44,1
48.00,99.34,1
48.00,102.66,1
72.00,103.56,1
59.00,102.89,1
69.00,101.11,1
48.00,98.43,1
92.00,95.27,1
60.00,92.13,1
72.00,89.05,1
89.00,86.18,1
44.00,83.58,1
138.00,81.44,1
70.00,80.35,1
38.00,79.48,1
113.00,78.33,1
100.00,77.87,1
122.00,78.54,1
44.00,79.66,1
76.00,80.24,1
90.00,80.40,1
91.00,80.72,1
64.00,81.08,1
281.00,82.80,1
227.00,88.46,1
82.00,96.60,1
70.00,103.40,1
146.00,108.17,1
119.00,112.19,1
71.00,115.29,1
82.00,116.65,1
92.00,116.53,1
100.00,115.60,1
217.00,115.28,1
108.00,116.54,1
53.00,117.67,1
68.00,116.94,1
81.00,114.75,1
69.00,111.76,1
68.00,108.15,1
142.00,104.70,1
173.00,102.95,1
111.00,103.17,1
46.00,103.58,1
289.00,104.53,1
45.00,107.35,1
119.00,110.06,1
61.00,111.31,1
108.00,111.47,1
66.00,110.73,1
42.00,108.82,1
114.00,105.95,1
151.00,103.74,1
100.00,102.91,1
60.00,102.28,1
59.00,100.70,1
109.00,98.54,1
130.00,97.00,1
197.00,97.32,1
116.00,99.62,1
105.00,102.50,1
45.00,104.36,1
78.00,104.56,1
80.00,103.59,1
77.00,102.03,1
84.00,100.08,1
94.00,98.10,1
136.00,96.73,1
74.00,96.13,1
46.00,95.22,1
286.00,95.12,1
218.00,98.84,1
96.00,105.17,1
138.00,111.04,1
132.00,115.99,1
122.00,120.25,1
106.00,123.50,1
54.00,125.08,1
101.00,124.75,1
189.00,124.06,1
76.00,124.02,1
198.00,124.35,1
64.00,124.92,1
192.00,125.50,1
48.00,125.90,1
81.00,125.08,1
37.00,122.34,1
49.00,117.90,1
309.00,114.30,1
68.00,113.86,1
39.00,113.76,1
74.00,111.72,1
71.00,108.62,1
118.00,105.43,1
91.00,102.81,1
37.00,100.20,1
40.00,96.60,1
74.00,92.25,1
106.00,88.33,1
79.00,85.44,1
125.00,83.65,1
42.00,82.59,1
80.00,81.45,1
38.00,79.87,1
48.00,77.71,1
132.00,75.69,1
65.00,74.77,1
69.00,74.34,1
127.00,74.28,1
95.00,75.25,1
281.00,78.45,1
143.00,84.96,1
145.00,93.00,1
205.00,101.32,1
44.00,109.25,1
63.00,114.59,1
48.00,116.64,1
70.00,116.22,1
44.00,113.96,1
118.00,110.74,1
76.00,107.57,1
174.00,105.28,1
75.00,104.19,1
142.00,103.78,1
72.00,103.59,1
110.00,103.30,1
64.00,102.60,1
95.00,101.42,1
101.00,100.10,1
90.00,99.00,1
118.00,98.18,1
137.00,98.15,1
191.00,99.71,1
55.00,102.35,1
80.00,104.12,1
64.00,104.30,1
49.00,103.13,1
68.00,100.71,1
50.00,97.47,1
88.00,93.90,1
102.00,90.79,1
157.00,89.15,1
118.00,89.39,1
58.00,90.35,1
133.00,91.12,1
81.00,92.05,1
75.00,92.76,1
62.00,92.64,1
41.00,91.47,1
278.00,91.05,1
73.00,93.27,1
73.00,95.99,1
145.00,97.89,1
195.00,100.72,1
44.00,104.33,1
96.00,106.75,1
86.00,107.72,1
62.00,107.61,1
133.00,106.80,1
151.00,106.62,1
88.00,107.28,1
68.00,107.50,1
125.00,107.00,1
179.00,107.20,1
237.00,109.77,1
83.00,114.17,1
122.00,118.08,1
61.00,120.35,1
226.00,121.98,1
89.00,124.16,1
54.00,125.49,1
156.00,125.27,1
218.00,125.80,1
56.00,127.40,1
192.00,128.72,1
99.00,129.92,1
112.00,130.69,1
114.00,130.57,1
45.00,129.32,1
200.00,127.42,1
101.00,126.29,1
117.00,125.54,1
74.00,124.21,1
57.00,121.75,1
90.00,118.15,1
210.00,115.21,1
176.00,114.84,1
109.00,116.32,1
146.00,118.07,1
136.00,119.93,1
127.00,121.89,1
58.00,123.04,1
118.00,122.82,1
52.00,121.46,1
63.00,118.74,1
290.00,116.62,1
86.00,117.18,1
79.00,118.22,1
73.00,117.71,1
80.00,115.95,1
85.00,113.40,1
128.00,110.83,1
89.00,108.77,1
40.00,106.47,1
44.00,102.94,1
56.00,98.38,1
45.00,93.33,1
54.00,88.05,1
60.00,82.89,1
221.00,79.50,1
47.00,78.85,1
48.00,78.74,1
79.00,77.90,1
48.00,76.79,1
80.00,75.50,1
44.00,74.11,1
128.00,73.06,1
227.00,74.22,1
127.00,78.54,1
93.00,83.96,1
138.00,89.03,1
131.00,94.08,1
155.00,99.41,1
61.00,104.32,1
76.00,107.52,1
100.00,108.97,1
43.00,109.09,1
342.00,109.94,1
100.00,113.82,1
51.00,117.91,1
72.00,119.36,1
50.00,118.55,1
145.00,116.64,1
87.00,114.86,1
45.00,112.72,1
91.00,109.58,1
98.00,106.26,1
250.00,104.66,1
67.00,105.49,1
137.00,106.96,1
128.00,108.41,1
107.00,110.07,1
51.00,110.92,1
93.00,110.39,1
48.00,108.69,1
79.00,106.00,1
104.00,103.01,1
49.00,100.11,1
91.00,97.01,1
145.00,94.56,1
166.00,94.09,1
38.00,94.88,1
67.00,94.89,1
42.00,93.53,1
43.00,91.00,1
266.00,89.34,1
67.00,90.41,1
67.00,92.10,1
36.00,92.28,1
40.00,90.84,1
54.00,88.14,1
44.00,84.75,1
92.00,81.31,1
107.00,78.77,1
52.00,77.20,1
124.00,76.23,1
215.00,77.23,1
111.00,80.94,1
65.00,85.25,1
64.00,88.22,1
47.00,89.54,1
60.00,89.37,1
179.00,89.15,1
45.00,89.86,1
119.00,90.64,1
52.00,91.01,1
69.00,90.68,1
77.00,89.64,1
82.00,88.40,1
149.00,87.76,1
40.00,87.85,1
52.00,87.33,1
50.00,85.65,1
57.00,83.25,1
195.00,81.65,1
94.00,82.22,1
40.00,83.45,1
78.00,83.71,1
94.00,83.53,1
60.00,83.32,1
50.00,82.59,1
73.00,81.23,1
65.00,79.67,1
140.00,78.68,1
73.00,78.79,1
81.00,79.30,1
60.00,79.50,1
85.00,79.39,1
267.00,80.79,1
170.00,85.68,1
50.00,92.03,1
70.00,96.63,1
133.00,99.58,1
190.00,102.89,1
50.00,106.66,1
62.00,108.90,1
114.00,109.37,1
90.00,109.25,1
44.00,108.33,1
149.00,106.75,1
172.00,106.28,1
44.00,106.85,1
115.00,106.85,1
83.00,106.26,1
86.00,105.32,1
41.00,103.57,1
121.00,101.19,1
65.00,98.91,1
58.00,96.45,1
77.00,93.53,1
58.00,90.45,1
218.00,88.53,1
115.00,89.18,1
51.00,90.85,1
187.00,92.46,1
175.00,95.59,1
112.00,100.17,1
47.00,104.04,1
67.00,105.80,1
59.00,105.62,1
60.00,104.01,1
50.00,101.22,1
72.00,97.67,1
82.00,94.01,1
131.00,91.16,1
77.00,89.47,1
93.00,88.34,1
101.00,87.58,1
84.00,87.24,1
89.00,87.06,1
88.00,86.93,1
125.00,87.19,1
60.00,87.79,1
69.00,87.94,1
129.00,87.84,1
83.00,88.26,1
202.00,89.78,1
174.00,93.45,1
150.00,98.94,1
228.00,105.66,1
106.00,113.17,1
55.00,119.23,1
57.00,122.13,1
111.00,122.59,1
69.00,121.76,1
129.00,120.22,1
51.00,118.20,1
73.00,115.26,1
127.00,111.89,1
149.00,109.56,1
70.00,108.27,1
129.00,107.17,1
45.00,105.87,1
92.00,103.94,1
67.00,101.49,1
70.00,98.72,1
68.00,95.62,1
54.00,92.25,1
39.00,88.41,1
64.00,84.17,1
84.00,80.24,1
150.00,77.77,1
70.00,77.09,1
77.00,77.06,1
143.00,77.53,1
98.00,79.15,1
44.00,80.94,1
144.00,82.34,1
107.00,84.34,1
93.00,86.79,1
46.00,88.59,1
104.00,89.39,1
71.00,89.73,1
104.00,89.92,1
58.00,89.87,1
54.00,89.12,1
72.00,87.57,1
48.00,85.52,1
200.00,84.17,1
46.00,84.46,1
69.00,84.88,1
60.00,84.39,1
145.00,84.00,1
55.00,84.27,1
36.00,84.09,1
192.00,83.81,1
57.00,84.78,1
35.00,85.53,1
61.00,84.83,1
75.00,83.41,1
57.00,81.79,1
75.00,80.03,1
80.00,78.42,1
135.00,77.68,1
137.00,78.57,1
141.00,81.20,1
74.00,84.61,1
58.00,87.27,1
78.00,88.62,1
82.00,89.16,1
46.00,89.00,1
43.00,87.72,1
62.00,85.43,1
54.00,82.69,1
61.00,79.78,1
70.00,76.96,1
128.00,75.00,1
46.00,74.11,1
88.00,73.53,1
39.00,72.81,1
47.00,71.62,1
72.00,70.05,1
112.00,69.05,1
119.00,69.44,1
71.00,70.92,1
48.00,72.25,1
104.00,73.11,1
45.00,73.83,1
65.00,74.09,1
54.00,73.71,1
152.00,73.68,1
97.00,74.98,1
65.00,76.89,1
106.00,78.56,1
95.00,80.30,1
150.00,82.66,1
58.00,85.47,1
46.00,87.36,1
79.00,87.80,1
102.00,87.76,1
174.00,88.61,1
71.00,90.64,1
124.00,92.83,1
110.00,94.97,1
132.00,97.39,1
89.00,99.84,1
67.00,101.52,1
158.00,102.59,1
49.00,103.58,1
50.00,103.43,1
121.00,102.12,1
57.00,100.62,1
80.00,98.76,1
44.00,96.24,1
134.00,93.63,1
244.00,93.17,1
142.00,96.07,1
102.00,100.33,1
38.00,103.42,1
118.00,104.79,1
116.00,105.58,1
79.00,106.23,1
150.00,106.72,1
182.00,108.21,1
41.00,110.35,1
80.00,111.17,1
127.00,110.83,1
86.00,110.38,1
75.00,109.49,1
150.00,108.37,1
121.00,108.05,1
46.00,107.85,1
70.00,106.48,1
74.00,104.05,1
149.00,101.80,1
39.00,100.12,1
76.00,98.04,1
120.00,95.79,1
118.00,94.50,1
96.00,94.12,1
54.00,93.73,1
148.00,93.24,1
68.00,93.24,1
75.00,93.13,1
82.00,92.44,1
72.00,91.43,1
153.00,90.78,1
81.00,91.07,1
66.00,91.44,1
121.00,91.45,1
98.00,91.79,1
38.00,91.95,1
144.00,91.65,1
62.00,91.61,1
52.00,91.19,1
183.00,90.74,1
58.00,91.34,1
143.00,92.43,1
73.00,93.65,1
143.00,95.06,1
83.00,96.64,1
40.00,97.53,1
113.00,97.27,1
150.00,97.29,1
82.00,98.18,1
172.00,99.62,1
111.00,101.88,1
122.00,104.49,1
62.00,106.47,1
88.00,107.21,1
135.00,107.31,1
87.00,107.52,1
105.00,107.55,1
147.00,107.68,1
124.00,108.55,1
148.00,110.12,1
43.00,111.49,1
186.00,112.32,1
106.00,113.54,1
57.00,114.47,1
283.00,115.56,1
118.00,118.69,1
58.00,121.92,1
116.00,123.23,1
59.00,123.04,1
127.00,121.80,1
116.00,120.37,1
51.00,118.69,1
48.00,115.68,1
74.00,111.40,1
36.00,106.37,1
101.00,101.07,1
130.00,96.74,1
45.00,93.61,1
110.00,90.87,1
213.00,89.73,1
54.00,90.78,1
91.00,91.98,1
108.00,92.69,1
112.00,93.63,1
234.00,95.93,1
38.00,99.64,1
39.00,102.05,1
82.00,102.15,1
45.00,100.88,1
264.00,100.19,1
64.00,101.61,1
96.00,103.36,1
175.00,104.84,1
90.00,106.93,1
70.00,108.50,1
94.00,108.78,1
53.00,107.96,1
215.00,107.20,1
53.00,107.52,1
94.00,107.64,1
239.00,108.14,1
52.00,110.11,1
87.00,111.53,1
408.00,114.15,1
132.00,120.99,1
79.00,128.39,1
67.00,132.73,1
95.00,134.16,1
155.00,134.20,1
54.00,133.59,1
102.00,131.70,1
70.00,128.61,1
212.00,125.76,1
203.00,125.21,1
147.00,126.96,1
66.00,128.75,1
40.00,128.49,1
146.00,126.42,1
99.00,124.24,1
140.00,122.47,1
102.00,121.05,1
129.00,119.88,1
47.00,118.39,1
56.00,115.64,1
66.00,111.58,1
106.00,107.23,1
127.00,103.73,1
58.00,101.10,1
71.00,98.36,1
79.00,95.32,1
94.00,92.53,1
102.00,90.40,1
102.00,89.10,1
91.00,88.46,1
118.00,88.37,1
69.00,88.66,1
203.00,89.75,1
44.00,91.91,1
103.00,93.77,1
69.00,94.71,1
53.00,94.72,1
137.00,94.17,1
46.00,93.73,1
43.00,92.53,1
168.00,91.05,1
201.00,91.72,1
252.00,96.02,1
53.00,102.39,1
87.00,107.52,1
122.00,110.74,1
62.00,112.77,1
42.00,112.92,1
170.00,111.92,1
61.00,111.12,1
178.00,110.73,1
113.00,111.16,1
36.00,111.44,1
60.00,109.98,1
49.00,106.92,1
87.00,103.08,1
80.00,99.25,1
190.00,96.67,1
51.00,95.75,1
68.00,94.86,1
151.00,93.84,1
193.00,94.61,1
71.00,97.10,1
98.00,99.37,1
114.00,100.95,1
81.00,102.18,1
44.00,102.38,1
163.00,101.88,1
122.00,102.21,1
127.00,103.51,1
63.00,104.70,1
72.00,104.83,1
122.00,104.17,1
69.00,103.40,1
42.00,101.90,1
83.00,99.33,1
79.00,96.47,1
48.00,93.49,1
53.00,90.02,1
45.00,86.04,1
102.00,82.19,1
178.00,80.08,1
78.00,80.28,1
109.00,81.45,1
69.00,82.66,1
39.00,83.20,1
38.00,82.39,1
82.00,80.67,1
55.00,78.83,1
45.00,76.78,1
119.00,74.86,1
47.00,73.66,1
70.00,72.65,1
55.00,71.48,1
100.00,70.54,1
55.00,70.06,1
79.00,69.76,1
58.00,69.48,1
112.00,69.50,1
57.00,70.02,1
97.00,70.77,1
44.00,71.44,1
47.00,71.50,1
89.00,71.06,1
64.00,70.76,1
38.00,70.30,1
161.00,70.11,1
63.00,71.15,1
80.00,72.63,1
119.00,74.18,1
68.00,76.10,1
47.00,77.54,1
73.00,78.01,1
173.00,78.82,1
51.00,80.72,1
125.00,82.81,1
80.00,84.80,1
102.00,86.72,1
56.00,88.11,1
55.00,88.48,1
68.00,87.77,1
48.00,86.29,1
75.00,84.29,1
122.00,82.62,1
93.00,82.04,1
140.00,82.58,1
70.00,83.92,1
108.00,85.38,1
91.00,86.78,1
51.00,87.80,1
84.00,87.94,1
70.00,87.54,1
77.00,86.82,1
41.00,85.59,1
229.00,85.04,1
107.00,86.83,1
135.00,90.11,1
73.00,93.34,1
66.00,95.58,1
36.00,96.11,1
153.00,95.73,1
112.00,96.03,1
108.00,97.10,1
164.00,98.77,1
208.00,102.12,1
72.00,106.67,1
59.00,109.99,1
59.00,110.94,1
111.00,110.37,1
58.00,109.08,1
44.00,106.72,1
87.00,103.33,1
81.00,99.80,1
178.00,97.35,1
66.00,96.43,1
91.00,95.85,1
92.00,95.05,1
57.00,94.04,1
70.00,92.44,1
54.00,90.24,1
93.00,87.81,1
189.00,86.61,1
38.00,87.07,1
94.00,87.51,1
59.00,87.31,1
251.00,88.12,1
98.00,91.28,1
49.00,94.77,1
36.00,96.17,1
66.00,95.59,1
86.00,94.08,1
87.00,92.51,1
162.00,91.74,1
75.00,92.15,1
52.00,92.42,1
58.00,91.52,1
89.00,89.93,1
38.00,88.01,1
127.00,86.05,1
63.00,84.65,1
124.00,83.91,1
48.00,83.54,1
42.00,82.66,1
131.00,81.43,1
142.00,81.51,1
49.00,82.71,1
139.00,84.02,1
40.00,85.27,1
126.00,86.25,1
69.00,87.13,1
121.00,88.10,1
54.00,88.94,1
43.00,88.89,1
142.00,88.24,1
151.00,88.79,1
35.00,90.24,1
55.00,90.64,1
93.00,89.90,1
72.00,88.95,1
135.00,88.36,1
187.00,89.38,1
63.00,91.94,1
42.00,93.77,1
56.00,93.74,1
83.00,92.56,1
44.00,90.81,1
49.00,88.29,1
82.00,85.30,1
86.00,82.68,1
104.00,80.91,1
117.00,80.30,1
114.00,80.91,1
104.00,82.41,1
146.00,84.70,1
165.00,88.28,1
54.00,92.45,1
109.00,95.73,1
277.00,99.60,1
108.00,105.63,1
135.00,111.93,1
40.00,116.45,1
78.00,118.46,1
46.00,118.05,1
132.00,116.31,1
36.00,114.00,1
159.00,111.48,1
138.00,109.95,1
132.00,109.85,1
69.00,110.04,1
156.00,110.06,1
91.00,110.35,1
93.00,110.48,1
58.00,109.69,1
177.00,108.66,1
149.00,108.92,1
132.00,110.54,1
161.00,112.87,1
226.00,116.54,1
97.00,121.36,1
199.00,126.13,1
76.00,130.30,1
43.00,132.41,1
203.00,132.66,1
35.00,132.46,1
86.00,130.89,1
270.00,129.31,1
37.00,129.33,1
154.00,129.18,1
148.00,128.87,1
37.00,128.40,1
97.00,126.42,1
166.00,124.02,1
66.00,122.19,1
59.00,119.71,1
92.00,116.13,1
212.00,113.34,1
132.00,112.82,1
75.00,113.25,1
80.00,112.82,1
124.00,111.72,1
143.00,111.08,1
119.00,111.30,1
82.00,111.61,1
47.00,110.88,1
64.00,108.63,1
201.00,106.44,1
160.00,106.44,1
59.00,107.71,1
165.00,108.79,1
70.00,109.80,1
107.00,110.34,1
37.00,109.73,1
82.00,107.82,1
48.00,104.84,1
131.00,101.66,1
102.00,99.29,1
42.00,97.33,1
109.00,95.05,1
84.00,93.01,1
96.00,91.48,1
49.00,89.97,1
301.00,89.94,1
48.00,92.72,1
56.00,95.51,1
50.00,96.20,1
94.00,95.62,1
62.00,94.48,1
66.00,92.83,1
176.00,91.57,1
72.00,91.65,1
70.00,91.90,1
65.00,91.35,1
56.00,90.02,1
80.00,88.15,1
152.00,86.85,1
76.00,86.80,1
75.00,87.03,1
56.00,86.65,1
202.00,86.71,1
400.00,91.01,1
43.00,99.92,1
108.00,108.30,1
150.00,114.47,1
92.00,119.51,1
45.00,122.51,1
177.00,123.72,1
200.00,125.51,1
225.00,129.37,1
210.00,135.13,1
41.00,140.71,1
119.00,143.67,1
98.00,144.28,1
243.00,144.58,1
42.00,145.21,1
113.00,144.53,1
129.00,142.51,1
39.00,139.64,1
157.00,135.85,1
322.00,134.06,1
164.00,136.26,1
58.00,139.30,1
41.00,139.64,1
79.00,137.09,1
41.00,132.58,1
157.00,127.39,1
65.00,122.71,1
116.00,118.42,1
53.00,114.14,1
89.00,109.68,1
50.00,104.98,1
77.00,100.13,1
128.00,95.88,1
36.00,92.53,1
89.00,89.32,1
52.00,86.12,1
146.00,83.65,1
66.00,82.41,1
107.00,81.93,1
329.00,83.92,1
53.00,89.42,1
59.00,94.73,1
178.00,98.50,1
56.00,102.01,1
59.00,104.19,1
146.00,105.03,1
42.00,105.45,1
71.00,104.76,1
196.00,103.92,1
244.00,105.70,1
187.00,110.76,1
40.00,116.38,1
55.00,119.44,1
50.00,119.48,1
45.00,117.22,1
43.00,113.11,1
51.00,107.74,1
104.00,102.16,1
78.00,97.33,1
308.00,95.14,1
90.00,96.82,1
221.00,100.77,1
244.00,106.88,1
173.00,115.30,1
76.00,123.39,1
85.00,128.82,1
49.00,131.10,1
184.00,131.52,1
218.00,132.76,1
81.00,135.11,1
84.00,136.26,1
44.00,135.02,1
77.00,131.68,1
175.00,127.86,1
97.00,125.08,1
58.00,122.35,1
109.00,118.89,1
69.00,115.17,1
265.00,112.77,1
70.00,112.75,1
147.00,113.58,1
57.00,113.94,1
51.00,113.01,1
102.00,110.70,1
79.00,108.04,1
102.00,105.44,1
73.00,102.92,1
66.00,100.19,1
210.00,98.23,1
42.00,97.86,1
36.00,97.07,1
118.00,95.18,1
40.00,93.17,1
84.00,90.90,1
85.00,88.58,1
72.00,86.59,1
119.00,85.10,1
209.00,85.43,1
196.00,88.91,1
175.00,95.01,1
93.00,101.79,1
76.00,107.19,1
77.00,110.40,1
60.00,111.58,1
124.00,111.43,1
38.00,110.49,1
58.00,108.26,1
76.00,104.89,1
65.00,101.13,1
101.00,97.47,1
66.00,94.21,1
52.00,90.98,1
120.00,87.91,1
69.00,85.67,1
86.00,83.98,1
54.00,82.35,1
137.00,81.13,1
122.00,81.24,1
81.00,82.47,1
162.00,84.36,1
82.00,87.05,1
52.00,89.34,1
163.00,91.01,1
59.00,92.89,1
62.00,94.08,1
162.00,94.73,1
60.00,95.77,1
108.00,96.62,1
93.00,97.12,1
122.00,97.73,1
157.00,99.06,1
105.00,101.26,1
39.00,102.94,1
88.00,103.02,1
102.00,102.31,1
47.00,101.18,1
141.00,99.76,1
60.00,98.60,1
38.00,96.93,1
77.00,94.19,1
46.00,90.97,1
148.00,88.13,1
95.00,86.68,1
116.00,86.46,1
108.00,87.03,1
157.00,88.64,1
71.00,91.01,1
69.00,92.84,1
94.00,93.67,1
47.00,93.71,1
80.00,92.84,1
185.00,92.36,1
231.00,94.63,1
53.00,99.02,1
76.00,102.50,1
206.00,105.14,1
78.00,108.35,1
104.00,111.05,1
84.00,112.48,1
67.00,112.64,1
122.00,111.83,1
88.00,110.82,1
74.00,109.46,1
146.00,107.96,1
96.00,107.08,1
124.00,106.69,1
144.00,106.91,1
170.00,108.38,1
62.00,110.43,1
52.00,111.19,1
164.00,110.80,1
78.00,110.64,1
88.00,110.22,1
68.00,108.91,1
47.00,106.54,1
44.00,102.92,1
42.00,98.22,1
111.00,93.37,1
53.00,89.22,1
125.00,85.94,1
138.00,84.27,1
149.00,84.76,1
47.00,86.34,1
73.00,87.29,1
92.00,87.48,1
52.00,87.29,1
280.00,88.19,1
118.00,92.04,1
81.00,96.85,1
136.00,100.74,1
96.00,104.08,1
49.00,106.29,1
223.00,107.90,1
103.00,110.50,1
79.00,113.03,1
86.00,114.06,1
51.00,113.57,1
54.00,111.43,1
39.00,107.74,1
240.00,104.44,1
220.00,104.60,1
40.00,107.20,1
144.00,109.30,1
37.00,110.30,1
173.00,110.65,1
104.00,111.28,1
131.00,112.32,1
59.00,112.91,1
40.00,111.99,1
89.00,109.45,1
124.00,106.72,1
44.00,104.26,1
110.00,101.60,1
158.00,99.72,1
118.00,99.50,1
56.00,99.77,1
65.00,99.09,1
90.00,97.58,1
83.00,95.91,1
127.00,94.64,1
52.00,93.76,1
50.00,92.31,1
157.00,90.71,1
272.00,91.77,1
45.00,95.73,1
92.00,99.32,1
52.00,101.08,1
211.00,102.44,1
38.00,104.33,1
86.00,105.40,1
44.00,104.82,1
138.00,103.47,1
162.00,103.01,1
157.00,104.39,1
120.00,106.95,1
221.00,110.46,1
118.00,115.11,1
46.00,118.99,1
180.00,121.22,1
60.00,122.76,1
92.00,123.10,1
83.00,121.97,1
36.00,119.50,1
105.00,115.79,1
190.00,112.75,1
70.00,111.31,1
115.00,110.21,1
91.00,108.96,1
54.00,107.32,1
113.00,105.08,1
183.00,103.73,1
244.00,105.24,1
157.00,109.81,1
62.00,114.78,1
110.00,117.98,1
249.00,120.90,1
218.00,125.99,1
81.00,132.04,1
248.00,137.46,1
172.00,143.25,1
47.00,148.18,1
59.00,149.69,1
84.00,147.91,1
118.00,144.51,1
54.00,140.22,1
50.00,134.59,1
104.00,128.00,1
124.00,121.91,1
62.00,116.67,1
62.00,111.39,1
63.00,105.74,1
80.00,100.16,1
58.00,94.93,1
75.00,90.05,1
55.00,85.54,1
188.00,82.37,1
91.00,81.59,1
87.00,82.08,1
128.00,82.99,1
110.00,84.70,1
42.00,86.42,1
50.00,86.87,1
52.00,85.94,1
180.00,85.15,1
88.00,85.88,1
76.00,87.18,1
83.00,87.95,1
79.00,88.28,1
97.00,88.40,1
78.00,88.47,1
86.00,88.40,1
80.00,88.15,1
48.00,87.47,1
114.00,86.45,1
70.00,85.68,1
50.00,84.77,1
55.00,83.12,1
54.00,80.89,1
177.00,79.34,1
58.00,79.41,1
102.00,80.11,1
45.00,80.52,1
196.00,81.39,1
42.00,83.33,1
41.00,84.70,1
48.00,84.34,1
85.00,83.10,1
113.00,82.14,1
128.00,82.35,1
51.00,83.26,1
66.00,83.65,1
56.00,83.14,1
104.00,82.33,1
45.00,81.55,1
78.00,80.50,1
403.00,82.03,1
47.00,88.22,1
60.00,94.63,1
50.00,98.15,1
127.00,99.95,1
113.00,101.47,1
195.00,103.79,1
123.00,107.32,1
82.00,110.77,1
50.00,112.51,1
186.00,113.15,1
75.00,114.01,1
118.00,114.65,1
60.00,114.40,1
86.00,113.08,1
131.00,111.33,1
54.00,109.64,1
40.00,107.02,1
104.00,103.45,1
113.00,100.30,1
102.00,98.17,1
77.00,96.56,1
46.00,94.65,1
134.00,92.56,1
211.00,92.26,1
70.00,94.18,1
60.00,95.93,1
54.00,96.08,1
70.00,94.98,1
268.00,94.83,1
46.00,96.99,1
84.00,99.10,1
101.00,100.01,1
39.00,100.08,1
104.00,99.16,1
52.00,97.64,1
73.00,95.58,1
131.00,93.57,1
61.00,92.22,1
60.00,90.74,1
161.00,89.45,1
80.00,89.33,1
43.00,89.30,1
78.00,88.34,1
125.00,87.36,1
121.00,87.45,1
46.00,88.04,1
144.00,88.53,1
126.00,89.78,1
47.00,91.43,1
60.00,91.96,1
112.00,91.62,1
62.00,91.19,1
111.00,90.72,1
41.00,90.04,1
65.00,88.68,1
92.00,86.88,1
117.00,85.66,1
74.00,85.21,1
127.00,85.30,1
53.00,85.70,1
190.00,86.68,1
72.00,88.74,1
55.00,90.58,1
65.00,91.01,1
147.00,91.07,1
57.00,91.55,1
107.00,91.92,1
189.00,92.98,1
44.00,95.08,1
54.00,96.26,1
109.00,96.12,1
61.00,95.59,1
53.00,94.37,1
38.00,92.00,1
106.00,89.09,1
96.00,86.79,1
74.00,85.26,1
42.00,83.63,1
179.00,82.42,1
74.00,82.71,1
68.00,83.45,1
70.00,83.57,1
36.00,82.91,1
74.00,81.43,1
74.00,79.74,1
64.00,78.19,1
76.00,76.72,1
42.00,75.19,1
76.00,73.50,1
124.00,72.41,1
209.00,73.62,1
46.00,76.99,1
60.00,79.99,1
93.00,81.76,1
119.00,83.42,1
64.00,85.20,1
98.00,86.58,1
53.00,87.35,1
46.00,87.10,1
125.00,86.25,1
45.00,85.58,1
57.00,84.49,1
88.00,82.90,1
112.00,81.81,1
188.00,82.40,1
46.00,84.55,1
167.00,87.08,1
66.00,89.82,1
58.00,91.88,1
102.00,92.75,1
48.00,92.90,1
81.00,92.25,1
111.00,91.35,1
41.00,90.49,1
98.00,89.25,1
88.00,88.05,1
85.00,87.19,1
180.00,87.28,1
43.00,88.50,1
91.00,89.46,1
134.00,90.19,1
202.00,92.41,1
160.00,96.83,1
86.00,102.01,1
62.00,105.83,1
91.00,107.71,1
166.00,108.97,1
79.00,110.47,1
79.00,111.30,1
86.00,110.90,1
71.00,109.59,1
73.00,107.45,1
99.00,104.87,1
83.00,102.37,1
85.00,99.97,1
144.00,98.13,1
91.00,97.32,1
56.00,96.65,1
97.00,95.41,1
122.00,94.39,1
89.00,94.06,1
131.00,94.26,1
91.00,94.96,1
48.00,95.33,1
84.00,94.68,1
124.00,93.87,1
43.00,93.25,1
58.00,91.91,1
112.00,90.08,1
66.00,88.59,1
66.00,87.09,1
38.00,85.02,1
95.00,82.59,1
146.00,81.11,1
82.00,81.20,1
46.00,81.53,1
56.00,80.96,1
72.00,79.75,1
56.00,78.30,1
41.00,76.46,1
39.00,74.00,1
65.00,71.19,1
224.00,69.96,1
82.00,71.63,1
67.00,74.34,1
70.00,76.29,1
74.00,77.58,1
78.00,78.43,1
46.00,78.76,1
88.00,78.53,1
241.00,79.62,1
50.00,82.95,1
90.00,86.31,1
44.00,88.25,1
113.00,89.21,1
147.00,90.43,1
40.00,92.08,1
80.00,92.82,1
64.00,92.49,1
125.00,91.93,1
243.00,93.07,1
59.00,96.43,1
74.00,99.39,1
60.00,100.56,1
100.00,100.55,1
84.00,100.05,1
103.00,99.43,1
157.00,99.36,1
103.00,100.35,1
74.00,101.39,1
75.00,101.52,1
50.00,100.50,1
85.00,98.55,1
207.00,97.33,1
130.00,98.44,1
127.00,100.94,1
73.00,103.28,1
76.00,104.53,1
168.00,105.28,1
75.00,106.39,1
50.00,106.75,1
39.00,105.27,1
149.00,102.94,1
105.00,101.42,1
177.00,101.35,1
80.00,102.40,1
57.00,103.07,1
116.00,102.72,1
192.00,103.04,1
87.00,104.74,1
100.00,106.42,1
68.00,107.12,1
56.00,106.51,1
60.00,104.51,1
75.00,101.60,1
41.00,98.10,1
66.00,94.03,1
212.00,91.01,1
126.00,90.80,1
39.00,91.80,1
60.00,91.71,1
166.00,91.30,1
37.00,91.51,1
66.00,91.17,1
256.00,91.42,1
38.00,93.68,1
66.00,95.59,1
104.00,96.12,1
47.00,96.00,1
72.00,94.96,1
64.00,93.12,1
40.00,90.63,1
158.00,88.23,1
227.00,88.35,1
77.00,91.23,1
52.00,93.99,1
127.00,95.51,1
79.00,96.69,1
85.00,97.45,1
189.00,98.42,1
135.00,100.85,1
86.00,103.88,1
56.00,105.72,1
146.00,106.46,1
157.00,107.69,1
63.00,109.39,1
124.00,110.43,1
87.00,110.85,1
102.00,110.81,1
127.00,110.57,1
88.00,110.40,1
38.00,109.45,1
127.00,107.50,1
67.00,105.44,1
69.00,103.10,1
104.00,100.47,1
72.00,98.03,1
51.00,95.40,1
52.00,92.12,1
97.00,88.66,1
127.00,86.18,1
88.00,85.09,1
40.00,84.28,1
117.00,83.23,1
74.00,82.57,1
54.00,81.96,1
64.00,80.83,1
207.00,80.52,1
101.00,82.43,1
140.00,85.70,1
71.00,89.09,1
137.00,92.19,1
75.00,94.97,1
63.00,96.82,1
87.00,97.41,1
54.00,97.03,1
36.00,95.42,1
66.00,92.61,1
87.00,89.52,1
49.00,86.60,1
87.00,83.76,1
168.00,82.07,1
109.00,82.49,1
63.00,83.81,1
85.00,84.68,1
115.00,85.41,1
90.00,86.50,1
76.00,87.54,1
90.00,88.17,1
68.00,88.41,1
100.00,88.36,1
62.00,88.13,1
48.00,87.28,1
91.00,85.82,1
89.00,84.50,1
38.00,83.25,1
145.00,82.10,1
117.00,82.21,1
147.00,83.93,1
104.00,86.72,1
51.00,89.33,1
59.00,90.54,1
78.00,90.51,1
76.00,89.90,1
72.00,88.96,1
70.00,87.69,1
87.00,86.31,1
60.00,84.91,1
42.00,83.09,1
80.00,80.81,1
105.00,78.95,1
42.00,77.67,1
104.00,76.55,1
62.00,75.75,1
70.00,75.10,1
55.00,74.24,1
115.00,73.58,1
52.00,73.43,1
92.00,73.46,1
80.00,73.66,1
57.00,73.94,1
183.00,74.81,1
127.00,77.56,1
90.00,81.45,1
150.00,85.49,1
62.00,89.47,1
184.00,93.33,1
77.00,97.37,1
54.00,100.47,1
116.00,101.96,1
64.00,102.62,1
36.00,102.03,1
184.00,100.85,1
129.00,101.04,1
79.00,102.15,1
72.00,102.59,1
48.00,101.75,1
78.00,99.77,1
58.00,97.13,1
84.00,94.20,1
100.00,91.55,1
94.00,89.64,1
107.00,88.49,1
61.00,87.75,1
102.00,87.01,1
58.00,86.25,1
66.00,85.16,1
52.00,83.51,1
84.00,81.59,1
73.00,79.85,1
67.00,78.35,1
83.00,77.01,1
37.00,75.68,1
36.00,73.76,1
66.00,71.30,1
91.00,69.22,1
224.00,69.27,1
90.00,72.21,1
65.00,75.95,1
36.00,78.40,1
102.00,79.64,1
37.00,80.24,1
142.00,80.67,1
43.00,81.34,1
113.00,81.98,1
74.00,82.59,1
175.00,83.94,1
240.00,87.67,1
76.00,93.68,1
78.00,99.03,1
124.00,102.76,1
56.00,105.35,1
104.00,106.64,1
97.00,107.09,1
50.00,106.75,1
42.00,104.94,1
74.00,101.79,1
153.00,98.87,1
130.00,97.60,1
118.00,97.79,1
155.00,99.02,1
112.00,101.14,1
85.00,103.25,1
52.00,104.19,1
62.00,103.51,1
44.00,101.39,1
57.00,98.12,1
68.00,94.25,1
39.00,90.12,1
38.00,85.50,1
66.00,80.67,1
48.00,76.13,1
82.00,72.18,1
113.00,69.48,1
64.00,68.21,1
52.00,67.41,1
112.00,66.90,1
78.00,67.22,1
55.00,67.91,1
84.00,68.44,1
43.00,68.78,1
127.00,69.22,1
44.00,70.08,1
45.00,70.57,1
83.00,70.40,1
85.00,70.39,1
39.00,70.47,1
68.00,70.11,1
37.00,69.27,1
62.00,68.03,1
63.00,66.68,1
67.00,65.57,1
39.00,64.50,1
59.00,63.24,1
86.00,62.20,1
89.00,62.00,1
300.00,64.48,1
111.00,70.86,1
127.00,78.74,1
102.00,85.99,1
57.00,91.86,1
65.00,95.61,1
63.00,97.35,1
74.00,97.64,1
90.00,97.11,1
157.00,96.90,1
90.00,97.63,1
58.00,98.22,1
83.00,97.82,1
70.00,96.70,1
60.00,94.98,1
40.00,92.42,1
51.00,89.00,1
125.00,85.66,1
132.00,83.88,1
77.00,83.62,1
140.00,84.18,1
170.00,86.18,1
53.00,89.25,1
50.00,91.33,1
215.00,92.93,1
86.00,95.76,1
98.00,98.77,1
49.00,100.52,1
64.00,100.66,1
62.00,99.41,1
49.00,97.13,1
102.00,94.33,1
68.00,91.74,1
76.00,89.33,1
44.00,86.73,1
65.00,83.77,1
97.00,80.99,1
87.00,79.06,1
72.00,77.82,1
78.00,76.86,1
61.00,75.98,1
156.00,75.73,1
137.00,77.27,1
39.00,79.76,1
144.00,81.98,1
67.00,84.21,1
46.00,85.80,1
50.00,85.90,1
101.00,85.17,1
82.00,84.56,1
46.00,83.87,1
37.00,82.30,1
63.00,79.90,1
65.00,77.32,1
35.00,74.68,1
122.00,72.33,1
41.00,70.81,1
108.00,69.89,1
86.00,69.71,1
40.00,69.92,1
62.00,69.65,1
124.00,69.52,1
90.00,70.45,1
238.00,73.30,1
318.00,80.45,1
132.00,91.56,1
81.00,102.46,1
42.00,110.10,1
209.00,115.34,1
54.00,119.76,1
96.00,122.57,1
104.00,123.52,1
165.00,124.04,1
111.00,124.83,1
297.00,126.98,1
169.00,131.65,1
83.00,136.79,1
50.00,139.34,1
41.00,138.50,1
36.00,134.67,1
39.00,128.52,1
96.00,121.32,1
117.00,114.72,1
116.00,109.60,1
111.00,105.90,1
64.00,102.91,1
47.00,99.59,1
116.00,96.03,1
45.00,92.84,1
127.00,90.09,1
76.00,88.13,1
87.00,86.74,1
42.00,85.24,1
107.00,83.57,1
86.00,82.37,1
184.00,82.58,1
103.00,84.62,1
136.00,87.72,1
87.00,90.99,1
49.00,93.44,1
250.00,95.80,1
92.00,99.73,1
71.00,103.59,1
60.00,105.53,1
66.00,105.62,1
61.00,104.28,1
46.00,101.74,1
52.00,98.13,1
208.00,95.10,1
70.00,94.12,1
148.00,94.36,1
51.00,94.88,1
78.00,94.85,1
148.00,94.63,1
72.00,95.03,1
66.00,95.15,1
55.00,94.24,1
190.00,93.45,1
73.00,93.96,1
88.00,94.75,1
103.00,95.12,1
60.00,95.18,1
53.00,94.36,1
69.00,92.56,1
177.00,91.17,1
220.00,92.44,1
79.00,96.10,1
45.00,99.20,1
107.00,100.56,1
145.00,101.61,1
43.00,102.69,1
161.00,103.35,1
88.00,104.18,1
83.00,104.84,1
127.00,105.01,1
43.00,104.81,1
122.00,103.96,1
62.00,102.76,1
111.00,101.39,1
70.00,99.93,1
94.00,98.36,1
175.00,97.49,1
78.00,97.93,1
180.00,99.26,1
77.00,101.25,1
88.00,102.90,1
121.00,103.84,1
59.00,104.33,1
81.00,103.90,1
134.00,103.07,1
157.00,103.21,1
96.00,104.41,1
129.00,105.81,1
179.00,107.80,1
44.00,110.14,1
160.00,111.80,1
81.00,113.05,1
74.00,113.52,1
79.00,112.67,1
253.00,112.32,1
112.00,114.10,1
379.00,118.79,1
114.00,126.58,1
96.00,134.12,1
112.00,138.88,1
77.00,141.16,1
61.00,140.91,1
77.00,138.34,1
53.00,133.97,1
43.00,128.08,1
176.00,121.98,1
79.00,117.23,1
48.00,112.89,1
90.00,108.06,1
176.00,104.15,1
76.00,102.05,1
90.00,100.53,1
201.00,99.83,1
184.00,101.61,1
188.00,105.87,1
79.00,110.89,1
73.00,114.49,1
79.00,115.95,1
136.00,116.25,1
204.00,117.24,1
59.00,119.10,1
118.00,120.21,1
46.00,119.89,1
43.00,117.79,1
63.00,113.90,1
64.00,109.12,1
46.00,103.82,1
209.00,99.38,1
51.00,96.98,1
102.00,95.37,1
82.00,93.77,1
47.00,92.05,1
127.00,90.20,1
51.00,88.72,1
171.00,87.97,1
107.00,88.63,1
82.00,90.07,1
164.00,91.77,1
122.00,94.44,1
66.00,97.26,1
105.00,99.15,1
212.00,101.35,1
426.00,107.57,1
83.00,118.31,1
37.00,127.76,1
127.00,133.06,1
52.00,135.49,1
73.00,135.36,1
86.00,133.12,1
47.00,129.41,1
186.00,125.34,1
274.00,123.83,1
96.00,125.50,1
74.00,127.09,1
42.00,126.45,1
53.00,123.52,1
48.00,118.83,1
44.00,112.93,1
70.00,106.40,1
215.00,101.23,1
212.00,99.88,1
71.00,101.44,1
154.00,103.47,1
52.00,105.16,1
124.00,106.12,1
88.00,106.54,1
72.00,106.41,1
66.00,105.25,1
120.00,103.57,1
78.00,102.04,1
55.00,100.23,1
48.00,97.48,1
100.00,94.25,1
41.00,91.06,1
55.00,87.59,1
51.00,83.72,1
50.00,79.73,1
100.00,76.13,1
62.00,73.46,1
103.00,71.71,1
80.00,70.89,1
330.00,72.85,1
68.00,78.66,1
195.00,85.93,1
139.00,93.56,1
40.00,100.51,1
122.00,105.29,1
76.00,108.41,1
106.00,110.34,1
96.00,111.33,1
68.00,111.43,1
100.00,110.56,1
250.00,110.52,1
172.00,113.20,1
56.00,116.87,1
61.00,118.65,1
50.00,117.95,1
76.00,115.48,1
45.00,111.82,1
254.00,108.81,1
47.00,107.89,1
40.00,106.82,1
56.00,104.00,1
50.00,100.08,1
137.00,96.22,1
83.00,93.48,1
54.00,91.26,1
115.00,89.08,1
99.00,87.64,1
187.00,87.80,1
160.00,90.25,1
102.00,94.18,1
75.00,97.68,1
55.00,99.63,1
174.00,100.79,1
52.00,102.10,1
68.00,102.58,1
59.00,101.58,1
51.00,99.40,1
181.00,97.29,1
255.00,97.99,1
180.00,102.56,1
102.00,108.59,1
71.00,113.34,1
211.00,116.97,1
232.00,121.86,1
396.00,130.41,1
136.00,142.29,1
86.00,152.84,1
185.00,159.86,1
126.00,164.71,1
74.00,167.15,1
105.00,166.60,1
96.00,163.80,1
156.00,159.98,1
51.00,155.59,1
86.00,149.92,1
60.00,142.97,1
52.00,135.08,1
62.00,126.47,1
57.00,117.66,1
43.00,108.89,1
182.00,101.30,1
39.00,95.88,1
59.00,91.22,1
74.00,86.56,1
195.00,83.49,1
47.00,82.64,1
112.00,82.59,1
69.00,82.63,1
63.00,82.52,1
42.00,81.64,1
176.00,80.95,1
113.00,81.96,1
241.00,85.37,1
218.00,91.89,1
205.00,101.07,1
290.00,112.32,1
122.00,124.67,1
76.00,134.97,1
147.00,141.78,1
60.00,145.82,1
64.00,146.78,1
53.00,144.61,1
70.00,140.16,1
142.00,134.92,1
70.00,129.98,1
44.00,124.62,1
161.00,119.06,1
229.00,115.83,1
92.00,115.45,1
78.00,115.41,1
96.00,114.40,1
80.00,112.75,1
157.00,111.18,1
120.00,110.56,1
46.00,110.10,1
133.00,108.95,1
50.00,107.47,1
183.00,106.22,1
67.00,105.77,1
145.00,105.74,1
76.00,105.81,1
117.00,105.78,1
71.00,105.41,1
216.00,105.57,1
106.00,107.24,1
72.00,109.11,1
166.00,110.35,1
81.00,111.66,1
131.00,112.76,1
52.00,113.13,1
119.00,112.60,1
62.00,111.37,1
47.00,109.14,1
203.00,106.80,1
151.00,106.51,1
104.00,107.80,1
48.00,108.58,1
71.00,107.84,1
77.00,105.89,1
76.00,103.40,1
52.00,100.41,1
103.00,97.15,1
119.00,94.57,1
109.00,93.20,1
112.00,92.80,1
68.00,92.74,1
62.00,92.20,1
43.00,90.67,1
48.00,88.13,1
44.00,84.81,1
40.00,80.93,1
60.00,76.81,1
49.00,72.87,1
37.00,69.07,1
68.00,65.48,1
116.00,62.98,1
63.00,62.00,1
141.00,62.37,1
40.00,63.78,1
113.00,65.51,1
100.00,67.68,1
82.00,70.38,1
111.00,73.20,1
85.00,76.14,1
164.00,79.55,1
123.00,83.93,1
51.00,88.30,1
118.00,91.52,1
60.00,93.81,1
60.00,94.91,1
48.00,94.47,1
121.00,93.31,1
43.00,92.09,1
176.00,91.29,1
40.00,91.26,1
84.00,91.03,1
77.00,90.20,1
118.00,89.53,1
74.00,89.27,1
90.00,89.06,1
40.00,88.37,1
76.00,86.95,1
129.00,85.66,1
35.00,84.89,1
60.00,83.64,1
97.00,82.00,1
39.00,80.46,1
58.00,78.56,1
40.00,76.12,1
151.00,74.14,1
51.00,73.43,1
46.00,72.94,1
52.00,71.76,1
85.00,70.43,1
52.00,69.36,1
115.00,68.77,1
81.00,69.04,1
78.00,69.90,1
155.00,71.48,1
39.00,73.86,1
70.00,75.73,1
47.00,76.52,1
104.00,76.80,1
206.00,78.30,1
178.00,82.57,1
355.00,90.63,1
159.00,102.45,1
73.00,114.23,1
60.00,122.39,1
94.00,126.88,1
58.00,128.61,1
120.00,128.40,1
74.00,127.04,1
85.00,124.72,1
67.00,121.40,1
73.00,117.26,1
66.00,112.55,1
62.00,107.44,1
65.00,102.13,1
56.00,96.75,1
34.00,91.21,1
79.00,85.66,1
48.00,80.59,1
172.00,76.94,1
138.00,76.01,1
156.00,77.83,1
113.00,81.30,1
146.00,85.63,1
95.00,90.24,1
167.00,94.92,1
103.00,99.75,1
125.00,104.23,1
40.00,107.44,1
46.00,108.37,1
209.00,108.31,1
82.00,109.20,1
133.00,110.46,1
58.00,111.11,1
116.00,110.94,1
66.00,110.07,1
53.00,108.25,1
67.00,105.26,1
127.00,102.09,1
86.00,99.67,1
114.00,97.96,1
39.00,96.33,1
83.00,94.18,1
201.00,92.79,1
116.00,93.68,1
42.00,95.19,1
137.00,95.97,1
133.00,97.11,1
94.00,98.87,1
55.00,100.04,1
104.00,100.17,1
142.00,100.30,1
42.00,100.63,1
44.00,99.78,1
105.00,97.77,1
60.00,95.60,1
246.00,94.71,1
123.00,96.48,1
210.00,100.46,1
56.00,105.13,1
290.00,110.27,1
70.00,116.39,1
290.00,123.17,1
104.00,130.48,1
99.00,136.65,1
38.00,139.59,1
42.00,139.02,1
325.00,137.68,1
46.00,138.24,1
59.00,138.01,1
99.00,135.47,1
77.00,131.81,1
257.00,128.88,1
88.00,128.02,1
61.00,127.22,1
70.00,124.69,1
59.00,120.79,1
181.00,116.87,1
244.00,115.56,1
48.00,116.68,1
256.00,118.60,1
44.00,121.14,1
260.00,124.06,1
94.00,127.60,1
132.00,130.88,1
326.00,134.70,1
70.00,140.21,1
36.00,143.88,1
65.00,143.61,1
81.00,140.70,1
46.00,136.05,1
67.00,130.00,1
120.00,123.58,1
96.00,117.95,1
105.00,113.21,1
70.00,108.98,1
71.00,104.77,1
56.00,100.32,1
145.00,96.33,1
118.00,93.95,1
153.00,93.46,1
74.00,94.12,1
100.00,94.82,1
83.00,95.17,1
86.00,95.19,1
79.00,94.82,1
110.00,94.33,1
114.00,94.25,1
105.00,94.73,1
50.00,95.06,1
50.00,94.27,1
98.00,92.61,1
191.00,91.90,1
74.00,92.91,1
60.00,93.90,1
82.00,93.83,1
54.00,92.97,1
56.00,91.26,1
194.00,89.93,1
134.00,90.73,1
175.00,93.60,1
62.00,97.19,1
141.00,100.35,1
168.00,103.67,1
66.00,107.25,1
77.00,109.54,1
60.00,109.97,1
69.00,108.86,1
74.00,106.65,1
74.00,103.84,1
104.00,100.97,1
141.00,98.94,1
53.00,97.77,1
72.00,96.27,1
42.00,93.93,1
77.00,90.96,1
47.00,87.70,1
40.00,84.07,1
163.00,80.92,1
47.00,79.28,1
77.00,78.17,1
133.00,77.51,1
125.00,78.34,1
87.00,80.27,1
45.00,81.93,1
130.00,83.01,1
66.00,84.16,1
91.00,85.16,1
98.00,85.97,1
49.00,86.52,1
80.00,86.36,1
36.00,85.40,1
119.00,84.09,1
59.00,83.07,1
55.00,81.97,1
46.00,80.19,1
43.00,77.75,1
56.00,74.88,1
193.00,73.11,1
44.00,73.39,1
101.00,74.33,1
76.00,75.25,1
46.00,75.93,1
161.00,76.66,1
226.00,79.64,1
206.00,86.04,1
190.00,94.92,1
69.00,103.95,1
61.00,110.59,1
44.00,113.92,1
127.00,114.92,1
248.00,116.40,1
74.00,119.45,1
54.00,121.53,1
55.00,121.07,1
64.00,118.59,1
84.00,114.99,1
47.00,110.74,1
42.00,105.66,1
70.00,99.98,1
58.00,94.33,1
69.00,89.03,1
80.00,84.34,1
99.00,80.70,1
216.00,79.35,1
99.00,80.90,1
142.00,84.02,1
79.00,87.44,1
151.00,90.88,1
96.00,94.42,1
89.00,97.57,1
52.00,99.43,1
107.00,100.03,1
109.00,100.28,1
84.00,100.53,1
52.00,100.11,1
36.00,98.31,1
42.00,95.07,1
55.00,90.91,1
52.00,86.43,1
45.00,81.84,1
69.00,77.40,1
39.00,73.29,1
51.00,69.38,1
72.00,65.88,1
36.00,62.95,1
52.00,60.26,1
156.00,58.67,1
144.00,59.74,1
116.00,63.25,1
38.00,67.25,1
41.00,69.99,1
146.00,71.95,1
47.00,74.21,1
44.00,75.81,1
78.00,76.28,1
126.00,76.80,1
63.00,77.91,1
104.00,79.13,1
131.00,80.76,1
47.00,82.75,1
54.00,83.82,1
181.00,84.65,1
60.00,86.42,1
34.00,87.68,1
148.00,88.01,1
42.00,88.43,1
97.00,88.54,1
84.00,88.34,1
65.00,87.99,1
123.00,87.60,1
104.00,87.85,1
64.00,88.39,1
178.00,89.28,1
159.00,91.81,1
42.00,95.15,1
39.00,96.87,1
104.00,96.81,1
127.00,96.65,1
77.00,96.93,1
56.00,96.71,1
85.00,95.61,1
47.00,93.87,1
90.00,91.66,1
209.00,90.55,1
55.00,91.37,1
62.00,92.13,1
203.00,92.81,1
84.00,94.83,1
59.00,96.78,1
104.00,97.58,1
61.00,97.67,1
90.00,97.12,1
130.00,96.55,1
152.00,97.09,1
75.00,98.51,1
59.00,99.30,1
134.00,99.32,1
43.00,99.10,1
40.00,97.80,1
80.00,95.25,1
66.00,92.34,1
64.00,89.36,1
106.00,86.62,1
76.00,84.59,1
78.00,83.03,1
102.00,81.86,1
103.00,81.46,1
61.00,81.51,1
53.00,81.15,1
66.00,80.11,1
156.00,79.49,1
120.00,80.50,1
172.00,83.33,1
77.00,87.22,1
35.00,90.27,1
129.00,91.87,1
207.00,94.19,1
68.00,97.90,1
102.00,101.17,1
38.00,102.86,1
88.00,102.94,1
49.00,101.77,1
62.00,99.54,1
88.00,96.72,1
96.00,94.14,1
92.00,92.14,1
43.00,90.25,1
62.00,87.81,1
223.00,86.28,1
83.00,87.17,1
103.00,89.02,1
61.00,90.38,1
100.00,91.10,1
59.00,91.28,1
78.00,90.84,1
65.00,89.82,1
70.00,88.36,1
117.00,87.00,1
221.00,87.43,1
94.00,90.26,1
43.00,93.18,1
36.00,94.09,1
62.00,93.14,1
109.00,91.57,1
38.00,89.97,1
44.00,87.67,1
172.00,85.49,1
68.00,84.79,1
41.00,84.34,1
61.00,82.95,1
80.00,81.16,1
66.00,79.48,1
44.00,77.69,1
86.00,75.74,1
47.00,73.93,1
109.00,72.50,1
102.00,72.04,1
68.00,72.47,1
113.00,73.31,1
86.00,74.66,1
138.00,76.72,1
127.00,79.79,1
54.00,83.18,1
91.00,85.69,1
68.00,87.28,1
43.00,87.83,1
54.00,87.06,1
138.00,85.98,1
117.00,86.01,1
38.00,86.59,1
44.00,86.13,1
138.00,85.12,1
36.00,84.48,1
64.00,83.46,1
164.00,82.64,1
55.00,82.98,1
41.00,83.10,1
81.00,82.24,1
54.00,80.99,1
43.00,79.27,1
101.00,77.33,1
45.00,75.70,1
160.00,74.85,1
39.00,75.07,1
76.00,75.36,1
46.00,75.04,1
41.00,74.03,1
76.00,72.50,1
86.00,71.25,1
72.00,70.59,1
48.00,70.06,1
51.00,69.14,1
69.00,67.97,1
100.00,67.22,1
190.00,68.24,1
127.00,71.78,1
36.00,76.08,1
185.00,80.01,1
94.00,84.50,1
52.00,88.64,1
118.00,91.47,1
115.00,93.92,1
41.00,95.90,1
47.00,96.24,1
53.00,94.83,1
61.00,92.40,1
68.00,89.50,1
57.00,86.44,1
72.00,83.35,1
99.00,80.72,1
75.00,78.91,1
70.00,77.57,1
49.00,76.16,1
43.00,74.31,1
89.00,72.29,1
48.00,70.59,1
45.00,68.87,1
54.00,66.86,1
59.00,64.87,1
70.00,63.22,1
46.00,61.90,1
39.00,60.51,1
72.00,59.08,1
40.00,57.88,1
52.00,56.74,1
42.00,55.53,1
55.00,54.36,1
48.00,53.32,1
61.00,52.52,1
60.00,52.08,1
116.00,52.48,1
90.00,54.22,1
128.00,57.26,1
67.00,61.09,1
264.00,66.33,1
42.00,73.40,1
74.00,79.84,1
80.00,84.32,1
41.00,87.20,1
263.00,90.02,1
111.00,94.82,1
50.00,99.76,1
85.00,102.66,1
41.00,103.60,1
75.00,102.89,1
54.00,100.96,1
68.00,98.22,1
72.00,95.06,1
79.00,91.91,1
144.00,89.58,1
66.00,88.42,1
106.00,87.78,1
63.00,87.20,1
48.00,86.19,1
46.00,84.27,1
57.00,81.65,1
35.00,78.56,1
34.00,74.95,1
141.00,71.74,1
69.00,70.12,1
126.00,69.92,1
66.00,70.65,1
58.00,71.49,1
63.00,71.79,1
88.00,71.89,1
46.00,71.94,1
95.00,71.88,1
75.00,72.02,1
58.00,72.26,1
67.00,72.17,1
40.00,71.64,1
77.00,70.71,1
64.00,69.80,1
73.00,69.10,1
53.00,68.46,1
48.00,67.58,1
66.00,66.45,1
63.00,65.41,1
67.00,64.59,1
40.00,63.80,1
158.00,63.61,1
36.00,64.61,1
92.00,65.90,1
67.00,67.08,1
122.00,68.63,1
53.00,70.55,1
52.00,72.00,1
89.00,72.74,1
72.00,73.40,1
69.00,73.97,1
80.00,74.35,1
58.00,74.56,1
70.00,74.44,1
38.00,73.84,1
61.00,72.65,1
87.00,71.39,1
64.00,70.54,1
95.00,70.13,1
49.00,70.00,1
79.00,69.84,1
119.00,70.11,1
170.00,72.03,1
63.00,75.42,1
53.00,78.38,1
70.00,80.03,1
39.00,80.54,1
41.00,79.83,1
103.00,78.50,1
53.00,77.38,1
37.00,76.00,1
152.00,74.74,1
148.00,75.35,1
92.00,77.79,1
93.00,80.60,1
37.00,82.66,1
36.00,83.17,1
62.00,82.23,1
73.00,80.71,1
47.00,79.00,1
66.00,77.01,1
41.00,74.77,1
84.00,72.52,1
113.00,71.07,1
50.00,70.60,1
65.00,70.21,1
60.00,69.58,1
124.00,69.35,1
184.00,70.97,1
40.00,74.25,1
105.00,77.35,1
50.00,79.61,1
75.00,81.01,1
45.00,81.42,1
86.00,81.11,1
46.00,80.36,1
150.00,79.84,1
38.00,79.99,1
51.00,79.75,1
88.00,78.82,1
40.00,77.71,1
69.00,76.25,1
70.00,74.67,1
38.00,73.04,1
49.00,70.99,1
67.00,68.77,1
71.00,66.91,1
82.00,65.68,1
54.00,64.97,1
58.00,64.33,1
81.00,63.80,1
147.00,64.31,1
127.00,66.73,1
120.00,70.68,1
87.00,75.11,1
48.00,78.81,1
76.00,81.15,1
88.00,82.63,1
80.00,83.77,1
105.00,84.78,1
48.00,85.54,1
102.00,85.80,1
70.00,85.81,1
91.00,85.74,1
68.00,85.49,1
36.00,84.66,1
48.00,82.78,1
90.00,80.45,1
64.00,78.43,1
90.00,76.85,1
63.00,75.65,1
80.00,74.68,1
53.00,73.76,1
74.00,72.77,1
100.00,72.09,1
79.00,72.11,1
99.00,72.70,1
112.00,73.96,1
137.00,76.29,1
146.00,79.94,1
93.00,84.39,1
64.00,88.26,1
77.00,90.74,1
56.00,91.89,1
76.00,91.90,1
80.00,91.25,1
62.00,90.20,1
60.00,88.59,1
77.00,86.58,1
111.00,84.88,1
103.00,84.10,1
80.00,84.01,1
64.00,83.86,1
170.00,84.11,1
90.00,85.60,1
83.00,87.49,1
43.00,88.50,1
112.00,88.66,1
78.00,88.70,1
47.00,88.40,1
97.00,87.48,1
131.00,86.96,1
37.00,86.96,1
105.00,86.65,1
107.00,86.47,1
74.00,86.74,1
93.00,86.95,1
269.00,88.61,1
124.00,93.21,1
109.00,98.80,1
46.00,102.99,1
90.00,105.15,1
53.00,105.62,1
125.00,105.14,1
199.00,105.45,1
80.00,107.19,1
158.00,109.25,1
156.00,111.77,1
111.00,114.80,1
150.00,117.67,1
170.00,120.76,1
55.00,123.62,1
48.00,124.41,1
82.00,122.80,1
37.00,119.56,1
65.00,114.96,1
127.00,110.11,1
90.00,106.16,1
142.00,103.37,1
38.00,101.23,1
44.00,98.43,1
106.00,94.95,1
49.00,91.69,1
86.00,88.58,1
112.00,86.04,1
115.00,84.77,1
118.00,84.81,1
133.00,86.01,1
213.00,89.04,1
90.00,93.75,1
106.00,98.35,1
68.00,101.64,1
44.00,103.12,1
50.00,102.56,1
168.00,101.31,1
53.00,100.64,1
44.00,99.43,1
65.00,96.92,1
82.00,93.92,1
92.00,91.19,1
81.00,88.97,1
105.00,87.31,1
59.00,86.06,1
64.00,84.63,1
172.00,83.72,1
75.00,84.26,1
103.00,85.40,1
93.00,86.54,1
36.00,87.23,1
89.00,86.97,1
59.00,86.14,1
46.00,84.76,1
98.00,82.96,1
97.00,81.66,1
119.00,81.37,1
60.00,81.73,1
42.00,81.62,1
67.00,80.57,1
75.00,79.19,1
65.00,77.86,1
86.00,76.67,1
59.00,75.68,1
64.00,74.64,1
81.00,73.60,1
90.00,72.99,1
62.00,72.78,1
109.00,72.89,1
68.00,73.44,1
138.00,74.59,1
62.00,76.37,1
115.00,78.30,1
52.00,80.03,1
68.00,81.07,1
40.00,81.04,1
38.00,79.89,1
59.00,77.81,1
51.00,75.36,1
93.00,73.10,1
40.00,71.26,1
127.00,69.99,1
77.00,69.78,1
44.00,70.00,1
81.00,69.88,1
130.00,70.25,1
53.00,71.47,1
95.00,72.78,1
90.00,74.12,1
49.00,75.37,1
81.00,76.04,1
118.00,76.76,1
136.00,78.53,1
66.00,81.04,1
183.00,84.00,1
39.00,87.36,1
75.00,89.81,1
108.00,91.15,1
99.00,92.37,1
70.00,93.36,1
49.00,93.40,1
51.00,92.14,1
51.00,89.82,1
66.00,86.89,1
42.00,83.65,1
88.00,80.38,1
72.00,77.64,1
41.00,75.25,1
61.00,72.71,1
42.00,70.08,1
41.00,67.29,1
111.00,64.90,1
94.00,63.89,1
80.00,64.14,1
64.00,64.85,1
45.00,65.33,1
181.00,66.31,1
75.00,68.86,1
102.00,72.10,1
69.00,75.05,1
48.00,77.20,1
52.00,78.07,1
39.00,77.73,1
44.00,76.33,1
112.00,74.72,1
46.00,73.61,1
44.00,72.39,1
64.00,70.70,1
85.00,69.20,1
39.00,68.04,1
121.00,67.25,1
84.00,67.43,1
92.00,68.50,1
84.00,69.96,1
38.00,71.21,1
40.00,71.46,1
50.00,70.67,1
39.00,69.20,1
95.00,67.63,1
125.00,67.14,1
57.00,67.86,1
82.00,68.82,1
47.00,69.49,1
40.00,69.47,1
51.00,68.63,1
83.00,67.58,1
69.00,66.92,1
48.00,66.42,1
126.00,66.26,1
71.00,67.01,1
97.00,68.39,1
46.00,69.75,1
79.00,70.69,1
40.00,71.08,1
59.00,70.82,1
90.00,70.34,1
81.00,70.30,1
44.00,70.39,1
39.00,69.84,1
34.00,68.39,1
82.00,66.59,1
53.00,65.10,1
59.00,63.85,1
70.00,62.78,1
75.00,62.16,1
53.00,61.89,1
51.00,61.56,1
44.00,60.91,1
50.00,59.97,1
59.00,58.95,1
37.00,57.91,1
97.00,57.12,1
169.00,57.94,1
38.00,60.57,1
124.00,63.62,1
88.00,66.94,1
55.00,70.19,1
132.00,73.06,1
108.00,76.37,1
52.00,79.67,1
86.00,82.00,1
57.00,83.38,1
46.00,83.70,1
57.00,82.87,1
68.00,81.38,1
84.00,79.85,1
111.00,78.91,1
90.00,78.87,1
72.00,79.24,1
39.00,79.15,1
36.00,78.00,1
78.00,76.11,1
86.00,74.45,1
59.00,73.29,1
53.00,72.10,1
41.00,70.51,1
118.00,69.07,1
118.00,68.96,1
40.00,69.87,1
46.00,70.26,1
64.00,69.86,1
120.00,69.68,1
79.00,70.40,1
72.00,71.52,1
74.00,72.47,1
63.00,73.13,1
62.00,73.37,1
105.00,73.55,1
70.00,74.08,1
55.00,74.51,1
74.00,74.47,1
62.00,74.17,1
40.00,73.46,1
103.00,72.50,1
37.00,71.72,1
136.00,71.34,1
45.00,71.63,1
60.00,71.85,1
126.00,72.04,1
55.00,72.85,1
100.00,73.83,1
60.00,74.74,1
74.00,75.39,1
46.00,75.48,1
71.00,75.01,1
46.00,74.11,1
42.00,72.66,1
61.00,70.73,1
41.00,68.61,1
112.00,66.85,1
92.00,66.26,1
68.00,66.63,1
43.00,66.95,1
60.00,66.75,1
39.00,66.06,1
87.00,65.20,1
61.00,64.66,1
125.00,64.87,1
67.00,66.01,1
58.00,67.32,1
143.00,68.78,1
77.00,71.10,1
64.00,73.50,1
125.00,75.62,1
55.00,77.78,1
35.00,79.07,1
69.00,79.04,1
67.00,78.37,1
67.00,77.51,1
50.00,76.36,1
44.00,74.71,1
103.00,72.97,1
90.00,72.05,1
60.00,71.81,1
69.00,71.56,1
63.00,71.16,1
49.00,70.52,1
42.00,69.37,1
75.00,67.92,1
46.00,66.54,1
77.00,65.31,1
42.00,64.21,1
68.00,63.15,1
41.00,62.06,1
44.00,60.78,1
84.00,59.56,1
38.00,58.73,1
129.00,58.55,1
68.00,59.49,1
104.00,61.29,1
42.00,63.27,1
97.00,65.03,1
39.00,66.50,1
97.00,67.66,1
65.00,68.77,1
78.00,69.86,1
51.00,70.63,1
42.00,70.70,1
92.00,70.30,1
68.00,70.10,1
39.00,69.83,1
76.00,69.15,1
44.00,68.29,1
45.00,67.11,1
119.00,66.08,1
105.00,66.33,1
47.00,67.44,1
64.00,68.22,1
62.00,68.52,1
74.00,68.64,1
58.00,68.68,1
53.00,68.45,1
45.00,67.74,1
75.00,66.75,1
59.00,65.90,1
41.00,65.00,1
66.00,63.88,1
52.00,62.77,1
96.00,62.05,1
37.00,61.78,1
66.00,61.48,1
57.00,61.09,1
82.00,60.94,1
46.00,61.02,1
77.00,61.13,1
73.00,61.46,1
177.00,62.97,1
57.00,66.06,1
77.00,69.27,1
40.00,71.49,1
107.00,72.99,1
72.00,74.41,1
49.00,75.51,1
46.00,75.63,1
44.00,74.75,1
59.00,73.20,1
109.00,71.84,1
65.00,71.26,1
74.00,71.05,1
56.00,70.76,1
105.00,70.61,1
71.00,70.95,1
41.00,71.24,1
48.00,70.76,1
48.00,69.59,1
106.00,68.46,1
37.00,67.80,1
70.00,67.12,1
41.00,66.18,1
114.00,65.49,1
93.00,65.79,1
35.00,66.61,1
101.00,67.21,1
40.00,67.74,1
50.00,67.81,1
62.00,67.29,1
50.00,66.52,1
84.00,65.76,1
50.00,65.23,1
65.00,64.73,1
78.00,64.34,1
118.00,64.72,1
81.00,66.16,1
66.00,67.92,1
41.00,69.11,1
72.00,69.53,1
58.00,69.57,1
150.00,70.09,1
84.00,71.85,1
66.00,73.99,1
66.00,75.50,1
56.00,76.24,1
105.00,76.62,1
42.00,76.93,1
38.00,76.47,1
58.00,75.05,1
65.00,73.30,1
38.00,71.42,1
65.00,69.32,1
79.00,67.47,1
49.00,66.09,1
47.00,64.70,1
51.00,63.11,1
44.00,61.41,1
48.00,59.63,1
42.00,57.81,1
104.00,56.46,1
100.00,56.48,1
51.00,57.56,1
74.00,58.76,1
62.00,59.89,1
52.00,60.84,1
42.00,61.26,1
71.00,61.26,1
170.00,62.17,1
72.00,64.81,1
63.00,67.80,1
49.00,69.87,1
62.00,70.97,1
56.00,71.34,1
36.00,71.01,1
60.00,69.95,1
38.00,68.43,1
38.00,66.45,1
44.00,64.05,1
76.00,61.78,1
164.00,60.99,1
51.00,62.15,1
72.00,63.78,1
62.00,65.02,1
50.00,65.86,1
89.00,66.38,1
63.00,66.99,1
72.00,67.62,1
67.00,68.12,1
45.00,68.33,1
51.00,67.94,1
60.00,67.10,1
70.00,66.24,1
39.00,65.37,1
94.00,64.55,1
48.00,64.06,1
42.00,63.49,1
82.00,62.73,1
85.00,62.48,1
44.00,62.68,1
127.00,63.24,1
63.00,64.57,1
162.00,66.88,1
109.00,70.53,1
114.00,75.05,1
71.00,79.38,1
91.00,82.92,1
45.00,85.32,1
87.00,86.55,1
152.00,87.68,1
59.00,89.37,1
52.00,90.35,1
41.00,89.77,1
98.00,88.28,1
71.00,86.77,1
59.00,85.22,1
43.00,83.13,1
45.00,80.36,1
104.00,77.56,1
51.00,75.37,1
162.00,74.27,1
58.00,74.56,1
99.00,75.44,1
43.00,76.09,1
70.00,76.16,1
50.00,75.62,1
77.00,74.75,1
127.00,74.36,1
54.00,74.79,1
47.00,74.98,1
86.00,74.57,1
145.00,74.80,1
38.00,75.95,1
36.00,76.43,1
52.00,75.60,1
41.00,73.97,1
64.00,71.91,1
56.00,69.83,1
66.00,67.94,1
114.00,66.77,1
41.00,66.44,1
81.00,66.28,1
64.00,66.18,1
80.00,66.30,1
57.00,66.53,1
56.00,66.57,1
168.00,67.18,1
68.00,69.24,1
48.00,71.43,1
82.00,72.76,1
70.00,73.70,1
48.00,74.21,1
38.00,73.83,1
81.00,72.79,1
129.00,72.32,1
44.00,72.75,1
83.00,73.14,1
63.00,73.28,1
36.00,72.98,1
151.00,72.71,1
98.00,73.70,1
36.00,75.19,1
55.00,75.70,1
102.00,75.63,1
73.00,75.82,1
61.00,76.01,1
92.00,76.02,1
60.00,76.03,1
47.00,75.66,1
99.00,74.97,1
84.00,74.68,1
61.00,74.71,1
83.00,74.64,1
75.00,74.63,1
90.00,74.82,1
252.00,76.68,1
62.00,80.97,1
94.00,85.44,1
71.00,88.67,1
72.00,90.73,1
72.00,91.66,1
115.00,92.08,1
40.00,92.17,1
65.00,91.34,1
109.00,89.99,1
107.00,89.22,1
76.00,88.98,1
94.00,88.77,1
50.00,88.28,1
116.00,87.55,1
41.00,86.76,1
67.00,85.49,1
47.00,83.52,1
71.00,81.17,1
50.00,78.68,1
55.00,76.06,1
102.00,73.72,1
73.00,72.24,1
50.00,71.20,1
52.00,69.91,1
68.00,68.46,1
45.00,67.02,1
87.00,65.73,1
66.00,64.94,1
77.00,64.64,1
38.00,64.40,1
72.00,63.96,1
83.00,63.69,1
51.00,63.78,1
128.00,64.32,1
87.00,65.87,1
48.00,67.76,1
74.00,69.08,1
96.00,70.22,1
130.00,72.03,1
40.00,74.31,1
90.00,76.06,1
48.00,77.09,1
95.00,77.65,1
50.00,77.88,1
59.00,77.59,1
69.00,76.75,1
68.00,75.77,1
64.00,74.74,1
68.00,73.67,1
117.00,73.04,1
107.00,73.52,1
38.00,74.51,1
67.00,74.86,1
44.00,74.44,1
60.00,73.43,1
90.00,72.34,1
113.00,72.03,1
59.00,72.52,1
98.00,73.21,1
71.00,74.01,1
76.00,74.79,1
57.00,75.21,1
42.00,74.96,1
56.00,73.91,1
43.00,72.30,1
54.00,70.29,1
82.00,68.37,1
40.00,66.79,1
39.00,65.03,1
55.00,62.98,1
45.00,60.93,1
112.00,59.49,1
103.00,59.52,1
64.00,60.73,1
39.00,61.88,1
62.00,62.39,1
40.00,62.39,1
77.00,62.13,1
36.00,61.78,1
61.00,61.21,1
55.00,60.51,1
72.00,59.98,1
90.00,59.99,1
81.00,60.78,1
40.00,61.79,1
63.00,62.36,1
54.00,62.55,1
68.00,62.60,1
43.00,62.49,1
53.00,62.05,1
80.00,61.56,1
47.00,61.30,1
98.00,61.32,1
53.00,61.76,1
54.00,62.19,1
44.00,62.15,1
61.00,61.74,1
36.00,61.05,1
69.00,60.18,1
38.00,59.28,1
41.00,58.17,1
89.00,57.14,1
40.00,56.60,1
43.00,56.07,1
71.00,55.44,1
42.00,55.01,1
43.00,54.50,1
82.00,54.05,1
40.00,53.96,1
48.00,53.84,1
65.00,53.64,1
86.00,53.89,1
101.00,55.10,1
41.00,56.92,1
41.00,58.27,1
40.00,58.72,1
74.00,58.73,1
67.00,58.91,1
64.00,59.35,1
54.00,59.77,1
44.00,59.90,1
103.00,60.05,1
50.00,60.65,1
88.00,61.51,1
58.00,62.48,1
75.00,63.46,1
42.00,64.17,1
87.00,64.61,1
131.00,65.69,1
43.00,67.58,1
69.00,69.14,1
78.00,70.19,1
70.00,71.10,1
42.00,71.58,1
37.00,71.16,1
69.00,70.02,1
47.00,68.67,1
63.00,67.24,1
128.00,66.42,1
42.00,66.58,1
91.00,67.01,1
95.00,67.76,1
92.00,69.16,1
54.00,70.71,1
48.00,71.59,1
77.00,71.76,1
77.00,71.83,1
92.00,72.17,1
35.00,72.50,1
67.00,72.23,1
85.00,71.74,1
48.00,71.34,1
54.00,70.63,1
95.00,69.83,1
46.00,69.31,1
46.00,68.55,1
67.00,67.39,1
46.00,66.16,1
52.00,64.77,1
38.00,63.13,1
42.00,61.19,1
117.00,59.68,1
57.00,59.32,1
69.00,59.56,1
55.00,59.84,1
42.00,59.90,1
58.00,59.59,1
45.00,59.07,1
41.00,58.28,1
106.00,57.68,1
99.00,58.23,1
59.00,59.72,1
64.00,61.21,1
60.00,62.35,1
86.00,63.39,1
94.00,64.78,1
49.00,66.37,1
163.00,68.32,1
44.00,71.01,1
102.00,73.64,1
66.00,75.79,1
43.00,77.21,1
58.00,77.45,1
52.00,76.82,1
43.00,75.49,1
138.00,74.26,1
46.00,73.89,1
67.00,73.63,1
66.00,73.02,1
40.00,72.12,1
39.00,70.57,1
58.00,68.51,1
44.00,66.33,1
52.00,64.11,1
39.00,61.84,1
80.00,59.80,1
81.00,58.60,1
86.00,58.46,1
69.00,59.09,1
123.00,60.47,1
45.00,62.52,1
112.00,64.69,1
51.00,66.85,1
69.00,68.62,1
93.00,70.02,1
73.00,71.49,1
45.00,72.59,1
68.00,72.93,1
106.00,73.15,1
32.00,73.48,1
112.00,73.63,1
37.00,73.73,1
73.00,73.50,1
44.00,72.77,1
65.00,71.68,1
78.00,70.56,1
38.00,69.51,1
41.00,68.03,1
67.00,66.20,1
47.00,64.45,1
40.00,62.65,1
61.00,60.77,1
42.00,59.01,1
44.00,57.29,1
59.00,55.64,1
104.00,54.76,1
70.00,55.07,1
93.00,56.26,1
107.00,58.32,1
77.00,61.13,1
94.00,64.19,1
70.00,67.16,1
62.00,69.64,1
123.00,71.85,1
43.00,74.05,1
109.00,75.91,1
53.00,77.40,1
59.00,78.24,1
48.00,78.11,1
76.00,77.33,1
51.00,76.26,1
68.00,74.96,1
34.00,73.32,1
100.00,71.60,1
58.00,70.34,1
44.00,69.20,1
49.00,67.66,1
44.00,65.78,1
52.00,63.74,1
67.00,61.86,1
57.00,60.40,1
46.00,59.16,1
63.00,58.02,1
78.00,57.30,1
84.00,57.37,1
60.00,58.05,1
79.00,59.00,1
72.00,60.16,1
57.00,61.36,1
55.00,62.24,1
46.00,62.61,1
68.00,62.59,1
62.00,62.53,1
60.00,62.49,1
86.00,62.62,1
37.00,62.87,1
73.00,62.90,1
65.00,62.90,1
81.00,63.17,1
42.00,63.51,1
42.00,63.38,1
43.00,62.58,1
58.00,61.43,1
42.00,60.19,1
51.00,58.85,1
80.00,57.74,1
76.00,57.36,1
149.00,58.33,1
102.00,61.10,1
53.00,64.55,1
97.00,67.56,1
80.00,70.32,1
76.00,72.85,1
63.00,74.79,1
79.00,76.11,1
47.00,76.81,1
130.00,77.31,1
62.00,78.18,1
116.00,79.32,1
59.00,80.48,1
101.00,81.48,1
44.00,82.05,1
36.00,81.64,1
75.00,80.19,1
39.00,78.29,1
34.00,75.80,1
37.00,72.57,1
50.00,69.02,1
63.00,65.69,1
68.00,63.01,1
40.00,60.87,1
62.00,58.96,1
70.00,57.50,1
78.00,56.80,1
42.00,56.61,1
55.00,56.38,1
78.00,56.25,1
49.00,56.44,1
46.00,56.55,1
72.00,56.53,1
66.00,56.76,1
79.00,57.40,1
42.00,58.19,1
97.00,59.02,1
127.00,60.70,1
46.00,63.27,1
83.00,65.63,1
166.00,68.38,1
106.00,72.54,1
104.00,77.29,1
102.00,81.79,1
42.00,85.39,1
101.00,87.67,1
61.00,89.02,1
73.00,89.54,1
45.00,89.05,1
169.00,88.48,1
55.00,88.76,1
77.00,88.97,1
40.00,88.26,1
56.00,86.54,1
41.00,83.97,1
39.00,80.71,1
41.00,76.87,1
47.00,72.80,1
42.00,68.76,1
49.00,64.91,1
