127.00,108.63,1
200.00,106.90,1
151.00,107.66,1
82.00,109.51,1
50.00,110.30,1
215.00,110.53,1
66.00,111.57,1
90.00,112.28,1
91.00,111.89,1
190.00,111.72,1
245.00,113.85,1
131.00,118.39,1
84.00,122.81,1
40.00,124.89,1
61.00,124.19,1
129.00,121.95,1
82.00,119.52,1
55.00,116.60,1
117.00,113.08,1
101.00,109.89,1
122.00,107.49,1
98.00,105.77,1
240.00,105.58,1
54.00,107.19,1
94.00,108.52,1
60.00,108.44,1
139.00,107.70,1
41.00,106.71,1
59.00,104.74,1
64.00,101.59,1
69.00,97.95,1
84.00,94.32,1
118.00,91.37,1
118.00,89.74,1
35.00,88.75,1
45.00,86.97,1
240.00,85.77,1
202.00,88.02,1
269.00,94.40,1
94.00,103.05,1
71.00,110.58,1
515.00,118.85,1
186.00,131.92,1
109.00,145.73,1
90.00,155.49,1
246.00,162.19,1
193.00,168.32,1
48.00,173.03,1
50.00,173.72,1
58.00,170.20,1
75.00,163.88,1
60.00,155.88,1
65.00,146.77,1
80.00,137.22,1
42.00,127.63,1
67.00,118.02,1
222.00,110.11,1
190.00,106.26,1
57.00,105.25,1
58.00,103.99,1
127.00,102.07,1
180.00,101.30,1
214.00,103.21,1
98.00,107.09,1
340.00,112.69,1
299.00,122.20,1
37.00,133.45,1
64.00,141.21,1
63.00,144.25,1
102.00,144.20,1
193.00,143.20,1
170.00,143.15,1
153.00,144.05,1
114.00,144.85,1
128.00,144.86,1
58.00,143.62,1
47.00,140.33,1
64.00,134.95,1
79.00,128.50,1
47.00,121.55,1
468.00,117.56,1
95.00,119.58,1
94.00,123.37,1
96.00,125.30,1
60.00,125.47,1
77.00,123.86,1
82.00,120.99,1
121.00,117.80,1
63.00,114.67,1
64.00,111.08,1
127.00,107.30,1
42.00,103.86,1
93.00,100.32,1
38.00,96.51,1
65.00,92.35,1
43.00,87.87,1
118.00,83.79,1
119.00,81.22,1
97.00,80.33,1
66.00,80.13,1
50.00,79.63,1
83.00,78.68,1
62.00,77.64,1
52.00,76.42,1
102.00,75.19,1
157.00,75.17,1
82.00,76.83,1
51.00,78.62,1
48.00,79.29,1
163.00,79.74,1
62.00,81.05,1
158.00,83.05,1
117.00,85.94,1
171.00,89.94,1
45.00,94.17,1
100.00,97.24,1
137.00,99.52,1
244.00,103.08,1
161.00,108.92,1
60.00,114.94,1
57.00,118.50,1
164.00,120.07,1
34.00,120.75,1
74.00,119.80,1
64.00,117.13,1
60.00,113.38,1
96.00,109.10,1
92.00,105.08,1
116.00,101.82,1
42.00,99.00,1
97.00,96.04,1
118.00,93.54,1
101.00,92.15,1
156.00,91.98,1
152.00,93.48,1
66.00,95.87,1
40.00,97.20,1
56.00,96.64,1
52.00,94.70,1
57.00,91.88,1
52.00,88.49,1
80.00,84.98,1
76.00,81.88,1
108.00,79.64,1
94.00,78.49,1
64.00,78.00,1
37.00,77.19,1
40.00,75.49,1
164.00,74.02,1
40.00,73.83,1
39.00,73.58,1
57.00,72.41,1
82.00,71.07,1
72.00,70.13,1
103.00,69.81,1
82.00,70.25,1
87.00,71.19,1
43.00,72.03,1
47.00,72.09,1
353.00,73.82,1
130.00,79.99,1
45.00,87.48,1
78.00,92.75,1
141.00,96.51,1
115.00,100.10,1
151.00,103.83,1
70.00,107.26,1
48.00,109.12,1
93.00,109.05,1
277.00,109.63,1
44.00,112.16,1
328.00,116.09,1
309.00,123.59,1
298.00,135.53,1
100.00,148.46,1
98.00,158.31,1
104.00,163.84,1
136.00,166.28,1
77.00,166.38,1
104.00,164.17,1
51.00,159.83,1
101.00,153.76,1
105.00,147.02,1
102.00,140.44,1
74.00,133.95,1
74.00,127.28,1
70.00,120.42,1
62.00,113.49,1
42.00,106.43,1
192.00,100.34,1
62.00,96.43,1
95.00,93.66,1
85.00,91.25,1
65.00,89.12,1
131.00,87.42,1
205.00,87.67,1
116.00,90.38,1
42.00,93.42,1
36.00,94.59,1
54.00,93.72,1
38.00,91.46,1
263.00,89.96,1
116.00,91.53,1
104.00,94.63,1
105.00,97.41,1
50.00,99.30,1
98.00,99.96,1
138.00,100.32,1
42.00,100.72,1
71.00,100.11,1
103.00,98.71,1
44.00,97.02,1
165.00,95.48,1
47.00,94.63,1
114.00,93.94,1
66.00,93.13,1
104.00,92.33,1
82.00,91.61,1
50.00,90.66,1
107.00,89.32,1
68.00,88.10,1
49.00,86.67,1
52.00,84.51,1
60.00,81.85,1
49.00,78.93,1
95.00,76.20,1
55.00,74.03,1
94.00,72.41,1
61.00,71.30,1
141.00,71.05,1
47.00,71.74,1
71.00,72.43,1
154.00,73.39,1
86.00,75.56,1
92.00,78.16,1
148.00,81.02,1
99.00,84.54,1
63.00,87.81,1
44.00,89.62,1
61.00,89.77,1
48.00,88.67,1
125.00,87.24,1
58.00,86.21,1
145.00,85.77,1
109.00,86.39,1
61.00,87.50,1
46.00,87.74,1
120.00,87.27,1
84.00,87.09,1
94.00,87.23,1
80.00,87.37,1
52.00,87.11,1
89.00,86.28,1
87.00,85.42,1
109.00,85.01,1
34.00,84.69,1
59.00,83.60,1
88.00,82.00,1
91.00,80.76,1
58.00,79.86,1
138.00,79.39,1
56.00,79.63,1
41.00,79.58,1
61.00,78.56,1
87.00,77.25,1
232.00,77.59,1
118.00,80.80,1
222.00,86.26,1
49.00,92.64,1
204.00,98.74,1
64.00,104.43,1
92.00,108.80,1
48.00,110.96,1
46.00,110.89,1
53.00,108.77,1
42.00,105.15,1
46.00,100.44,1
37.00,94.94,1
100.00,89.43,1
84.00,84.94,1
66.00,81.48,1
123.00,78.96,1
36.00,77.32,1
44.00,75.49,1
63.00,73.15,1
39.00,70.67,1
44.00,67.98,1
78.00,65.38,1
42.00,63.25,1
117.00,61.84,1
68.00,61.57,1
161.00,62.78,1
98.00,65.66,1
81.00,69.31,1
180.00,73.45,1
160.00,79.13,1
103.00,85.82,1
83.00,91.79,1
46.00,95.88,1
150.00,98.50,1
53.00,100.53,1
145.00,102.07,1
220.00,104.50,1
61.00,108.23,1
142.00,111.48,1
97.00,113.92,1
43.00,115.14,1
57.00,114.22,1
49.00,111.46,1
57.00,107.43,1
37.00,102.45,1
175.00,97.80,1
60.00,94.74,1
91.00,92.49,1
59.00,90.20,1
55.00,87.65,1
73.00,84.81,1
71.00,82.09,1
156.00,80.39,1
141.00,80.78,1
158.00,83.35,1
39.00,86.65,1
74.00,88.84,1
94.00,89.89,1
50.00,90.29,1
113.00,90.15,1
111.00,90.25,1
194.00,91.73,1
81.00,94.64,1
86.00,97.37,1
115.00,99.28,1
46.00,100.44,1
40.00,100.01,1
38.00,97.74,1
54.00,94.19,1
84.00,90.27,1
131.00,87.22,1
44.00,85.24,1
92.00,83.50,1
72.00,81.89,1
91.00,80.66,1
47.00,79.55,1
40.00,77.93,1
64.00,75.70,1
85.00,73.60,1
107.00,72.39,1
48.00,71.94,1
212.00,72.65,1
54.00,75.15,1
89.00,77.96,1
47.00,79.81,1
61.00,80.60,1
65.00,80.46,1
169.00,80.68,1
65.00,82.05,1
69.00,83.42,1
112.00,84.31,1
46.00,85.00,1
117.00,85.36,1
45.00,85.51,1
152.00,85.75,1
68.00,86.56,1
111.00,87.61,1
123.00,88.93,1
80.00,90.61,1
41.00,91.56,1
257.00,92.73,1
125.00,96.21,1
85.00,100.57,1
67.00,103.55,1
118.00,105.17,1
132.00,106.53,1
44.00,107.55,1
183.00,108.10,1
122.00,109.36,1
65.00,110.76,1
114.00,111.19,1
174.00,111.69,1
126.00,113.25,1
90.00,114.95,1
96.00,115.77,1
192.00,116.47,1
128.00,118.19,1
140.00,120.46,1
127.00,122.62,1
74.00,124.07,1
108.00,124.24,1
36.00,122.94,1
59.00,119.86,1
66.00,115.35,1
58.00,110.16,1
55.00,104.53,1
124.00,99.21,1
87.00,95.12,1
222.00,93.15,1
74.00,93.59,1
115.00,94.84,1
58.00,95.66,1
65.00,95.55,1
156.00,95.15,1
44.00,95.19,1
76.00,94.71,1
76.00,93.45,1
48.00,91.68,1
59.00,89.21,1
239.00,87.73,1
99.00,88.98,1
45.00,90.98,1
218.00,92.85,1
134.00,96.32,1
127.00,100.84,1
38.00,104.46,1
65.00,105.95,1
126.00,106.02,1
67.00,105.73,1
41.00,104.49,1
459.00,105.12,1
120.00,111.07,1
69.00,118.29,1
89.00,122.74,1
56.00,124.57,1
82.00,124.16,1
44.00,121.93,1
112.00,118.52,1
68.00,114.80,1
41.00,110.54,1
175.00,106.33,1
98.00,103.66,1
164.00,102.63,1
194.00,103.59,1
70.00,106.03,1
37.00,107.44,1
147.00,107.36,1
204.00,108.17,1
173.00,111.24,1
256.00,116.57,1
96.00,123.21,1
103.00,128.74,1
57.00,131.63,1
70.00,131.84,1
47.00,129.66,1
294.00,127.49,1
282.00,129.20,1
284.00,135.67,1
55.00,143.59,1
306.00,150.65,1
43.00,156.90,1
116.00,160.66,1
44.00,160.82,1
46.00,157.68,1
65.00,151.74,1
58.00,144.10,1
53.00,135.44,1
66.00,126.28,1
37.00,116.95,1
66.00,107.69,1
72.00,99.09,1
66.00,91.56,1
64.00,85.02,1
131.00,79.93,1
150.00,77.36,1
200.00,78.05,1
53.00,80.99,1
193.00,84.67,1
51.00,88.72,1
121.00,92.30,1
206.00,96.09,1
88.00,100.95,1
102.00,105.30,1
86.00,108.25,1
38.00,109.49,1
46.00,108.51,1
76.00,105.88,1
77.00,102.66,1
127.00,99.76,1
134.00,98.10,1
150.00,98.12,1
92.00,99.24,1
58.00,100.05,1
66.00,99.63,1
56.00,98.04,1
120.00,96.05,1
88.00,94.54,1
107.00,93.60,1
58.00,92.77,1
65.00,91.44,1
86.00,89.67,1
64.00,87.85,1
39.00,85.65,1
68.00,82.88,1
43.00,79.83,1
76.00,76.77,1
171.00,74.93,1
66.00,75.09,1
83.00,75.91,1
84.00,76.64,1
181.00,78.25,1
99.00,81.38,1
63.00,84.72,1
122.00,87.33,1
51.00,89.38,1
63.00,90.36,1
93.00,90.34,1
77.00,90.03,1
118.00,89.84,1
106.00,90.18,1
101.00,91.03,1
84.00,91.91,1
103.00,92.61,1
59.00,92.96,1
38.00,92.28,1
48.00,90.22,1
89.00,87.50,1
109.00,85.31,1
124.00,84.39,1
38.00,84.17,1
160.00,84.20,1
129.00,85.47,1
88.00,87.81,1
106.00,90.09,1
46.00,91.70,1
63.00,92.03,1
51.00,91.08,1
148.00,89.93,1
164.00,90.33,1
101.00,92.42,1
94.00,94.77,1
191.00,97.39,1
39.00,100.42,1
78.00,102.28,1
49.00,102.30,1
71.00,100.97,1
65.00,98.74,1
83.00,96.13,1
76.00,93.50,1
44.00,90.71,1
135.00,88.07,1
155.00,87.05,1
86.00,87.80,1
127.00,89.22,1
58.00,90.65,1
125.00,91.77,1
114.00,93.09,1
80.00,94.59,1
49.00,95.27,1
130.00,95.18,1
147.00,95.74,1
165.00,97.88,1
77.00,100.85,1
41.00,102.73,1
47.00,102.46,1
60.00,100.47,1
94.00,97.79,1
156.00,95.86,1
38.00,94.89,1
142.00,94.11,1
43.00,93.42,1
38.00,92.00,1
42.00,89.20,1
70.00,85.71,1
58.00,82.20,1
50.00,78.76,1
140.00,76.01,1
87.00,74.86,1
274.00,76.35,1
71.00,80.78,1
45.00,85.29,1
171.00,88.64,1
159.00,92.76,1
83.00,97.58,1
37.00,101.01,1
76.00,102.20,1
75.00,101.89,1
127.00,101.21,1
60.00,100.56,1
126.00,99.82,1
117.00,99.52,1
44.00,99.34,1
99.00,98.42,1
61.00,96.97,1
65.00,95.02,1
110.00,92.88,1
113.00,91.48,1
69.00,90.74,1
83.00,89.94,1
52.00,88.72,1
140.00,87.56,1
74.00,87.15,1
95.00,87.12,1
87.00,87.12,1
87.00,87.18,1
59.00,86.99,1
153.00,86.93,1
81.00,87.70,1
45.00,88.36,1
148.00,88.57,1
54.00,89.06,1
69.00,89.18,1
40.00,88.22,1
44.00,86.17,1
102.00,83.66,1
123.00,82.06,1
92.00,81.76,1
92.00,82.13,1
50.00,82.40,1
197.00,83.09,1
117.00,85.52,1
174.00,89.55,1
37.00,93.81,1
44.00,96.35,1
85.00,96.83,1
113.00,96.68,1
139.00,97.10,1
127.00,98.50,1
58.00,100.04,1
74.00,100.52,1
71.00,99.85,1
49.00,98.22,1
106.00,96.00,1
37.00,93.60,1
48.00,90.56,1
250.00,88.42,1
38.00,88.72,1
63.00,89.24,1
129.00,89.10,1
77.00,89.34,1
94.00,89.69,1
58.00,89.66,1
130.00,89.48,1
92.00,89.77,1
86.00,90.34,1
53.00,90.40,1
64.00,89.57,1
86.00,88.18,1
118.00,87.13,1
117.00,87.09,1
45.00,87.46,1
70.00,87.14,1
37.00,85.84,1
86.00,83.90,1
103.00,82.23,1
89.00,81.39,1
47.00,80.78,1
44.00,79.52,1
43.00,77.40,1
96.00,75.09,1
125.00,73.84,1
78.00,73.96,1
68.00,74.50,1
40.00,74.53,1
102.00,74.16,1
120.00,74.43,1
97.00,75.82,1
112.00,77.88,1
63.00,80.05,1
67.00,81.57,1
142.00,82.83,1
48.00,84.35,1
232.00,86.61,1
110.00,90.60,1
61.00,94.88,1
43.00,97.28,1
61.00,97.58,1
53.00,96.38,1
138.00,94.81,1
199.00,94.85,1
60.00,96.68,1
165.00,98.89,1
69.00,101.09,1
43.00,102.27,1
120.00,102.06,1
98.00,101.67,1
64.00,101.15,1
77.00,99.92,1
134.00,98.59,1
95.00,97.96,1
84.00,97.62,1
36.00,96.60,1
116.00,94.88,1
62.00,93.16,1
85.00,91.46,1
60.00,89.55,1
52.00,87.26,1
42.00,84.33,1
74.00,81.04,1
97.00,78.23,1
56.00,76.19,1
90.00,74.59,1
142.00,74.04,1
46.00,74.65,1
114.00,75.53,1
60.00,76.45,1
51.00,76.99,1
70.00,76.77,1
41.00,75.98,1
57.00,74.59,1
69.00,72.92,1
39.00,71.18,1
62.00,69.22,1
43.00,67.15,1
127.00,65.63,1
43.00,65.13,1
59.00,64.84,1
120.00,64.80,1
93.00,65.88,1
73.00,67.67,1
39.00,69.09,1
86.00,69.83,1
82.00,70.51,1
97.00,71.57,1
50.00,72.71,1
90.00,73.54,1
87.00,74.36,1
56.00,75.17,1
61.00,75.44,1
138.00,75.77,1
61.00,76.82,1
70.00,77.80,1
61.00,78.14,1
95.00,78.18,1
111.00,78.61,1
71.00,79.56,1
48.00,80.13,1
65.00,79.82,1
56.00,78.88,1
61.00,77.51,1
132.00,76.48,1
48.00,76.25,1
61.00,75.95,1
72.00,75.20,1
44.00,74.20,1
71.00,72.89,1
83.00,71.71,1
50.00,70.82,1
65.00,69.84,1
47.00,68.67,1
116.00,67.78,1
162.00,68.50,1
54.00,70.90,1
102.00,73.46,1
36.00,75.40,1
139.00,76.97,1
153.00,79.48,1
104.00,83.31,1
86.00,87.17,1
104.00,90.36,1
126.00,93.27,1
42.00,95.68,1
43.00,96.44,1
73.00,95.48,1
111.00,94.06,1
49.00,92.71,1
68.00,90.92,1
44.00,88.43,1
74.00,85.51,1
76.00,82.68,1
100.00,80.49,1
129.00,79.53,1
43.00,79.49,1
71.00,79.19,1
44.00,78.22,1
52.00,76.64,1
92.00,74.89,1
68.00,73.60,1
107.00,72.96,1
58.00,72.87,1
68.00,72.80,1
101.00,72.77,1
40.00,72.91,1
122.00,73.11,1
42.00,73.55,1
128.00,74.20,1
98.00,75.53,1
79.00,77.37,1
73.00,78.94,1
95.00,80.16,1
42.00,80.96,1
95.00,81.15,1
160.00,81.86,1
38.00,83.46,1
54.00,84.31,1
69.00,83.93,1
215.00,84.24,1
39.00,86.14,1
35.00,87.45,1
92.00,87.22,1
123.00,86.98,1
40.00,87.05,1
120.00,86.90,1
69.00,86.79,1
39.00,86.29,1
51.00,84.68,1
126.00,82.86,1
64.00,81.78,1
82.00,81.03,1
98.00,80.48,1
60.00,80.19,1
108.00,80.01,1
98.00,80.33,1
62.00,80.94,1
127.00,81.62,1
72.00,82.64,1
71.00,83.52,1
44.00,83.55,1
54.00,82.57,1
134.00,81.46,1
162.00,81.94,1
41.00,83.75,1
52.00,84.80,1
194.00,85.59,1
191.00,88.63,1
70.00,93.38,1
77.00,97.27,1
46.00,99.22,1
154.00,100.08,1
99.00,101.18,1
41.00,101.91,1
186.00,102.13,1
70.00,102.93,1
81.00,103.49,1
102.00,103.25,1
88.00,102.73,1
63.00,101.76,1
39.00,99.73,1
72.00,96.64,1
52.00,93.02,1
66.00,89.19,1
51.00,85.26,1
104.00,81.71,1
106.00,79.33,1
106.00,78.41,1
90.00,78.50,1
92.00,79.10,1
86.00,79.92,1
117.00,81.05,1
67.00,82.43,1
107.00,83.71,1
64.00,84.77,1
65.00,85.24,1
75.00,85.00,1
100.00,84.61,1
172.00,85.21,1
76.00,87.18,1
57.00,88.93,1
88.00,89.63,1
62.00,89.62,1
46.00,88.78,1
127.00,87.53,1
49.00,86.57,1
168.00,86.23,1
64.00,86.84,1
44.00,87.24,1
73.00,86.51,1
103.00,85.51,1
115.00,85.19,1
58.00,85.36,1
130.00,85.66,1
81.00,86.35,1
46.00,86.82,1
64.00,86.26,1
202.00,86.10,1
42.00,87.35,1
105.00,88.65,1
62.00,89.29,1
58.00,89.20,1
49.00,88.05,1
50.00,85.97,1
112.00,83.70,1
108.00,82.37,1
53.00,81.79,1
98.00,81.22,1
52.00,80.59,1
140.00,80.27,1
65.00,80.67,1
88.00,81.26,1
61.00,81.52,1
217.00,82.56,1
50.00,85.15,1
62.00,87.43,1
103.00,88.56,1
56.00,89.16,1
88.00,89.18,1
37.00,88.46,1
127.00,87.37,1
54.00,86.50,1
44.00,85.29,1
107.00,83.60,1
58.00,82.16,1
164.00,81.55,1
55.00,82.04,1
120.00,82.95,1
81.00,84.01,1
86.00,85.08,1
111.00,86.08,1
45.00,86.92,1
72.00,86.94,1
226.00,87.52,1
40.00,89.74,1
118.00,91.96,1
116.00,93.84,1
100.00,95.90,1
157.00,98.20,1
72.00,100.73,1
51.00,102.23,1
98.00,102.23,1
72.00,101.48,1
64.00,100.08,1
56.00,97.82,1
66.00,94.85,1
58.00,91.49,1
127.00,88.46,1
190.00,87.39,1
150.00,89.14,1
95.00,92.37,1
49.00,94.98,1
93.00,96.18,1
61.00,96.35,1
41.00,95.41,1
39.00,93.04,1
187.00,90.69,1
46.00,89.69,1
64.00,88.80,1
73.00,87.23,1
76.00,85.52,1
230.00,85.15,1
91.00,87.24,1
122.00,90.35,1
110.00,93.41,1
128.00,96.53,1
40.00,99.07,1
64.00,99.96,1
84.00,99.41,1
45.00,97.99,1
104.00,95.96,1
49.00,93.75,1
45.00,91.00,1
86.00,87.75,1
77.00,84.82,1
37.00,82.07,1
183.00,80.03,1
44.00,79.53,1
146.00,79.98,1
75.00,81.08,1
76.00,82.31,1
169.00,83.80,1
186.00,87.13,1
62.00,91.76,1
148.00,96.03,1
97.00,99.87,1
72.00,102.90,1
127.00,104.84,1
81.00,106.21,1
123.00,107.14,1
67.00,107.57,1
70.00,107.03,1
81.00,105.45,1
87.00,103.40,1
103.00,101.38,1
193.00,100.51,1
59.00,101.06,1
132.00,101.81,1
86.00,102.38,1
97.00,102.75,1
46.00,102.33,1
155.00,101.46,1
43.00,100.75,1
82.00,99.54,1
103.00,97.89,1
62.00,96.29,1
54.00,94.20,1
48.00,91.30,1
96.00,88.11,1
64.00,85.29,1
79.00,82.83,1
84.00,80.75,1
75.00,79.16,1
66.00,77.81,1
130.00,77.00,1
61.00,77.05,1
138.00,77.77,1
74.00,79.14,1
45.00,80.31,1
73.00,80.48,1
125.00,80.56,1
60.00,81.13,1
58.00,81.38,1
39.00,80.65,1
58.00,79.03,1
70.00,77.04,1
44.00,74.98,1
43.00,72.60,1
117.00,70.43,1
42.00,69.10,1
164.00,68.82,1
235.00,71.33,1
40.00,76.48,1
61.00,80.97,1
87.00,83.76,1
93.00,85.82,1
67.00,87.35,1
199.00,89.16,1
104.00,92.31,1
84.00,95.71,1
59.00,97.87,1
63.00,98.45,1
91.00,97.91,1
44.00,96.65,1
59.00,94.46,1
120.00,92.00,1
47.00,89.95,1
74.00,87.80,1
131.00,85.95,1
131.00,85.58,1
64.00,86.24,1
110.00,86.94,1
73.00,87.55,1
205.00,88.92,1
109.00,91.95,1
43.00,95.06,1
165.00,97.27,1
80.00,99.47,1
51.00,100.96,1
60.00,100.75,1
91.00,99.42,1
108.00,98.01,1
75.00,96.86,1
59.00,95.40,1
50.00,93.13,1
93.00,90.41,1
98.00,88.11,1
116.00,86.80,1
62.00,86.18,1
76.00,85.47,1
94.00,84.65,1
49.00,83.81,1
90.00,82.74,1
95.00,81.86,1
208.00,82.55,1
41.00,84.91,1
115.00,87.25,1
153.00,89.64,1
81.00,92.66,1
128.00,95.55,1
208.00,99.10,1
71.00,103.62,1
167.00,107.90,1
123.00,111.95,1
67.00,115.30,1
91.00,116.90,1
149.00,117.54,1
50.00,117.76,1
62.00,116.60,1
59.00,113.79,1
81.00,110.04,1
108.00,106.26,1
94.00,103.12,1
138.00,100.91,1
81.00,99.63,1
91.00,98.59,1
85.00,97.42,1
75.00,96.08,1
74.00,94.44,1
143.00,93.10,1
109.00,92.89,1
204.00,94.34,1
49.00,97.00,1
94.00,99.09,1
127.00,100.42,1
42.00,101.32,1
94.00,101.18,1
98.00,100.43,1
61.00,99.44,1
219.00,99.02,1
59.00,100.05,1
60.00,100.81,1
58.00,100.01,1
68.00,98.09,1
48.00,95.38,1
59.00,92.02,1
123.00,88.80,1
69.00,86.51,1
98.00,84.88,1
118.00,84.01,1
69.00,83.89,1
102.00,83.99,1
229.00,85.45,1
74.00,88.97,1
99.00,92.64,1
76.00,95.24,1
77.00,96.76,1
200.00,98.28,1
88.00,100.87,1
73.00,103.21,1
54.00,103.96,1
71.00,103.17,1
162.00,102.11,1
161.00,102.53,1
135.00,104.58,1
43.00,106.59,1
170.00,107.83,1
127.00,109.43,1
144.00,111.73,1
115.00,114.17,1
72.00,115.93,1
47.00,115.95,1
75.00,114.12,1
36.00,110.87,1
57.00,106.40,1
44.00,101.09,1
121.00,95.91,1
59.00,91.66,1
82.00,88.05,1
38.00,84.55,1
112.00,81.33,1
99.00,79.18,1
157.00,78.79,1
250.00,81.39,1
247.00,88.24,1
59.00,97.17,1
114.00,104.70,1
127.00,110.39,1
143.00,115.29,1
62.00,119.12,1
56.00,120.76,1
129.00,120.51,1
62.00,119.44,1
184.00,118.30,1
44.00,117.44,1
236.00,117.10,1
36.00,117.54,1
50.00,116.93,1
105.00,114.59,1
152.00,112.42,1
80.00,111.10,1
57.00,109.46,1
53.00,106.64,1
61.00,102.82,1
266.00,100.17,1
113.00,100.69,1
97.00,102.63,1
150.00,104.49,1
131.00,106.81,1
50.00,108.86,1
58.00,109.19,1
144.00,108.40,1
108.00,107.96,1
172.00,108.46,1
195.00,110.60,1
118.00,114.20,1
49.00,117.12,1
137.00,118.38,1
69.00,118.66,1
87.00,117.95,1
60.00,116.01,1
85.00,113.11,1
95.00,109.85,1
68.00,106.57,1
56.00,102.92,1
93.00,98.99,1
88.00,95.46,1
39.00,92.16,1
166.00,89.35,1
36.00,87.64,1
78.00,86.05,1
84.00,84.27,1
136.00,83.30,1
84.00,83.46,1
54.00,83.78,1
169.00,84.24,1
93.00,85.83,1
97.00,87.95,1
58.00,89.49,1
82.00,90.14,1
112.00,90.41,1
54.00,90.60,1
51.00,89.98,1
68.00,88.37,1
77.00,86.41,1
43.00,84.25,1
87.00,81.88,1
212.00,80.93,1
176.00,83.25,1
107.00,87.82,1
38.00,91.93,1
68.00,94.08,1
152.00,95.29,1
132.00,97.23,1
73.00,99.53,1
104.00,101.15,1
93.00,102.13,1
80.00,102.55,1
115.00,102.51,1
126.00,102.70,1
138.00,103.62,1
162.00,105.58,1
54.00,107.84,1
106.00,109.11,1
127.00,109.70,1
44.00,109.87,1
95.00,108.91,1
131.00,107.60,1
80.00,106.65,1
206.00,106.53,1
56.00,107.45,1
116.00,108.18,1
62.00,108.05,1
62.00,106.86,1
175.00,105.39,1
127.00,105.26,1
141.00,106.42,1
60.00,107.67,1
66.00,107.75,1
102.00,106.66,1
50.00,104.95,1
148.00,103.07,1
142.00,102.28,1
49.00,102.27,1
118.00,101.84,1
62.00,101.01,1
74.00,99.65,1
142.00,98.23,1
83.00,97.56,1
201.00,98.02,1
143.00,100.35,1
72.00,103.42,1
82.00,105.40,1
88.00,106.08,1
44.00,105.60,1
96.00,103.98,1
143.00,102.45,1
47.00,101.45,1
54.00,99.73,1
119.00,97.38,1
62.00,95.30,1
182.00,94.10,1
114.00,94.54,1
286.00,97.51,1
118.00,103.22,1
57.00,108.93,1
108.00,112.49,1
90.00,114.46,1
44.00,114.91,1
134.00,114.03,1
70.00,112.75,1
88.00,111.03,1
100.00,108.91,1
69.00,106.65,1
98.00,104.18,1
138.00,102.18,1
53.00,100.82,1
119.00,99.45,1
89.00,98.27,1
114.00,97.51,1
60.00,96.83,1
131.00,96.13,1
88.00,95.81,1
127.00,95.98,1
44.00,96.13,1
62.00,95.35,1
97.00,93.79,1
61.00,92.12,1
104.00,90.48,1
90.00,89.21,1
80.00,88.30,1
60.00,87.26,1
83.00,85.92,1
54.00,84.37,1
93.00,82.75,1
152.00,82.03,1
88.00,82.81,1
44.00,83.73,1
68.00,83.68,1
64.00,82.89,1
66.00,81.70,1
52.00,80.15,1
115.00,78.67,1
172.00,78.72,1
110.00,80.85,1
64.00,83.57,1
118.00,85.82,1
127.00,88.22,1
178.00,91.67,1
55.00,95.73,1
66.00,98.57,1
103.00,99.86,1
88.00,100.50,1
127.00,101.02,1
84.00,101.60,1
77.00,101.75,1
87.00,101.19,1
127.00,100.54,1
55.00,99.99,1
152.00,99.49,1
177.00,100.25,1
96.00,102.51,1
103.00,104.74,1
41.00,105.80,1
58.00,105.09,1
56.00,102.83,1
93.00,99.89,1
54.00,96.80,1
66.00,93.46,1
114.00,90.31,1
67.00,87.91,1
127.00,86.29,1
57.00,85.33,1
95.00,84.55,1
56.00,83.67,1
93.00,82.71,1
94.00,82.03,1
171.00,82.54,1
210.00,85.55,1
180.00,91.40,1
57.00,98.02,1
89.00,102.96,1
68.00,105.81,1
79.00,106.99,1
36.00,106.49,1
44.00,104.21,1
160.00,101.37,1
42.00,99.23,1
68.00,96.89,1
120.00,94.38,1
71.00,92.48,1
151.00,91.40,1
80.00,91.31,1
57.00,91.26,1
76.00,90.43,1
74.00,89.15,1
78.00,87.73,1
69.00,86.22,1
105.00,84.87,1
69.00,83.92,1
98.00,83.24,1
67.00,82.72,1
59.00,81.99,1
46.00,80.63,1
95.00,78.96,1
69.00,77.61,1
103.00,76.79,1
89.00,76.64,1
104.00,77.18,1
84.00,78.19,1
54.00,79.06,1
192.00,80.28,1
37.00,82.49,1
103.00,84.49,1
138.00,86.36,1
68.00,88.63,1
182.00,91.19,1
92.00,94.46,1
123.00,97.87,1
45.00,100.39,1
43.00,101.08,1
46.00,99.71,1
68.00,97.05,1
83.00,93.99,1
45.00,90.86,1
62.00,87.43,1
54.00,83.76,1
119.00,80.59,1
127.00,78.98,1
52.00,78.69,1
162.00,79.11,1
98.00,80.75,1
56.00,82.75,1
161.00,84.60,1
135.00,87.46,1
72.00,90.91,1
54.00,93.27,1
51.00,93.90,1
109.00,93.45,1
38.00,92.55,1
42.00,90.69,1
48.00,87.66,1
132.00,84.68,1
47.00,82.60,1
43.00,80.50,1
48.00,77.74,1
67.00,74.77,1
53.00,71.98,1
65.00,69.45,1
95.00,67.53,1
61.00,66.45,1
45.00,65.60,1
63.00,64.56,1
78.00,63.69,1
77.00,63.38,1
45.00,63.34,1
44.00,62.95,1
69.00,62.25,1
169.00,62.56,1
71.00,64.68,1
68.00,67.31,1
115.00,69.74,1
139.00,72.90,1
98.00,76.95,1
49.00,80.66,1
65.00,82.97,1
76.00,84.06,1
73.00,84.51,1
60.00,84.39,1
44.00,83.45,1
86.00,81.91,1
49.00,80.23,1
83.00,78.50,1
90.00,77.11,1
84.00,76.37,1
53.00,75.86,1
109.00,75.43,1
76.00,75.48,1
52.00,75.61,1
73.00,75.29,1
58.00,74.68,1
66.00,73.86,1
56.00,72.82,1
220.00,72.93,1
66.00,75.26,1
69.00,78.02,1
109.00,80.12,1
96.00,82.24,1
85.00,84.31,1
109.00,86.20,1
141.00,88.46,1
58.00,90.96,1
69.00,92.55,1
91.00,93.06,1
117.00,93.41,1
96.00,94.06,1
163.00,95.36,1
48.00,97.08,1
202.00,98.99,1
133.00,102.03,1
87.00,105.54,1
116.00,108.22,1
112.00,110.24,1
55.00,111.38,1
127.00,111.45,1
55.00,110.83,1
77.00,109.29,1
80.00,106.88,1
146.00,104.69,1
50.00,103.05,1
82.00,101.11,1
108.00,98.96,1
92.00,97.28,1
85.00,95.90,1
88.00,94.57,1
54.00,93.04,1
71.00,91.00,1
166.00,89.43,1
133.00,89.73,1
126.00,91.62,1
51.00,93.63,1
62.00,94.45,1
128.00,94.45,1
107.00,94.84,1
88.00,95.55,1
69.00,95.84,1
58.00,95.24,1
200.00,94.81,1
45.00,95.51,1
86.00,96.00,1
65.00,95.52,1
125.00,94.82,1
74.00,94.37,1
45.00,93.53,1
124.00,92.18,1
61.00,91.04,1
101.00,90.02,1
46.00,88.83,1
44.00,86.95,1
50.00,84.15,1
86.00,81.14,1
74.00,78.61,1
88.00,76.76,1
124.00,75.91,1
65.00,76.07,1
156.00,77.08,1
180.00,79.92,1
90.00,84.45,1
144.00,89.28,1
75.00,93.74,1
66.00,97.01,1
66.00,98.52,1
79.00,98.70,1
38.00,97.73,1
49.00,95.43,1
94.00,92.42,1
67.00,89.59,1
61.00,86.86,1
67.00,84.03,1
48.00,81.10,1
107.00,78.43,1
122.00,76.98,1
133.00,77.35,1
66.00,78.82,1
134.00,80.63,1
38.00,82.42,1
77.00,83.42,1
100.00,83.84,1
67.00,84.22,1
52.00,84.10,1
134.00,83.74,1
87.00,84.06,1
203.00,85.76,1
80.00,88.97,1
68.00,92.03,1
40.00,93.44,1
37.00,92.95,1
50.00,90.85,1
56.00,87.85,1
37.00,84.31,1
34.00,80.18,1
43.00,75.62,1
82.00,71.32,1
82.00,68.09,1
35.00,65.71,1
112.00,63.91,1
94.00,63.36,1
105.00,64.21,1
73.00,65.84,1
54.00,67.43,1
56.00,68.36,1
75.00,68.80,1
89.00,69.30,1
60.00,69.98,1
66.00,70.45,1
51.00,70.49,1
72.00,70.17,1
156.00,70.51,1
41.00,71.96,1
127.00,73.70,1
39.00,75.34,1
176.00,77.25,1
133.00,80.52,1
117.00,84.96,1
194.00,90.16,1
53.00,95.77,1
90.00,100.09,1
79.00,102.64,1
65.00,103.75,1
57.00,103.36,1
82.00,101.80,1
85.00,99.77,1
179.00,98.50,1
43.00,98.30,1
73.00,97.69,1
78.00,96.20,1
42.00,94.13,1
105.00,91.64,1
85.00,89.51,1
56.00,87.67,1
58.00,85.47,1
69.00,82.96,1
107.00,80.82,1
96.00,79.65,1
109.00,79.52,1
160.00,80.71,1
84.00,83.20,1
111.00,85.97,1
63.00,88.28,1
85.00,89.78,1
154.00,91.15,1
88.00,93.16,1
52.00,94.76,1
70.00,95.01,1
88.00,94.36,1
87.00,93.50,1
53.00,92.36,1
46.00,90.41,1
99.00,87.95,1
66.00,85.74,1
57.00,83.61,1
68.00,81.27,1
51.00,78.82,1
87.00,76.48,1
140.00,75.20,1
52.00,75.20,1
84.00,75.43,1
58.00,75.40,1
78.00,75.18,1
71.00,74.89,1
73.00,74.61,1
106.00,74.60,1
59.00,74.97,1
48.00,75.02,1
90.00,74.60,1
185.00,75.23,1
118.00,78.04,1
131.00,82.16,1
165.00,87.10,1
121.00,92.81,1
81.00,98.11,1
104.00,102.09,1
77.00,104.76,1
62.00,105.96,1
87.00,105.74,1
68.00,104.60,1
102.00,102.95,1
104.00,101.40,1
72.00,100.03,1
41.00,98.06,1
226.00,96.46,1
47.00,96.53,1
127.00,97.09,1
78.00,97.44,1
110.00,97.74,1
56.00,97.65,1
91.00,96.94,1
71.00,95.75,1
76.00,94.23,1
45.00,92.17,1
170.00,90.33,1
78.00,89.79,1
177.00,90.57,1
61.00,92.25,1
68.00,93.52,1
150.00,94.25,1
95.00,95.52,1
85.00,96.83,1
106.00,97.69,1
103.00,98.42,1
106.00,99.18,1
59.00,99.56,1
277.00,100.70,1
96.00,104.07,1
80.00,107.74,1
143.00,110.27,1
66.00,112.12,1
84.00,112.77,1
152.00,112.73,1
50.00,112.59,1
55.00,111.29,1
156.00,109.23,1
39.00,107.41,1
111.00,105.33,1
119.00,103.40,1
40.00,101.74,1
87.00,99.47,1
130.00,97.31,1
99.00,96.13,1
113.00,95.69,1
142.00,96.06,1
157.00,97.75,1
62.00,100.08,1
103.00,101.71,1
48.00,102.20,1
74.00,101.44,1
108.00,100.02,1
123.00,99.05,1
108.00,98.86,1
62.00,98.76,1
243.00,99.35,1
42.00,101.39,1
52.00,102.72,1
118.00,102.50,1
40.00,101.65,1
159.00,100.60,1
47.00,99.81,1
53.00,98.45,1
50.00,95.83,1
48.00,92.33,1
57.00,88.29,1
124.00,84.66,1
85.00,82.33,1
184.00,81.81,1
77.00,83.09,1
130.00,85.19,1
84.00,87.46,1
84.00,89.44,1
86.00,90.79,1
104.00,91.78,1
76.00,92.56,1
58.00,92.68,1
60.00,91.79,1
137.00,90.68,1
38.00,89.92,1
136.00,89.25,1
48.00,88.75,1
191.00,88.93,1
61.00,90.20,1
58.00,91.24,1
58.00,90.96,1
110.00,90.08,1
70.00,89.31,1
59.00,88.33,1
141.00,87.38,1
153.00,87.87,1
55.00,89.49,1
52.00,90.36,1
69.00,89.92,1
68.00,88.75,1
73.00,87.22,1
121.00,85.95,1
90.00,85.50,1
60.00,85.31,1
99.00,84.90,1
181.00,85.42,1
75.00,87.43,1
71.00,89.39,1
59.00,90.20,1
84.00,90.08,1
178.00,90.36,1
56.00,91.70,1
151.00,93.33,1
90.00,95.19,1
137.00,97.32,1
34.00,99.01,1
64.00,99.25,1
60.00,97.97,1
89.00,96.00,1
70.00,93.88,1
36.00,91.34,1
195.00,89.18,1
58.00,88.60,1
47.00,88.19,1
57.00,86.67,1
50.00,84.39,1
51.00,81.59,1
148.00,79.24,1
123.00,78.73,1
180.00,80.47,1
97.00,83.92,1
106.00,87.75,1
126.00,91.36,1
61.00,94.54,1
52.00,96.28,1
66.00,96.35,1
91.00,95.47,1
40.00,94.02,1
98.00,92.04,1
48.00,89.83,1
61.00,87.28,1
74.00,84.48,1
36.00,81.58,1
65.00,78.42,1
79.00,75.45,1
137.00,73.68,1
76.00,73.45,1
127.00,74.29,1
42.00,75.55,1
137.00,76.88,1
130.00,79.05,1
249.00,83.45,1
42.00,89.58,1
61.00,94.52,1
85.00,97.21,1
104.00,98.81,1
61.00,99.68,1
75.00,99.53,1
36.00,98.17,1
175.00,96.54,1
65.00,95.85,1
70.00,95.26,1
79.00,94.00,1
99.00,92.64,1
63.00,91.35,1
72.00,89.81,1
89.00,88.11,1
123.00,86.98,1
124.00,87.04,1
37.00,87.58,1
143.00,87.92,1
152.00,89.19,1
58.00,91.38,1
62.00,92.75,1
101.00,93.07,1
56.00,92.87,1
137.00,92.54,1
73.00,92.57,1
41.00,92.20,1
69.00,90.71,1
68.00,88.61,1
108.00,86.67,1
86.00,85.40,1
50.00,84.34,1
38.00,82.59,1
44.00,79.90,1
69.00,76.83,1
60.00,73.95,1
127.00,71.94,1
80.00,71.30,1
96.00,71.65,1
143.00,72.98,1
43.00,75.10,1
163.00,77.49,1
80.00,80.45,1
60.00,83.21,1
49.00,84.59,1
87.00,84.86,1
48.00,84.50,1
133.00,84.04,1
113.00,84.45,1
82.00,85.62,1
121.00,86.98,1
62.00,88.33,1
84.00,89.15,1
101.00,89.56,1
74.00,89.89,1
64.00,89.76,1
49.00,88.74,1
39.00,86.70,1
89.00,84.07,1
135.00,82.21,1
62.00,81.56,1
137.00,81.65,1
98.00,82.62,1
78.00,84.04,1
85.00,85.13,1
110.00,86.11,1
102.00,87.37,1
42.00,88.38,1
81.00,88.42,1
201.00,88.87,1
53.00,90.72,1
114.00,92.60,1
111.00,94.21,1
46.00,95.47,1
120.00,95.95,1
120.00,96.49,1
62.00,97.21,1
70.00,97.13,1
101.00,96.36,1
53.00,95.27,1
103.00,93.86,1
59.00,92.30,1
78.00,90.54,1
87.00,88.70,1
84.00,87.15,1
109.00,86.10,1
156.00,86.25,1
64.00,87.54,1
91.00,88.73,1
59.00,89.21,1
94.00,89.13,1
61.00,88.67,1
84.00,87.87,1
91.00,87.00,1
87.00,86.38,1
211.00,86.99,1
75.00,89.42,1
56.00,91.76,1
132.00,93.14,1
71.00,94.34,1
45.00,94.77,1
125.00,94.32,1
75.00,93.92,1
77.00,93.42,1
48.00,92.23,1
67.00,90.26,1
70.00,87.86,1
64.00,85.36,1
102.00,83.12,1
87.00,81.60,1
83.00,80.72,1
51.00,79.89,1
120.00,79.14,1
60.00,78.85,1
99.00,78.83,1
101.00,79.18,1
143.00,80.50,1
140.00,83.22,1
45.00,86.40,1
70.00,88.44,1
84.00,89.28,1
55.00,89.39,1
242.00,90.12,1
48.00,92.55,1
46.00,94.52,1
200.00,95.69,1
69.00,97.69,1
47.00,99.16,1
80.00,99.01,1
52.00,97.75,1
78.00,95.72,1
97.00,93.53,1
64.00,91.55,1
43.00,89.22,1
83.00,86.43,1
52.00,83.61,1
56.00,80.70,1
54.00,77.63,1
109.00,74.98,1
113.00,73.68,1
127.00,74.09,1
124.00,76.01,1
107.00,78.95,1
73.00,81.98,1
60.00,84.16,1
79.00,85.27,1
158.00,86.41,1
70.00,88.27,1
116.00,90.18,1
128.00,92.22,1
179.00,95.27,1
132.00,99.56,1
76.00,103.83,1
70.00,106.55,1
48.00,107.29,1
53.00,106.10,1
50.00,103.36,1
102.00,99.97,1
39.00,96.49,1
37.00,92.45,1
74.00,87.87,1
47.00,83.40,1
62.00,79.14,1
158.00,76.01,1
127.00,75.29,1
100.00,76.49,1
45.00,77.95,1
149.00,79.28,1
87.00,81.24,1
109.00,83.60,1
61.00,85.66,1
83.00,86.99,1
112.00,87.92,1
126.00,89.31,1
176.00,91.87,1
176.00,96.23,1
196.00,102.37,1
72.00,108.96,1
72.00,113.76,1
103.00,116.28,1
37.00,116.93,1
44.00,115.37,1
71.00,111.98,1
44.00,107.57,1
51.00,102.40,1
40.00,96.62,1
83.00,90.79,1
115.00,86.01,1
127.00,83.18,1
90.00,82.09,1
73.00,81.69,1
51.00,81.05,1
188.00,80.89,1
70.00,82.22,1
114.00,84.18,1
74.00,85.96,1
104.00,87.49,1
103.00,88.94,1
58.00,90.15,1
77.00,90.53,1
60.00,90.07,1
58.00,88.85,1
56.00,86.88,1
80.00,84.57,1
42.00,82.16,1
147.00,80.17,1
67.00,79.35,1
88.00,79.15,1
89.00,79.12,1
125.00,79.73,1
55.00,80.81,1
194.00,82.51,1
65.00,85.30,1
97.00,88.07,1
58.00,89.89,1
94.00,90.83,1
40.00,90.90,1
123.00,90.39,1
52.00,89.82,1
55.00,88.74,1
82.00,87.01,1
40.00,84.95,1
64.00,82.44,1
95.00,79.98,1
179.00,79.06,1
102.00,80.35,1
112.00,82.76,1
172.00,85.98,1
72.00,89.95,1
123.00,93.63,1
119.00,96.93,1
154.00,100.51,1
200.00,105.09,1
83.00,110.37,1
81.00,114.42,1
98.00,116.53,1
86.00,117.29,1
153.00,117.48,1
100.00,117.81,1
117.00,118.04,1
51.00,117.49,1
72.00,115.59,1
51.00,112.36,1
71.00,108.20,1
132.00,104.14,1
156.00,101.67,1
87.00,100.84,1
230.00,101.51,1
105.00,104.05,1
97.00,106.99,1
107.00,109.03,1
81.00,110.22,1
49.00,110.10,1
86.00,108.55,1
102.00,106.44,1
145.00,104.91,1
178.00,105.03,1
67.00,106.35,1
74.00,107.03,1
65.00,106.30,1
187.00,105.47,1
46.00,105.36,1
105.00,104.96,1
70.00,103.88,1
35.00,101.93,1
43.00,98.57,1
72.00,94.36,1
141.00,90.76,1
41.00,88.29,1
102.00,86.18,1
56.00,84.22,1
127.00,82.76,1
71.00,82.06,1
123.00,82.06,1
86.00,82.68,1
174.00,84.30,1
37.00,86.65,1
66.00,88.15,1
215.00,89.56,1
50.00,92.19,1
66.00,94.30,1
281.00,96.61,1
40.00,100.73,1
104.00,104.37,1
75.00,106.37,1
48.00,106.84,1
137.00,106.21,1
48.00,105.29,1
64.00,103.54,1
53.00,100.69,1
58.00,97.06,1
116.00,93.45,1
98.00,90.83,1
74.00,89.03,1
63.00,87.27,1
128.00,85.75,1
66.00,84.95,1
75.00,84.30,1
57.00,83.28,1
64.00,81.84,1
69.00,80.13,1
73.00,78.46,1
154.00,77.65,1
144.00,78.80,1
113.00,81.69,1
42.00,84.59,1
109.00,86.52,1
60.00,87.77,1
67.00,88.26,1
85.00,88.02,1
62.00,87.40,1
77.00,86.40,1
62.00,85.09,1
97.00,83.74,1
206.00,83.78,1
43.00,85.61,1
155.00,87.87,1
83.00,90.29,1
132.00,92.89,1
57.00,95.13,1
51.00,96.14,1
42.00,95.39,1
100.00,93.60,1
43.00,91.51,1
72.00,89.02,1
171.00,87.15,1
60.00,86.77,1
47.00,86.40,1
68.00,85.10,1
282.00,85.13,1
89.00,88.30,1
79.00,92.26,1
283.00,96.60,1
128.00,103.11,1
163.00,110.45,1
56.00,116.58,1
57.00,120.14,1
261.00,122.42,1
38.00,125.23,1
63.00,126.52,1
130.00,125.76,1
212.00,125.46,1
37.00,125.97,1
44.00,124.90,1
50.00,121.38,1
66.00,116.43,1
128.00,111.37,1
44.00,106.87,1
184.00,103.22,1
61.00,100.94,1
74.00,99.02,1
71.00,96.59,1
51.00,93.76,1
80.00,90.60,1
73.00,87.55,1
54.00,84.65,1
86.00,81.85,1
85.00,79.58,1
83.00,78.03,1
49.00,76.75,1
65.00,75.27,1
43.00,73.49,1
79.00,71.60,1
123.00,70.48,1
82.00,70.67,1
86.00,71.56,1
54.00,72.41,1
99.00,73.09,1
175.00,74.72,1
213.00,78.99,1
44.00,84.96,1
118.00,90.16,1
55.00,93.89,1
41.00,95.84,1
83.00,95.96,1
102.00,95.43,1
112.00,95.17,1
37.00,94.83,1
76.00,93.59,1
76.00,91.75,1
80.00,89.85,1
105.00,88.26,1
39.00,86.85,1
53.00,84.85,1
70.00,82.29,1
45.00,79.59,1
68.00,76.79,1
62.00,74.13,1
60.00,71.74,1
140.00,70.22,1
100.00,70.38,1
157.00,72.29,1
68.00,75.36,1
252.00,79.71,1
126.00,86.17,1
171.00,93.80,1
87.00,101.09,1
66.00,106.68,1
230.00,111.11,1
140.00,116.33,1
98.00,121.48,1
41.00,124.49,1
110.00,125.04,1
125.00,124.51,1
121.00,123.97,1
78.00,123.13,1
67.00,121.27,1
50.00,118.01,1
38.00,113.30,1
43.00,107.37,1
128.00,101.40,1
87.00,96.70,1
119.00,93.41,1
99.00,91.34,1
70.00,89.94,1
109.00,88.79,1
140.00,88.51,1
70.00,89.16,1
49.00,89.43,1
110.00,88.97,1
77.00,88.54,1
76.00,88.09,1
122.00,87.74,1
170.00,88.63,1
136.00,91.34,1
138.00,95.16,1
127.00,99.38,1
64.00,103.07,1
81.00,105.24,1
57.00,105.74,1
69.00,104.78,1
245.00,104.23,1
58.00,105.47,1
182.00,107.42,1
37.00,109.15,1
126.00,110.01,1
49.00,109.80,1
42.00,108.21,1
107.00,105.41,1
112.00,102.83,1
114.00,101.16,1
48.00,99.75,1
78.00,97.76,1
155.00,95.98,1
74.00,95.27,1
46.00,94.46,1
110.00,92.99,1
142.00,92.18,1
55.00,92.22,1
54.00,91.73,1
48.00,90.06,1
105.00,87.91,1
78.00,86.15,1
51.00,84.54,1
64.00,82.54,1
83.00,80.45,1
67.00,78.66,1
43.00,76.85,1
88.00,74.92,1
56.00,73.24,1
193.00,72.81,1
59.00,74.22,1
97.00,76.22,1
136.00,78.44,1
62.00,81.09,1
100.00,83.40,1
118.00,85.54,1
47.00,87.50,1
114.00,88.78,1
74.00,89.71,1
63.00,90.13,1
39.00,89.44,1
50.00,87.52,1
206.00,86.02,1
101.00,86.72,1
44.00,88.12,1
144.00,89.03,1
179.00,91.00,1
66.00,94.20,1
41.00,96.42,1
77.00,96.78,1
209.00,97.20,1
36.00,98.71,1
171.00,100.32,1
115.00,102.31,1
85.00,104.46,1
66.00,105.54,1
220.00,106.48,1
60.00,108.35,1
37.00,109.31,1
52.00,107.94,1
52.00,104.92,1
97.00,101.24,1
70.00,97.71,1
115.00,94.70,1
138.00,92.91,1
73.00,92.34,1
102.00,92.04,1
64.00,91.59,1
53.00,90.54,1
66.00,88.70,1
172.00,87.32,1
58.00,87.28,1
123.00,87.75,1
149.00,88.96,1
261.00,92.60,1
75.00,98.49,1
119.00,104.09,1
156.00,108.78,1
82.00,112.99,1
55.00,115.55,1
104.00,116.09,1
51.00,115.27,1
105.00,113.40,1
90.00,111.13,1
67.00,108.63,1
214.00,106.76,1
76.00,106.54,1
53.00,106.31,1
39.00,104.45,1
87.00,101.38,1
39.00,97.76,1
269.00,95.36,1
61.00,95.65,1
52.00,96.36,1
39.00,95.40,1
106.00,93.46,1
43.00,91.32,1
91.00,89.01,1
56.00,86.64,1
246.00,85.70,1
48.00,87.07,1
127.00,89.12,1
72.00,90.82,1
169.00,92.75,1
76.00,95.17,1
140.00,97.68,1
174.00,100.74,1
60.00,104.27,1
75.00,106.55,1
85.00,107.19,1
150.00,107.39,1
119.00,108.16,1
117.00,109.36,1
77.00,110.20,1
42.00,109.79,1
173.00,108.60,1
149.00,108.55,1
126.00,109.86,1
226.00,112.43,1
69.00,116.01,1
58.00,118.38,1
53.00,118.24,1
138.00,116.72,1
214.00,116.19,1
56.00,117.09,1
58.00,117.05,1
262.00,116.74,1
93.00,118.22,1
137.00,120.28,1
111.00,121.81,1
167.00,123.30,1
61.00,124.53,1
281.00,126.07,1
124.00,129.26,1
56.00,132.24,1
151.00,133.31,1
164.00,134.02,1
100.00,134.92,1
104.00,135.00,1
75.00,133.77,1
68.00,131.07,1
69.00,126.99,1
220.00,123.21,1
138.00,121.61,1
38.00,120.79,1
52.00,118.35,1
48.00,114.14,1
49.00,108.79,1
127.00,103.37,1
127.00,99.39,1
181.00,97.72,1
66.00,97.83,1
131.00,98.34,1
80.00,98.85,1
68.00,98.94,1
48.00,97.90,1
101.00,96.06,1
173.00,94.99,1
110.00,95.66,1
82.00,96.95,1
55.00,97.44,1
79.00,96.81,1
73.00,95.50,1
54.00,93.65,1
164.00,92.00,1
222.00,92.71,1
81.00,95.91,1
66.00,98.89,1
135.00,100.77,1
74.00,102.25,1
218.00,104.15,1
56.00,106.83,1
97.00,108.87,1
127.00,109.92,1
252.00,112.08,1
86.00,115.94,1
123.00,119.56,1
246.00,123.15,1
293.00,129.28,1
123.00,137.58,1
173.00,145.23,1
148.00,151.33,1
179.00,156.32,1
132.00,160.21,1
61.00,162.04,1
119.00,161.14,1
144.00,158.80,1
111.00,156.05,1
170.00,153.24,1
99.00,150.58,1
57.00,147.08,1
80.00,141.96,1
154.00,136.45,1
52.00,131.38,1
77.00,125.95,1
57.00,119.84,1
140.00,113.96,1
57.00,108.98,1
58.00,104.17,1
40.00,98.82,1
335.00,95.39,1
158.00,96.81,1
142.00,101.25,1
117.00,105.89,1
98.00,109.84,1
84.00,112.49,1
67.00,113.52,1
211.00,114.10,1
49.00,115.21,1
162.00,116.14,1
171.00,117.50,1
61.00,119.33,1
54.00,119.61,1
206.00,118.96,1
64.00,118.92,1
89.00,118.45,1
80.00,116.83,1
56.00,114.26,1
146.00,111.32,1
83.00,108.97,1
145.00,107.36,1
306.00,108.20,1
95.00,112.35,1
39.00,116.22,1
48.00,117.16,1
71.00,115.67,1
133.00,113.39,1
37.00,111.00,1
89.00,107.96,1
78.00,104.49,1
53.00,100.86,1
142.00,97.46,1
192.00,96.04,1
37.00,96.44,1
180.00,97.24,1
43.00,98.28,1
80.00,98.68,1
208.00,99.11,1
71.00,100.86,1
185.00,103.28,1
53.00,105.79,1
44.00,106.97,1
101.00,106.31,1
90.00,105.07,1
42.00,103.32,1
61.00,100.51,1
77.00,97.03,1
100.00,93.79,1
60.00,91.00,1
37.00,88.00,1
54.00,84.37,1
143.00,81.19,1
38.00,79.23,1
84.00,77.62,1
39.00,75.86,1
37.00,73.64,1
132.00,71.55,1
94.00,70.87,1
37.00,70.97,1
152.00,71.34,1
149.00,73.32,1
108.00,77.03,1
107.00,81.20,1
152.00,85.60,1
103.00,90.37,1
83.00,94.66,1
42.00,97.35,1
80.00,98.21,1
90.00,98.02,1
139.00,97.94,1
54.00,98.12,1
38.00,97.36,1
83.00,95.31,1
182.00,93.79,1
47.00,93.63,1
106.00,93.57,1
77.00,93.20,1
45.00,92.36,1
94.00,90.81,1
70.00,89.14,1
211.00,88.62,1
108.00,90.27,1
76.00,92.70,1
62.00,94.13,1
113.00,94.69,1
113.00,95.30,1
82.00,96.10,1
222.00,97.66,1
211.00,101.72,1
116.00,107.76,1
96.00,113.24,1
105.00,117.08,1
96.00,119.43,1
123.00,120.74,1
86.00,121.28,1
68.00,120.68,1
101.00,118.89,1
77.00,116.46,1
94.00,113.66,1
306.00,112.50,1
46.00,114.11,1
35.00,115.14,1
96.00,113.88,1
90.00,111.76,1
44.00,109.10,1
64.00,105.46,1
98.00,101.43,1
131.00,98.25,1
96.00,96.35,1
149.00,95.63,1
73.00,95.79,1
113.00,96.11,1
139.00,96.80,1
68.00,97.93,1
175.00,99.26,1
84.00,101.15,1
38.00,102.40,1
57.00,101.74,1
52.00,99.54,1
83.00,96.59,1
68.00,93.52,1
64.00,90.44,1
148.00,87.95,1
73.00,86.73,1
52.00,85.80,1
56.00,84.16,1
223.00,83.34,1
64.00,84.66,1
64.00,86.29,1
62.00,86.77,1
200.00,87.48,1
333.00,91.71,1
42.00,99.42,1
83.00,106.12,1
52.00,109.82,1
119.00,111.52,1
101.00,112.36,1
93.00,112.71,1
130.00,112.69,1
106.00,112.74,1
160.00,113.20,1
79.00,113.99,1
47.00,113.83,1
50.00,111.78,1
84.00,108.41,1
53.00,104.50,1
224.00,101.50,1
57.00,100.48,1
103.00,100.03,1
98.00,99.37,1
65.00,98.58,1
69.00,97.18,1
75.00,95.20,1
42.00,92.71,1
122.00,90.07,1
115.00,88.41,1
103.00,87.98,1
72.00,88.00,1
58.00,87.62,1
38.00,86.31,1
34.00,83.85,1
125.00,81.12,1
38.00,79.02,1
50.00,76.89,1
100.00,74.69,1
44.00,72.98,1
55.00,71.27,1
86.00,69.60,1
127.00,68.96,1
97.00,69.81,1
116.00,71.78,1
214.00,75.39,1
137.00,81.28,1
160.00,88.43,1
124.00,95.75,1
194.00,103.13,1
85.00,110.26,1
54.00,115.47,1
64.00,117.74,1
200.00,118.72,1
37.00,119.68,1
58.00,119.20,1
72.00,116.75,1
88.00,113.41,1
85.00,109.87,1
62.00,106.19,1
73.00,102.21,1
104.00,98.38,1
76.00,95.17,1
70.00,92.28,1
67.00,89.37,1
35.00,86.17,1
71.00,82.61,1
116.00,79.60,1
67.00,77.74,1
85.00,76.53,1
115.00,76.00,1
50.00,76.10,1
66.00,75.98,1
57.00,75.34,1
75.00,74.48,1
134.00,74.19,1
167.00,75.74,1
127.00,79.34,1
81.00,83.61,1
61.00,86.98,1
68.00,88.90,1
46.00,89.42,1
49.00,88.58,1
41.00,86.53,1
83.00,83.87,1
158.00,82.09,1
85.00,82.04,1
50.00,82.41,1
87.00,82.22,1
64.00,81.74,1
166.00,81.82,1
147.00,83.65,1
105.00,86.95,1
35.00,89.83,1
308.00,93.03,1
66.00,98.33,1
127.00,103.81,1
41.00,107.52,1
54.00,108.95,1
68.00,108.22,1
39.00,105.96,1
39.00,102.27,1
129.00,98.10,1
127.00,95.19,1
88.00,93.72,1
57.00,92.49,1
54.00,90.60,1
134.00,88.64,1
135.00,87.99,1
58.00,88.42,1
73.00,88.50,1
80.00,87.98,1
39.00,86.92,1
61.00,85.05,1
45.00,82.50,1
85.00,79.79,1
66.00,77.42,1
62.00,75.36,1
92.00,73.63,1
107.00,72.81,1
73.00,72.91,1
38.00,72.99,1
87.00,72.57,1
126.00,72.66,1
62.00,73.63,1
117.00,74.97,1
117.00,76.93,1
80.00,79.44,1
231.00,82.91,1
118.00,88.27,1
180.00,94.77,1
66.00,101.08,1
287.00,107.50,1
102.00,114.96,1
51.00,121.32,1
72.00,124.36,1
65.00,124.72,1
84.00,123.22,1
63.00,120.44,1
103.00,116.93,1
191.00,114.19,1
62.00,112.87,1
131.00,111.82,1
76.00,110.63,1
111.00,109.32,1
37.00,107.48,1
38.00,104.36,1
150.00,100.70,1
40.00,97.72,1
57.00,94.59,1
37.00,90.65,1
245.00,87.78,1
86.00,87.78,1
58.00,88.82,1
72.00,88.93,1
176.00,89.19,1
36.00,90.27,1
144.00,91.35,1
61.00,92.33,1
214.00,94.00,1
44.00,96.58,1
50.00,98.25,1
68.00,97.99,1
220.00,97.91,1
119.00,99.80,1
195.00,103.37,1
39.00,107.19,1
132.00,109.90,1
50.00,111.22,1
89.00,111.20,1
51.00,109.81,1
130.00,107.76,1
95.00,106.00,1
55.00,104.26,1
99.00,102.00,1
72.00,99.59,1
105.00,97.34,1
42.00,95.09,1
92.00,92.55,1
64.00,89.96,1
48.00,87.23,1
61.00,84.09,1
59.00,80.82,1
72.00,77.73,1
183.00,76.01,1
39.00,76.14,1
267.00,78.10,1
148.00,82.97,1
131.00,89.68,1
135.00,96.33,1
151.00,102.76,1
39.00,108.18,1
172.00,112.03,1
68.00,114.99,1
276.00,118.26,1
94.00,122.75,1
50.00,126.35,1
94.00,127.27,1
111.00,126.63,1
103.00,125.42,1
218.00,124.78,1
59.00,125.11,1
351.00,126.90,1
64.00,130.89,1
87.00,134.27,1
43.00,134.70,1
166.00,133.38,1
184.00,132.60,1
132.00,133.12,1
115.00,133.77,1
65.00,133.35,1
70.00,131.22,1
89.00,127.68,1
93.00,123.57,1
151.00,119.88,1
144.00,117.56,1
65.00,116.08,1
224.00,115.24,1
45.00,115.40,1
61.00,114.79,1
96.00,112.71,1
73.00,110.09,1
75.00,107.07,1
47.00,103.46,1
85.00,99.38,1
99.00,95.61,1
36.00,92.22,1
73.00,88.60,1
41.00,84.76,1
62.00,80.83,1
66.00,77.08,1
52.00,73.72,1
84.00,70.82,1
66.00,68.65,1
142.00,67.69,1
74.00,68.25,1
40.00,69.15,1
71.00,69.40,1
101.00,69.64,1
91.00,70.53,1
70.00,71.80,1
42.00,72.65,1
83.00,72.85,1
125.00,73.34,1
58.00,74.54,1
54.00,75.42,1
61.00,75.47,1
42.00,74.80,1
117.00,73.99,1
40.00,73.54,1
34.00,72.67,1
154.00,71.77,1
40.00,71.89,1
96.00,72.33,1
37.00,72.50,1
54.00,72.07,1
119.00,71.54,1
84.00,71.88,1
305.00,74.71,1
141.00,81.32,1
88.00,89.25,1
101.00,95.78,1
91.00,100.71,1
164.00,104.82,1
40.00,108.27,1
129.00,110.38,1
73.00,111.41,1
64.00,111.29,1
126.00,110.22,1
44.00,108.74,1
534.00,110.24,1
104.00,117.85,1
43.00,126.23,1
61.00,130.45,1
143.00,131.90,1
64.00,132.02,1
389.00,133.22,1
274.00,138.91,1
163.00,147.75,1
426.00,158.04,1
241.00,171.07,1
197.00,184.45,1
66.00,194.29,1
83.00,198.73,1
82.00,198.12,1
64.00,193.66,1
330.00,188.31,1
146.00,185.21,1
94.00,182.65,1
43.00,177.76,1
195.00,171.28,1
461.00,168.08,1
191.00,170.93,1
302.00,176.97,1
266.00,184.46,1
128.00,192.01,1
212.00,197.45,1
148.00,200.84,1
116.00,201.94,1
59.00,199.66,1
59.00,193.72,1
46.00,184.66,1
124.00,173.92,1
110.00,163.34,1
44.00,153.10,1
72.00,142.50,1
45.00,131.64,1
75.00,120.98,1
74.00,111.10,1
46.00,102.14,1
46.00,93.71,1
91.00,86.09,1
38.00,79.66,1
418.00,76.97,1
89.00,80.33,1
336.00,88.02,1
179.00,98.73,1
107.00,110.23,1
234.00,120.51,1
77.00,129.73,1
137.00,136.78,1
181.00,142.01,1
158.00,146.73,1
111.00,150.48,1
169.00,152.89,1
190.00,154.95,1
54.00,156.37,1
191.00,156.33,1
63.00,155.25,1
46.00,152.31,1
299.00,148.79,1
92.00,147.29,1
173.00,146.71,1
139.00,146.18,1
414.00,148.10,1
69.00,153.26,1
100.00,157.51,1
61.00,158.25,1
272.00,157.64,1
290.00,159.38,1
136.00,163.57,1
87.00,166.72,1
97.00,166.95,1
362.00,166.92,1
120.00,169.20,1
71.00,170.90,1
50.00,169.14,1
363.00,166.62,1
142.00,166.78,1
141.00,167.91,1
975.00,174.74,1
48.00,191.99,1
294.00,210.06,1
40.00,222.43,1
422.00,231.02,1
136.00,238.34,1
151.00,243.00,1
134.00,243.19,1
109.00,239.68,1
198.00,233.65,1
240.00,227.49,1
93.00,221.66,1
64.00,213.92,1
120.00,203.78,1
141.00,193.01,1
65.00,182.29,1
143.00,171.54,1
75.00,161.21,1
313.00,153.04,1
141.00,148.74,1
63.00,146.00,1
64.00,141.82,1
148.00,136.76,1
50.00,131.77,1
74.00,126.29,1
87.00,120.29,1
122.00,114.81,1
294.00,112.06,1
42.00,112.50,1
195.00,113.86,1
119.00,115.69,1
202.00,118.51,1
230.00,122.97,1
241.00,129.77,1
298.00,139.02,1
431.00,151.96,1
436.00,170.08,1
374.00,192.13,1
404.00,215.66,1
424.00,239.75,1
98.00,261.29,1
444.00,277.81,1
40.00,289.65,1
118.00,294.32,1
117.00,291.37,1
484.00,286.35,1
268.00,284.24,1
451.00,285.43,1
297.00,289.07,1
165.00,292.27,1
281.00,292.55,1
102.00,289.88,1
82.00,282.95,1
73.00,271.09,1
271.00,257.24,1
72.00,243.87,1
66.00,229.63,1
403.00,216.23,1
365.00,209.15,1
187.00,207.75,1
251.00,208.00,1
201.00,208.68,1
904.00,215.18,1
149.00,230.85,1
95.00,245.87,1
302.00,254.44,1
457.00,262.09,1
342.00,272.17,1
107.00,281.13,1
220.00,285.05,1
168.00,284.51,1
114.00,280.17,1
217.00,272.64,1
113.00,263.38,1
44.00,251.62,1
140.00,237.17,1
81.00,221.68,1
49.00,205.43,1
121.00,188.78,1
125.00,173.32,1
154.00,160.18,1
249.00,150.54,1
109.00,144.52,1
237.00,140.99,1
201.00,140.15,1
115.00,141.12,1
266.00,142.95,1
247.00,147.05,1
260.00,153.74,1
74.00,160.70,1
92.00,164.79,1
325.00,167.26,1
140.00,170.91,1
294.00,175.47,1
74.00,179.76,1
289.00,183.12,1
71.00,185.58,1
324.00,187.56,1
205.00,190.51,1
132.00,193.61,1
55.00,193.89,1
71.00,190.27,1
76.00,183.44,1
196.00,175.65,1
244.00,169.81,1
40.00,165.74,1
73.00,160.43,1
70.00,153.23,1
296.00,146.89,1
165.00,144.09,1
211.00,144.11,1
89.00,144.96,1
163.00,145.38,1
111.00,145.24,1
263.00,145.69,1
237.00,148.46,1
418.00,155.21,1
238.00,166.08,1
228.00,178.17,1
182.00,188.71,1
66.00,195.92,1
51.00,197.92,1
166.00,195.63,1
148.00,191.81,1
53.00,186.81,1
82.00,179.57,1
248.00,171.98,1
72.00,165.90,1
207.00,160.74,1
89.00,156.27,1
108.00,151.77,1
86.00,146.54,1
106.00,140.92,1
42.00,134.80,1
103.00,128.11,1
186.00,122.39,1
45.00,118.28,1
111.00,114.46,1
89.00,110.70,1
115.00,107.53,1
208.00,105.92,1
60.00,106.09,1
47.00,105.81,1
310.00,105.93,1
145.00,109.21,1
157.00,114.37,1
104.00,119.16,1
42.00,122.23,1
59.00,122.54,1
60.00,120.53,1
78.00,117.14,1
65.00,113.00,1
50.00,108.24,1
76.00,103.03,1
152.00,98.59,1
127.00,96.16,1
63.00,95.01,1
62.00,93.60,1
44.00,91.33,1
221.00,89.65,1
227.00,91.36,1
75.00,95.86,1
272.00,101.47,1
132.00,108.64,1
91.00,115.67,1
42.00,120.13,1
114.00,121.93,1
177.00,122.96,1
154.00,124.81,1
123.00,127.12,1
66.00,128.52,1
100.00,128.25,1
138.00,127.15,1
162.00,126.56,1
203.00,127.43,1
184.00,130.10,1
53.00,133.00,1
92.00,133.96,1
120.00,133.21,1
42.00,131.31,1
118.00,128.18,1
103.00,124.71,1
283.00,122.98,1
38.00,123.45,1
50.00,123.10,1
357.00,122.86,1
96.00,125.74,1
90.00,129.06,1
68.00,130.13,1
175.00,129.95,1
39.00,129.30,1
151.00,127.86,1
174.00,126.79,1
143.00,127.11,1
67.00,127.50,1
119.00,126.85,1
87.00,125.40,1
67.00,123.12,1
219.00,120.95,1
82.00,120.16,1
68.00,119.32,1
114.00,117.47,1
131.00,115.71,1
142.00,114.84,1
66.00,114.35,1
267.00,114.68,1
42.00,116.44,1
169.00,118.23,1
98.00,119.63,1
61.00,120.26,1
73.00,119.19,1
209.00,117.86,1
132.00,118.12,1
252.00,120.41,1
155.00,124.76,1
177.00,130.06,1
183.00,135.51,1
112.00,140.59,1
171.00,144.58,1
281.00,148.91,1
57.00,153.83,1
45.00,156.11,1
107.00,154.79,1
36.00,151.08,1
47.00,145.13,1
86.00,137.58,1
90.00,129.85,1
74.00,122.49,1
76.00,115.44,1
45.00,108.51,1
50.00,101.43,1
40.00,94.22,1
79.00,87.35,1
76.00,81.50,1
147.00,77.49,1
55.00,75.39,1
76.00,74.05,1
131.00,73.39,1
106.00,74.13,1
57.00,75.56,1
98.00,76.78,1
115.00,78.21,1
173.00,80.89,1
146.00,85.29,1
67.00,90.20,1
80.00,93.92,1
63.00,96.03,1
82.00,96.84,1
183.00,97.64,1
141.00,99.89,1
46.00,102.52,1
127.00,104.09,1
54.00,104.77,1
46.00,104.14,1
156.00,102.72,1
101.00,102.04,1
41.00,101.45,1
88.00,99.88,1
88.00,97.90,1
192.00,96.93,1
85.00,97.59,1
61.00,98.37,1
75.00,98.03,1
98.00,97.09,1
79.00,96.05,1
50.00,94.61,1
79.00,92.51,1
128.00,90.64,1
100.00,89.81,1
123.00,89.94,1
137.00,91.06,1
189.00,93.75,1
129.00,98.03,1
78.00,102.39,1
88.00,105.39,1
43.00,106.63,1
38.00,105.81,1
40.00,102.97,1
112.00,99.31,1
85.00,96.13,1
37.00,93.16,1
127.00,90.19,1
94.00,88.13,1
35.00,86.55,1
146.00,85.05,1
280.00,86.11,1
68.00,90.48,1
50.00,94.66,1
101.00,96.94,1
127.00,98.60,1
60.00,100.03,1
130.00,100.93,1
140.00,102.07,1
84.00,103.66,1
110.00,104.89,1
65.00,105.41,1
65.00,104.82,1
43.00,102.88,1
154.00,100.51,1
43.00,98.65,1
111.00,96.87,1
138.00,95.65,1
127.00,95.83,1
37.00,96.34,1
59.00,95.71,1
224.00,95.19,1
136.00,96.97,1
150.00,100.45,1
92.00,104.15,1
148.00,107.50,1
83.00,110.39,1
46.00,111.90,1
167.00,112.18,1
145.00,113.02,1
70.00,114.28,1
61.00,114.32,1
43.00,112.52,1
61.00,109.15,1
55.00,104.78,1
68.00,99.96,1
92.00,95.33,1
163.00,92.09,1
148.00,91.30,1
58.00,91.95,1
46.00,91.97,1
68.00,90.74,1
222.00,90.14,1
165.00,92.31,1
102.00,96.36,1
185.00,100.84,1
127.00,105.86,1
102.00,110.66,1
155.00,114.66,1
278.00,119.62,1
64.00,125.86,1
97.00,130.59,1
40.00,132.33,1
302.00,133.23,1
60.00,135.34,1
49.00,136.37,1
83.00,134.65,1
37.00,130.95,1
115.00,126.05,1
90.00,121.11,1
190.00,117.37,1
496.00,118.65,1
72.00,126.04,1
49.00,133.19,1
131.00,136.66,1
118.00,138.31,1
57.00,138.49,1
353.00,138.88,1
36.00,141.20,1
61.00,142.31,1
129.00,140.79,1
251.00,139.69,1
110.00,140.38,1
240.00,142.15,1
173.00,145.11,1
66.00,147.96,1
116.00,148.69,1
49.00,147.18,1
74.00,143.56,1
56.00,138.11,1
106.00,131.82,1
155.00,126.17,1
115.00,122.10,1
218.00,119.96,1
179.00,120.43,1
62.00,122.09,1
77.00,122.46,1
48.00,120.86,1
149.00,118.29,1
96.00,116.09,1
103.00,114.24,1
147.00,112.77,1
74.00,111.83,1
37.00,110.15,1
100.00,107.27,1
38.00,103.80,1
52.00,99.62,1
172.00,95.74,1
167.00,94.31,1
106.00,95.19,1
166.00,97.24,1
103.00,100.06,1
133.00,103.07,1
44.00,105.36,1
92.00,106.20,1
150.00,106.44,1
86.00,107.06,1
77.00,107.29,1
52.00,106.32,1
227.00,105.44,1
62.00,105.99,1
50.00,106.21,1
92.00,104.97,1
514.00,106.72,1
74.00,114.43,1
130.00,123.05,1
127.00,129.33,1
136.00,134.13,1
147.00,137.86,1
76.00,140.31,1
39.00,140.31,1
86.00,137.65,1
74.00,133.39,1
263.00,129.85,1
118.00,128.82,1
150.00,129.15,1
98.00,129.41,1
41.00,128.52,1
52.00,125.50,1
78.00,120.90,1
126.00,116.16,1
55.00,111.90,1
50.00,107.32,1
66.00,102.11,1
199.00,97.93,1
42.00,95.71,1
120.00,94.19,1
88.00,92.98,1
47.00,91.82,1
187.00,90.95,1
73.00,91.36,1
65.00,91.94,1
167.00,92.40,1
76.00,93.62,1
41.00,94.42,1
77.00,93.84,1
127.00,92.96,1
174.00,93.39,1
88.00,95.28,1
132.00,97.56,1
80.00,99.63,1
141.00,101.50,1
71.00,103.13,1
99.00,104.12,1
183.00,105.17,1
51.00,106.76,1
86.00,107.50,1
72.00,106.95,1
119.00,105.88,1
73.00,104.73,1
88.00,103.31,1
62.00,101.38,1
145.00,99.52,1
68.00,98.28,1
149.00,97.64,1
50.00,97.37,1
119.00,96.99,1
140.00,97.03,1
63.00,97.68,1
339.00,99.94,1
34.00,104.76,1
49.00,108.73,1
57.00,109.70,1
35.00,108.42,1
178.00,106.38,1
80.00,105.21,1
56.00,104.10,1
91.00,102.16,1
71.00,99.85,1
73.00,97.33,1
49.00,94.38,1
72.00,91.02,1
76.00,87.68,1
58.00,84.57,1
61.00,81.50,1
80.00,78.62,1
350.00,78.57,1
36.00,82.71,1
72.00,87.21,1
134.00,90.35,1
62.00,93.06,1
98.00,94.99,1
67.00,96.00,1
42.00,95.85,1
40.00,94.11,1
88.00,91.41,1
317.00,90.76,1
70.00,93.85,1
666.00,102.45,1
122.00,118.42,1
313.00,136.77,1
718.00,158.34,1
166.00,185.55,1
71.00,209.35,1
109.00,223.93,1
79.00,230.53,1
351.00,233.02,1
448.00,237.37,1
729.00,249.34,1
37.00,266.29,1
448.00,280.70,1
260.00,292.22,1
485.00,303.32,1
236.00,313.86,1
323.00,322.06,1
129.00,325.98,1
492.00,327.04,1
74.00,326.82,1
371.00,324.20,1
366.00,321.25,1
165.00,318.88,1
434.00,315.86,1
127.00,312.72,1
277.00,307.94,1
235.00,301.69,1
103.00,293.98,1
72.00,282.53,1
149.00,267.74,1
666.00,256.22,1
305.00,253.89,1
172.00,255.69,1
145.00,255.16,1
465.00,253.99,1
88.00,254.30,1
224.00,253.29,1
218.00,250.36,1
168.00,246.70,1
157.00,241.64,1
81.00,234.43,1
218.00,225.60,1
241.00,217.70,1
52.00,210.71,1
176.00,202.73,1
244.00,195.32,1
407.00,192.07,1
122.00,193.02,1
66.00,193.28,1
317.00,191.81,1
77.00,190.78,1
103.00,188.42,1
200.00,184.38,1
48.00,179.76,1
80.00,173.43,1
68.00,165.17,1
165.00,156.58,1
65.00,148.70,1
121.00,141.23,1
328.00,136.14,1
68.00,134.79,1
114.00,134.08,1
104.00,132.42,1
194.00,131.04,1
47.00,130.12,1
41.00,127.83,1
127.00,123.98,1
164.00,120.75,1
181.00,119.57,1
191.00,120.67,1
128.00,123.26,1
105.00,125.71,1
188.00,127.77,1
410.00,132.51,1
219.00,141.88,1
52.00,151.75,1
49.00,157.30,1
126.00,158.57,1
70.00,157.33,1
83.00,154.07,1
93.00,149.21,1
36.00,143.09,1
247.00,137.11,1
274.00,134.72,1
91.00,135.79,1
64.00,136.40,1
47.00,134.54,1
74.00,130.58,1
84.00,125.56,1
177.00,121.06,1
77.00,117.89,1
149.00,115.55,1
139.00,114.21,1
67.00,113.50,1
39.00,111.79,1
147.00,109.18,1
55.00,106.80,1
56.00,104.04,1
82.00,100.56,1
57.00,96.87,1
60.00,92.97,1
104.00,89.26,1
128.00,86.77,1
77.00,85.63,1
74.00,84.87,1
40.00,83.68,1
145.00,82.48,1
123.00,82.59,1
91.00,83.95,1
221.00,86.55,1
74.00,90.70,1
52.00,94.33,1
74.00,96.03,1
246.00,97.85,1
112.00,101.62,1
146.00,106.22,1
40.00,109.87,1
66.00,111.41,1
170.00,111.71,1
142.00,112.78,1
170.00,115.03,1
92.00,117.69,1
226.00,120.61,1
190.00,124.92,1
109.00,130.00,1
120.00,133.92,1
117.00,136.33,1
56.00,137.03,1
73.00,135.52,1
53.00,131.98,1
77.00,127.01,1
265.00,122.94,1
185.00,122.33,1
206.00,124.81,1
115.00,128.46,1
60.00,131.09,1
68.00,131.23,1
81.00,129.29,1
42.00,125.78,1
74.00,120.92,1
66.00,115.34,1
44.00,109.35,1
101.00,103.28,1
93.00,98.06,1
126.00,94.27,1
104.00,91.98,1
75.00,90.59,1
174.00,90.08,1
122.00,91.23,1
105.00,93.43,1
59.00,95.24,1
147.00,96.54,1
168.00,98.65,1
86.00,101.71,1
74.00,104.09,1
101.00,105.21,1
38.00,105.17,1
69.00,103.69,1
158.00,101.89,1
68.00,100.91,1
69.00,99.82,1
86.00,98.11,1
150.00,96.80,1
42.00,96.14,1
45.00,94.75,1
59.00,92.13,1
210.00,90.18,1
348.00,92.56,1
46.00,99.26,1
134.00,105.81,1
103.00,110.73,1
311.00,116.20,1
85.00,123.21,1
67.00,128.98,1
60.00,131.37,1
112.00,131.32,1
35.00,129.56,1
52.00,125.87,1
190.00,121.61,1
180.00,119.42,1
117.00,119.32,1
61.00,119.23,1
76.00,117.81,1
93.00,115.37,1
38.00,112.17,1
37.00,107.72,1
124.00,102.73,1
41.00,98.22,1
74.00,93.87,1
48.00,89.41,1
44.00,84.81,1
65.00,80.18,1
37.00,75.75,1
120.00,72.02,1
115.00,70.04,1
52.00,69.56,1
132.00,69.80,1
63.00,70.81,1
51.00,71.79,1
96.00,72.32,1
312.00,74.96,1
108.00,81.34,1
49.00,88.26,1
114.00,93.25,1
363.00,99.25,1
146.00,108.69,1
82.00,118.38,1
70.00,124.97,1
361.00,130.67,1
83.00,137.93,1
193.00,144.83,1
75.00,149.79,1
109.00,152.34,1
76.00,152.29,1
60.00,149.86,1
130.00,145.76,1
84.00,141.16,1
59.00,135.94,1
42.00,129.49,1
69.00,122.05,1
35.00,114.16,1
66.00,106.07,1
85.00,98.51,1
77.00,92.09,1
78.00,86.79,1
107.00,82.71,1
63.00,79.82,1
95.00,77.70,1
104.00,76.47,1
137.00,76.66,1
144.00,78.58,1
38.00,81.27,1
80.00,83.09,1
125.00,84.40,1
227.00,87.21,1
157.00,92.60,1
114.00,99.04,1
52.00,104.27,1
36.00,106.89,1
46.00,106.74,1
142.00,105.33,1
55.00,103.95,1
55.00,102.00,1
36.00,98.80,1
75.00,94.77,1
116.00,91.07,1
44.00,88.14,1
102.00,85.54,1
41.00,83.12,1
49.00,80.45,1
41.00,77.26,1
124.00,74.38,1
142.00,73.31,1
183.00,74.99,1
88.00,78.72,1
70.00,82.50,1
107.00,85.42,1
47.00,87.54,1
47.00,88.28,1
114.00,88.03,1
354.00,90.13,1
38.00,95.91,1
40.00,101.01,1
92.00,103.29,1
37.00,103.75,1
102.00,102.89,1
46.00,101.19,1
136.00,99.28,1
97.00,97.97,1
183.00,97.97,1
48.00,98.98,1
78.00,99.42,1
57.00,98.62,1
49.00,96.71,1
115.00,94.28,1
66.00,92.17,1
41.00,89.90,1
91.00,87.18,1
76.00,84.70,1
105.00,82.89,1
83.00,81.83,1
112.00,81.48,1
57.00,81.54,1
162.00,82.10,1
36.00,83.26,1
142.00,84.50,1
164.00,86.66,1
41.00,89.67,1
76.00,91.66,1
167.00,93.11,1
100.00,95.35,1
64.00,97.46,1
84.00,98.42,1
92.00,98.56,1
168.00,99.02,1
62.00,100.16,1
47.00,100.52,1
110.00,99.66,1
83.00,98.60,1
62.00,97.33,1
98.00,95.67,1
45.00,93.74,1
127.00,91.77,1
94.00,90.49,1
37.00,89.44,1
41.00,87.40,1
48.00,84.34,1
34.00,80.63,1
96.00,76.88,1
163.00,74.71,1
56.00,74.57,1
82.00,74.94,1
141.00,75.74,1
171.00,78.29,1
67.00,82.18,1
177.00,86.40,1
161.00,91.57,1
74.00,97.22,1
125.00,101.89,1
69.00,105.31,1
48.00,106.99,1
59.00,106.57,1
104.00,104.95,1
77.00,103.08,1
62.00,100.90,1
71.00,98.15,1
56.00,94.96,1
37.00,91.21,1
47.00,86.81,1
46.00,82.05,1
94.00,77.65,1
39.00,73.99,1
121.00,71.19,1
106.00,69.92,1
40.00,69.73,1
95.00,69.60,1
69.00,69.67,1
67.00,69.91,1
42.00,69.80,1
185.00,70.19,1
114.00,72.52,1
35.00,75.61,1
120.00,77.96,1
75.00,80.06,1
76.00,81.87,1
46.00,82.80,1
88.00,82.88,1
340.00,84.84,1
45.00,90.25,1
100.00,95.78,1
80.00,99.51,1
37.00,101.50,1
103.00,101.76,1
264.00,102.79,1
56.00,105.88,1
50.00,108.24,1
58.00,108.22,1
41.00,106.33,1
240.00,104.52,1
87.00,104.71,1
40.00,105.16,1
68.00,103.95,1
82.00,101.72,1
90.00,99.32,1
85.00,97.08,1
108.00,95.21,1
112.00,94.05,1
118.00,93.79,1
82.00,94.05,1
95.00,94.26,1
46.00,93.92,1
36.00,92.38,1
42.00,89.46,1
117.00,86.24,1
179.00,84.72,1
57.00,85.17,1
172.00,86.55,1
100.00,88.89,1
42.00,91.15,1
116.00,92.33,1
56.00,92.89,1
75.00,92.74,1
116.00,92.23,1
34.00,91.60,1
95.00,90.40,1
35.00,88.63,1
88.00,86.43,1
66.00,84.19,1
74.00,82.14,1
193.00,81.24,1
83.00,82.38,1
40.00,83.83,1
91.00,84.26,1
87.00,84.35,1
68.00,84.38,1
142.00,84.63,1
41.00,85.27,1
155.00,86.07,1
61.00,87.24,1
89.00,88.27,1
47.00,88.48,1
84.00,87.93,1
86.00,87.09,1
55.00,86.13,1
151.00,85.43,1
70.00,85.60,1
80.00,85.98,1
52.00,85.75,1
47.00,84.64,1
108.00,83.10,1
42.00,81.70,1
45.00,79.88,1
79.00,77.60,1
76.00,75.60,1
124.00,74.52,1
78.00,74.56,1
208.00,76.17,1
36.00,79.26,1
38.00,81.62,1
106.00,82.50,1
98.00,83.32,1
56.00,84.15,1
126.00,84.77,1
119.00,85.97,1
110.00,87.97,1
96.00,90.17,1
77.00,92.00,1
118.00,93.38,1
45.00,94.31,1
65.00,94.14,1
72.00,92.94,1
166.00,92.05,1
53.00,92.12,1
56.00,91.85,1
95.00,90.75,1
37.00,89.26,1
60.00,87.06,1
62.00,84.32,1
37.00,81.27,1
246.00,79.44,1
39.00,80.13,1
84.00,81.39,1
63.00,81.86,1
115.00,82.21,1
85.00,82.87,1
45.00,83.37,1
38.00,82.76,1
110.00,81.47,1
84.00,80.62,1
62.00,80.12,1
87.00,79.54,1
209.00,80.14,1
47.00,82.53,1
52.00,84.56,1
57.00,85.01,1
178.00,85.39,1
62.00,86.78,1
118.00,88.45,1
106.00,90.13,1
60.00,91.65,1
77.00,92.28,1
117.00,92.44,1
133.00,93.18,1
35.00,94.12,1
43.00,93.76,1
42.00,91.72,1
121.00,89.18,1
55.00,87.11,1
68.00,85.12,1
67.00,82.93,1
139.00,81.34,1
142.00,81.49,1
127.00,83.44,1
97.00,86.24,1
122.00,89.18,1
67.00,91.84,1
94.00,93.72,1
154.00,95.43,1
51.00,97.31,1
116.00,98.60,1
74.00,99.27,1
41.00,99.02,1
92.00,97.59,1
102.00,95.98,1
42.00,94.37,1
81.00,92.23,1
79.00,89.90,1
108.00,88.02,1
49.00,86.53,1
111.00,85.16,1
40.00,83.87,1
135.00,82.81,1
71.00,82.42,1
54.00,82.13,1
54.00,81.12,1
52.00,79.45,1
77.00,77.48,1
88.00,75.85,1
37.00,74.51,1
38.00,72.67,1
116.00,70.76,1
40.00,69.53,1
117.00,68.88,1
192.00,69.99,1
130.00,73.71,1
97.00,78.65,1
96.00,83.27,1
42.00,86.76,1
78.00,88.68,1
68.00,89.41,1
56.00,89.23,1
71.00,88.22,1
70.00,86.75,1
175.00,85.96,1
158.00,87.29,1
104.00,90.35,1
82.00,93.39,1
70.00,95.41,1
128.00,96.68,1
86.00,97.85,1
37.00,98.30,1
109.00,97.61,1
83.00,96.65,1
54.00,95.44,1
230.00,94.85,1
84.00,96.20,1
56.00,97.80,1
40.00,97.73,1
208.00,97.29,1
103.00,98.38,1
65.00,99.92,1
38.00,100.02,1
34.00,98.20,1
76.00,95.07,1
60.00,91.57,1
69.00,88.08,1
109.00,85.05,1
136.00,83.44,1
58.00,83.09,1
126.00,83.21,1
50.00,83.53,1
46.00,83.26,1
126.00,82.51,1
86.00,82.39,1
122.00,83.04,1
36.00,83.83,1
215.00,85.03,1
153.00,88.25,1
44.00,92.48,1
52.00,95.05,1
93.00,95.86,1
92.00,96.02,1
55.00,95.72,1
39.00,94.30,1
82.00,91.89,1
128.00,89.75,1
140.00,89.11,1
58.00,89.54,1
90.00,89.77,1
83.00,89.62,1
123.00,89.68,1
81.00,90.15,1
173.00,91.31,1
122.00,93.72,1
84.00,96.60,1
42.00,98.33,1
116.00,98.75,1
54.00,98.50,1
118.00,97.88,1
154.00,97.85,1
140.00,99.27,1
61.00,101.17,1
52.00,101.87,1
49.00,100.80,1
80.00,98.53,1
46.00,95.67,1
120.00,92.74,1
72.00,90.41,1
90.00,88.57,1
37.00,86.64,1
94.00,84.43,1
54.00,82.27,1
38.00,79.89,1
43.00,76.86,1
40.00,73.37,1
40.00,69.64,1
51.00,65.90,1
108.00,62.95,1
219.00,62.65,1
259.00,67.02,1
62.00,74.78,1
300.00,83.86,1
95.00,94.25,1
162.00,104.44,1
48.00,112.59,1
86.00,117.91,1
59.00,120.33,1
87.00,120.59,1
94.00,119.49,1
80.00,117.64,1
67.00,114.99,1
110.00,111.86,1
112.00,109.08,1
48.00,106.51,1
149.00,103.99,1
80.00,102.16,1
86.00,100.66,1
88.00,99.00,1
79.00,97.28,1
41.00,95.13,1
177.00,93.13,1
61.00,92.30,1
50.00,91.50,1
161.00,90.53,1
49.00,90.29,1
126.00,90.30,1
47.00,90.20,1
82.00,89.64,1
76.00,88.61,1
82.00,87.51,1
58.00,86.24,1
63.00,84.58,1
266.00,84.24,1
99.00,86.95,1
77.00,90.62,1
42.00,92.85,1
89.00,93.53,1
60.00,93.26,1
113.00,92.62,1
97.00,92.24,1
44.00,91.81,1
75.00,90.58,1
59.00,88.75,1
43.00,86.37,1
45.00,83.26,1
56.00,79.71,1
110.00,76.59,1
163.00,75.33,1
165.00,76.84,1
123.00,80.55,1
169.00,85.52,1
36.00,90.58,1
117.00,94.39,1
100.00,97.22,1
42.00,99.12,1
103.00,99.67,1
94.00,99.61,1
104.00,99.54,1
147.00,99.91,1
252.00,102.26,1
39.00,106.39,1
76.00,109.37,1
111.00,110.51,1
46.00,110.56,1
123.00,109.63,1
41.00,108.04,1
49.00,105.34,1
86.00,101.66,1
76.00,97.96,1
58.00,94.34,1
128.00,91.12,1
61.00,88.76,1
63.00,86.62,1
72.00,84.27,1
34.00,81.69,1
79.00,78.84,1
62.00,76.16,1
119.00,74.27,1
54.00,73.30,1
148.00,73.24,1
88.00,74.40,1
66.00,76.05,1
45.00,76.96,1
148.00,77.63,1
142.00,79.56,1
81.00,82.67,1
153.00,86.09,1
36.00,89.33,1
60.00,91.18,1
65.00,91.37,1
111.00,90.98,1
48.00,90.43,1
99.00,89.56,1
140.00,89.12,1
39.00,89.31,1
37.00,88.60,1
105.00,86.91,1
36.00,85.09,1
119.00,83.34,1
36.00,81.81,1
110.00,80.44,1
101.00,79.69,1
268.00,81.31,1
107.00,85.98,1
112.00,91.60,1
87.00,96.30,1
37.00,99.35,1
95.00,100.50,1
59.00,100.41,1
196.00,100.41,1
66.00,101.37,1
134.00,102.57,1
60.00,103.34,1
67.00,103.16,1
98.00,102.02,1
53.00,100.39,1
258.00,99.65,1
65.00,101.04,1
41.00,102.31,1
68.00,101.64,1
198.00,100.87,1
142.00,101.97,1
47.00,103.82,1
62.00,104.26,1
98.00,103.38,1
104.00,102.28,1
98.00,101.40,1
124.00,100.88,1
110.00,100.93,1
74.00,101.09,1
65.00,100.53,1
112.00,99.39,1
44.00,97.99,1
138.00,96.48,1
82.00,95.47,1
56.00,94.50,1
155.00,93.52,1
62.00,93.22,1
148.00,93.45,1
83.00,94.19,1
96.00,95.02,1
98.00,95.59,1
62.00,95.80,1
96.00,95.41,1
51.00,94.47,1
66.00,92.82,1
68.00,90.57,1
82.00,88.21,1
94.00,86.20,1
154.00,85.32,1
56.00,85.62,1
126.00,86.27,1
73.00,87.06,1
58.00,87.50,1
124.00,87.54,1
57.00,87.67,1
52.00,87.26,1
101.00,86.23,1
101.00,85.53,1
85.00,85.37,1
65.00,85.21,1
72.00,84.64,1
152.00,84.39,1
119.00,85.51,1
115.00,87.71,1
94.00,90.15,1
115.00,92.48,1
98.00,94.68,1
101.00,96.63,1
90.00,98.13,1
199.00,100.01,1
161.00,103.49,1
78.00,107.68,1
76.00,110.54,1
114.00,111.90,1
189.00,113.31,1
66.00,115.24,1
85.00,116.25,1
37.00,115.43,1
82.00,113.00,1
75.00,109.68,1
52.00,105.88,1
63.00,101.49,1
87.00,96.97,1
103.00,93.14,1
43.00,89.93,1
48.00,86.47,1
77.00,82.76,1
51.00,79.30,1
41.00,75.85,1
110.00,72.74,1
36.00,70.42,1
74.00,68.45,1
43.00,66.57,1
59.00,64.74,1
75.00,63.17,1
208.00,63.34,1
58.00,65.95,1
56.00,68.89,1
96.00,71.04,1
80.00,73.03,1
58.00,74.73,1
53.00,75.61,1
106.00,76.00,1
37.00,76.29,1
36.00,75.77,1
89.00,74.51,1
67.00,73.41,1
116.00,72.96,1
70.00,73.25,1
111.00,74.09,1
53.00,75.13,1
120.00,76.22,1
69.00,77.52,1
37.00,78.38,1
97.00,78.42,1
64.00,78.30,1
55.00,77.93,1
89.00,77.25,1
37.00,76.40,1
56.00,75.05,1
83.00,73.46,1
83.00,72.35,1
135.00,72.28,1
117.00,73.72,1
82.00,76.11,1
58.00,78.21,1
125.00,79.89,1
158.00,82.37,1
176.00,86.63,1
44.00,91.58,1
103.00,95.35,1
39.00,97.43,1
94.00,98.06,1
41.00,97.50,1
79.00,95.97,1
215.00,95.05,1
48.00,95.83,1
77.00,96.45,1
122.00,96.40,1
107.00,96.72,1
60.00,97.04,1
135.00,97.06,1
55.00,97.05,1
40.00,96.18,1
34.00,93.71,1
73.00,90.22,1
73.00,86.69,1
42.00,83.28,1
110.00,80.15,1
135.00,78.40,1
146.00,78.86,1
69.00,80.70,1
36.00,82.08,1
60.00,82.06,1
38.00,80.92,1
146.00,79.71,1
151.00,80.15,1
107.00,82.42,1
69.00,85.01,1
134.00,87.30,1
63.00,89.47,1
51.00,90.73,1
88.00,90.78,1
138.00,90.83,1
70.00,91.46,1
68.00,91.77,1
75.00,91.29,1
80.00,90.37,1
39.00,88.95,1
44.00,86.59,1
70.00,83.55,1
70.00,80.57,1
84.00,78.07,1
71.00,76.15,1
39.00,74.37,1
38.00,72.09,1
91.00,69.68,1
87.00,68.08,1
86.00,67.51,1
68.00,67.56,1
201.00,68.86,1
82.00,72.12,1
136.00,76.34,1
48.00,80.35,1
81.00,83.33,1
105.00,85.44,1
36.00,86.91,1
45.00,86.99,1
40.00,85.54,1
346.00,85.52,1
58.00,89.23,1
106.00,93.79,1
97.00,97.19,1
88.00,99.77,1
94.00,101.46,1
100.00,102.49,1
78.00,102.96,1
65.00,102.56,1
74.00,101.20,1
40.00,98.90,1
86.00,95.86,1
204.00,93.83,1
132.00,94.38,1
64.00,96.07,1
111.00,97.24,1
130.00,98.35,1
68.00,99.58,1
138.00,100.55,1
95.00,101.60,1
111.00,102.67,1
55.00,103.16,1
38.00,102.24,1
63.00,99.77,1
50.00,96.36,1
43.00,92.27,1
39.00,87.56,1
192.00,83.66,1
86.00,82.13,1
69.00,81.85,1
61.00,81.29,1
79.00,80.40,1
43.00,79.23,1
198.00,78.73,1
132.00,80.46,1
78.00,83.57,1
118.00,86.53,1
102.00,89.35,1
56.00,91.66,1
164.00,93.51,1
70.00,95.58,1
111.00,97.42,1
195.00,99.63,1
62.00,102.68,1
50.00,104.65,1
111.00,104.93,1
127.00,104.98,1
127.00,105.61,1
224.00,107.58,1
134.00,111.41,1
97.00,115.51,1
217.00,119.31,1
112.00,123.59,1
80.00,127.06,1
75.00,128.38,1
127.00,128.06,1
40.00,126.63,1
44.00,123.44,1
100.00,118.81,1
75.00,113.98,1
44.00,108.97,1
70.00,103.48,1
74.00,98.02,1
37.00,92.73,1
62.00,87.38,1
91.00,82.50,1
266.00,80.30,1
104.00,82.00,1
93.00,85.26,1
100.00,88.14,1
304.00,92.36,1
146.00,99.54,1
167.00,108.01,1
104.00,115.71,1
177.00,122.30,1
220.00,128.88,1
272.00,136.98,1
349.00,147.84,1
38.00,159.55,1
117.00,167.64,1
175.00,171.92,1
197.00,174.97,1
81.00,176.88,1
99.00,176.25,1
151.00,173.49,1
210.00,170.70,1
91.00,168.42,1
38.00,164.65,1
92.00,158.47,1
127.00,151.41,1
424.00,147.40,1
54.00,148.05,1
75.00,148.66,1
254.00,148.00,1
40.00,147.76,1
244.00,147.48,1
50.00,147.16,1
207.00,146.61,1
80.00,145.83,1
46.00,143.83,1
198.00,140.61,1
172.00,138.59,1
303.00,139.50,1
110.00,142.92,1
250.00,147.19,1
132.00,151.71,1
116.00,155.33,1
83.00,156.60,1
108.00,155.60,1
92.00,152.92,1
97.00,149.02,1
60.00,143.98,1
163.00,138.54,1
36.00,133.30,1
46.00,127.23,1
127.00,120.51,1
75.00,114.52,1
133.00,109.57,1
156.00,106.30,1
69.00,104.56,1
75.00,102.82,1
175.00,101.37,1
264.00,102.60,1
250.00,108.02,1
48.00,115.28,1
177.00,121.32,1
62.00,125.72,1
72.00,127.98,1
76.00,127.79,1
54.00,125.68,1
148.00,122.67,1
104.00,120.07,1
46.00,117.45,1
70.00,113.76,1
71.00,109.31,1
168.00,105.45,1
96.00,103.20,1
166.00,102.44,1
123.00,103.04,1
231.00,105.40,1
240.00,110.52,1
233.00,118.60,1
383.00,129.82,1
98.00,143.14,1
226.00,155.18,1
91.00,164.50,1
55.00,169.96,1
40.00,170.48,1
245.00,168.36,1
35.00,165.85,1
321.00,163.71,1
91.00,163.04,1
168.00,162.69,1
77.00,161.21,1
46.00,157.77,1
40.00,151.67,1
127.00,144.12,1
286.00,138.42,1
158.00,136.63,1
61.00,136.23,1
49.00,134.14,1
160.00,130.72,1
75.00,127.47,1
72.00,123.93,1
72.00,119.54,1
238.00,116.01,1
220.00,115.87,1
106.00,118.46,1
38.00,120.39,1
68.00,119.92,1
35.00,117.30,1
138.00,113.72,1
75.00,110.42,1
130.00,107.73,1
45.00,105.26,1
82.00,102.40,1
147.00,99.78,1
98.00,98.42,1
76.00,97.59,1
57.00,96.27,1
80.00,94.31,1
103.00,92.34,1
145.00,91.36,1
206.00,92.54,1
212.00,96.75,1
156.00,103.27,1
72.00,109.74,1
126.00,114.55,1
88.00,117.81,1
73.00,119.48,1
127.00,119.78,1
66.00,119.29,1
167.00,118.49,1
37.00,117.58,1
109.00,115.89,1
109.00,113.77,1
226.00,112.99,1
85.00,113.98,1
185.00,115.80,1
134.00,118.22,1
211.00,121.65,1
70.00,125.42,1
47.00,127.42,1
100.00,126.90,1
41.00,124.67,1
132.00,121.45,1
42.00,117.85,1
168.00,114.39,1
136.00,112.23,1
117.00,111.49,1
110.00,111.20,1
207.00,111.82,1
180.00,114.39,1
189.00,118.82,1
65.00,123.42,1
63.00,125.99,1
100.00,126.18,1
69.00,124.87,1
60.00,122.21,1
117.00,118.66,1
38.00,114.79,1
156.00,110.94,1
63.00,107.75,1
44.00,104.47,1
194.00,101.37,1
120.00,100.22,1
167.00,101.01,1
70.00,102.62,1
47.00,103.36,1
81.00,102.54,1
166.00,101.62,1
59.00,101.46,1
120.00,101.32,1
84.00,101.04,1
291.00,102.26,1
109.00,106.20,1
71.00,110.48,1
42.00,112.49,1
98.00,112.36,1
71.00,111.12,1
63.00,109.00,1
43.00,105.75,1
90.00,101.76,1
50.00,97.62,1
70.00,93.38,1
37.00,88.95,1
48.00,84.22,1
71.00,79.54,1
140.00,76.08,1
260.00,75.99,1
82.00,79.52,1
105.00,83.96,1
69.00,87.54,1
59.00,89.86,1
74.00,90.79,1
43.00,90.56,1
81.00,89.37,1
122.00,88.22,1
75.00,87.74,1
94.00,87.50,1
104.00,87.45,1
161.00,88.36,1
160.00,90.98,1
99.00,94.78,1
134.00,98.61,1
209.00,103.01,1
338.00,110.31,1
256.00,121.67,1
51.00,133.76,1
157.00,142.77,1
51.00,148.31,1
131.00,150.84,1
152.00,151.62,1
198.00,152.44,1
62.00,153.06,1
217.00,152.92,1
151.00,153.11,1
62.00,152.99,1
101.00,150.96,1
136.00,147.71,1
68.00,144.00,1
187.00,140.22,1
106.00,137.24,1
174.00,135.17,1
79.00,133.54,1
50.00,131.04,1
176.00,127.73,1
134.00,125.43,1
67.00,123.75,1
61.00,121.09,1
96.00,117.41,1
50.00,113.24,1
154.00,109.21,1
77.00,106.13,1
56.00,103.29,1
107.00,100.16,1
184.00,98.22,1
117.00,98.38,1
38.00,99.02,1
46.00,98.18,1
126.00,96.42,1
36.00,94.64,1
118.00,92.77,1
66.00,91.08,1
112.00,89.77,1
68.00,88.77,1
166.00,88.51,1
151.00,89.94,1
150.00,93.21,1
52.00,96.78,1
75.00,99.00,1
95.00,99.85,1
54.00,99.83,1
50.00,98.59,1
36.00,95.93,1
82.00,92.41,1
141.00,89.50,1
36.00,87.65,1
68.00,85.67,1
49.00,83.16,1
127.00,80.93,1
62.00,79.57,1
62.00,78.49,1
258.00,78.77,1
109.00,82.07,1
114.00,86.72,1
105.00,91.04,1
48.00,94.39,1
170.00,96.88,1
127.00,99.83,1
49.00,102.68,1
234.00,105.25,1
155.00,109.28,1
84.00,113.93,1
51.00,116.79,1
69.00,117.21,1
274.00,117.49,1
63.00,119.47,1
76.00,120.95,1
53.00,120.28,1
168.00,118.68,1
55.00,117.20,1
128.00,115.56,1
40.00,113.39,1
60.00,110.21,1
80.00,106.13,1
80.00,101.99,1
52.00,97.89,1
77.00,93.69,1
80.00,89.76,1
126.00,86.82,1
258.00,86.60,1
151.00,90.10,1
50.00,94.84,1
117.00,98.34,1
77.00,100.73,1
93.00,102.22,1
81.00,102.81,1
86.00,102.67,1
230.00,103.17,1
145.00,105.85,1
96.00,109.48,1
85.00,112.11,1
177.00,114.07,1
131.00,116.49,1
204.00,119.80,1
126.00,123.87,1
37.00,126.93,1
55.00,127.16,1
46.00,124.69,1
34.00,120.18,1
66.00,114.25,1
127.00,108.38,1
45.00,103.35,1
71.00,98.50,1
134.00,94.21,1
231.00,92.55,1
225.00,95.01,1
44.00,99.76,1
78.00,103.31,1
192.00,105.82,1
82.00,108.74,1
93.00,111.08,1
105.00,112.26,1
76.00,112.58,1
76.00,111.85,1
49.00,109.88,1
84.00,106.87,1
95.00,103.62,1
40.00,100.32,1
68.00,96.50,1
72.00,92.45,1
126.00,89.10,1
118.00,87.27,1
132.00,87.10,1
127.00,88.32,1
62.00,90.03,1
96.00,91.21,1
106.00,92.07,1
120.00,93.21,1
80.00,94.53,1
155.00,95.99,1
118.00,98.13,1
47.00,100.13,1
218.00,101.90,1
138.00,105.00,1
65.00,108.50,1
48.00,110.17,1
198.00,110.77,1
92.00,112.00,1
45.00,112.75,1
114.00,112.04,1
127.00,111.09,1
48.00,110.14,1
185.00,109.14,1
99.00,109.06,1
101.00,109.39,1
48.00,108.90,1
64.00,107.08,1
172.00,105.03,1
66.00,103.92,1
94.00,102.94,1
127.00,101.93,1
83.00,101.36,1
36.00,100.29,1
35.00,97.73,1
46.00,93.79,1
69.00,89.31,1
42.00,84.82,1
118.00,80.85,1
68.00,78.02,1
78.00,76.04,1
60.00,74.37,1
102.00,73.12,1
257.00,74.05,1
37.00,77.70,1
127.00,81.71,1
92.00,85.21,1
48.00,88.03,1
173.00,90.24,1
64.00,92.73,1
150.00,95.28,1
79.00,97.73,1
116.00,99.87,1
169.00,102.16,1
89.00,105.01,1
151.00,107.83,1
82.00,110.31,1
124.00,112.18,1
47.00,112.99,1
53.00,112.11,1
181.00,110.49,1
48.00,109.44,1
89.00,108.05,1
66.00,105.84,1
75.00,103.09,1
38.00,99.68,1
141.00,96.21,1
127.00,94.11,1
109.00,93.58,1
90.00,93.68,1
80.00,93.71,1
210.00,94.44,1
160.00,97.34,1
106.00,101.61,1
37.00,104.86,1
39.00,105.65,1
121.00,104.68,1
174.00,104.25,1
217.00,106.16,1
112.00,110.10,1
46.00,113.48,1
165.00,115.34,1
66.00,116.59,1
57.00,116.61,1
172.00,115.66,1
160.00,115.77,1
106.00,116.97,1
110.00,118.00,1
51.00,117.97,1
212.00,117.55,1
62.00,117.79,1
119.00,117.84,1
110.00,117.38,1
110.00,116.85,1
104.00,116.17,1
153.00,115.71,1
84.00,115.61,1
38.00,114.68,1
69.00,112.09,1
119.00,108.84,1
71.00,105.90,1
74.00,102.93,1
82.00,99.76,1
45.00,96.39,1
63.00,92.58,1
95.00,88.83,1
68.00,85.70,1
66.00,82.94,1
86.00,80.46,1
35.00,78.17,1
182.00,76.65,1
118.00,77.24,1
41.00,78.93,1
66.00,79.79,1
287.00,81.61,1
152.00,86.84,1
100.00,93.68,1
144.00,99.87,1
57.00,104.96,1
50.00,107.88,1
152.00,109.09,1
62.00,109.84,1
148.00,110.28,1
69.00,110.50,1
50.00,109.79,1
321.00,109.67,1
101.00,112.51,1
84.00,115.95,1
174.00,118.40,1
155.00,121.20,1
152.00,124.59,1
151.00,128.09,1
47.00,130.65,1
98.00,131.10,1
116.00,130.08,1
266.00,129.92,1
100.00,131.70,1
124.00,133.58,1
67.00,134.02,1
41.00,132.36,1
100.00,128.77,1
107.00,124.65,1
86.00,120.70,1
118.00,116.99,1
80.00,113.63,1
45.00,109.98,1
137.00,106.11,1
189.00,103.86,1
62.00,103.49,1
60.00,102.86,1
64.00,101.02,1
91.00,98.58,1
75.00,96.11,1
242.00,95.05,1
127.00,96.76,1
52.00,99.40,1
112.00,100.95,1
153.00,102.34,1
55.00,103.93,1
39.00,104.17,1
165.00,103.38,1
185.00,103.94,1
65.00,105.90,1
98.00,107.31,1
201.00,108.65,1
261.00,112.38,1
49.00,117.87,1
291.00,123.51,1
40.00,129.28,1
62.00,132.96,1
95.00,133.49,1
67.00,132.12,1
109.00,129.49,1
63.00,126.08,1
39.00,121.58,1
66.00,115.82,1
94.00,109.81,1
43.00,104.06,1
38.00,98.04,1
63.00,91.72,1
68.00,85.80,1
122.00,81.12,1
107.00,78.36,1
143.00,77.62,1
300.00,80.27,1
48.00,86.18,1
150.00,92.33,1
92.00,97.58,1
80.00,101.77,1
111.00,104.58,1
44.00,106.11,1
78.00,106.05,1
192.00,105.75,1
38.00,106.15,1
63.00,105.69,1
54.00,103.62,1
61.00,100.54,1
46.00,96.70,1
222.00,93.68,1
139.00,93.51,1
156.00,95.77,1
68.00,98.61,1
119.00,100.91,1
55.00,102.30,1
191.00,103.44,1
67.00,105.06,1
38.00,105.82,1
95.00,104.87,1
112.00,103.50,1
103.00,102.52,1
40.00,101.34,1
67.00,99.16,1
55.00,96.10,1
113.00,93.00,1
65.00,90.43,1
74.00,88.10,1
83.00,85.87,1
179.00,84.80,1
48.00,85.25,1
36.00,85.34,1
98.00,84.40,1
112.00,83.74,1
101.00,83.97,1
180.00,85.46,1
61.00,88.09,1
266.00,91.89,1
125.00,97.69,1
124.00,104.18,1
93.00,109.52,1
38.00,112.83,1
62.00,113.50,1
74.00,112.21,1
36.00,109.56,1
45.00,105.50,1
132.00,101.06,1
39.00,97.22,1
107.00,93.70,1
137.00,91.17,1
123.00,90.40,1
88.00,90.73,1
230.00,92.36,1
56.00,95.55,1
113.00,98.57,1
89.00,100.67,1
136.00,102.47,1
77.00,104.07,1
128.00,105.29,1
64.00,106.02,1
47.00,105.58,1
43.00,103.37,1
214.00,101.15,1
92.00,100.78,1
118.00,101.45,1
45.00,101.69,1
44.00,100.59,1
51.00,97.91,1
38.00,94.16,1
94.00,90.02,1
76.00,86.40,1
56.00,83.28,1
63.00,80.24,1
167.00,78.16,1
79.00,77.95,1
91.00,78.65,1
95.00,79.52,1
40.00,80.21,1
46.00,79.91,1
132.00,79.22,1
40.00,78.98,1
86.00,78.65,1
170.00,78.96,1
37.00,80.42,1
170.00,82.30,1
80.00,84.78,1
112.00,87.51,1
101.00,90.05,1
168.00,92.99,1
55.00,96.22,1
50.00,98.21,1
57.00,98.21,1
119.00,97.31,1
47.00,96.23,1
88.00,94.71,1
222.00,94.10,1
127.00,96.01,1
65.00,98.77,1
152.00,100.98,1
97.00,103.18,1
64.00,104.83,1
86.00,105.19,1
77.00,104.58,1
202.00,104.31,1
50.00,105.05,1
118.00,105.61,1
159.00,106.23,1
121.00,107.79,1
75.00,109.34,1
68.00,109.70,1
58.00,108.58,1
77.00,106.28,1
140.00,103.94,1
162.00,103.02,1
78.00,103.40,1
131.00,103.99,1
61.00,104.30,1
106.00,104.06,1
66.00,103.23,1
168.00,102.55,1
121.00,102.96,1
172.00,104.69,1
83.00,107.09,1
107.00,109.06,1
82.00,110.07,1
164.00,110.80,1
87.00,111.79,1
210.00,113.38,1
65.00,115.57,1
78.00,116.86,1
90.00,116.55,1
83.00,115.28,1
117.00,113.57,1
109.00,112.05,1
127.00,111.00,1
110.00,110.45,1
364.00,112.28,1
41.00,117.25,1
97.00,121.64,1
76.00,123.52,1
185.00,124.44,1
80.00,125.38,1
59.00,125.29,1
153.00,123.96,1
101.00,122.71,1
117.00,121.60,1
58.00,119.98,1
65.00,117.23,1
54.00,113.27,1
52.00,108.38,1
127.00,103.43,1
35.00,99.07,1
129.00,95.17,1
144.00,92.67,1
53.00,91.61,1
116.00,90.79,1
50.00,89.94,1
48.00,88.50,1
49.00,86.08,1
189.00,84.17,1
107.00,84.38,1
71.00,85.67,1
74.00,86.49,1
110.00,86.97,1
127.00,87.94,1
140.00,89.94,1
122.00,92.88,1
127.00,96.26,1
62.00,99.27,1
35.00,100.63,1
47.00,99.81,1
35.00,97.21,1
108.00,93.88,1
40.00,90.65,1
37.00,87.06,1
151.00,83.64,1
97.00,81.90,1
52.00,81.15,1
70.00,80.13,1
91.00,79.05,1
35.00,77.98,1
68.00,76.49,1
42.00,74.58,1
161.00,73.26,1
136.00,73.95,1
42.00,75.97,1
39.00,77.12,1
38.00,76.75,1
60.00,75.38,1
219.00,74.97,1
190.00,77.88,1
47.00,82.87,1
148.00,87.49,1
38.00,91.26,1
208.00,94.68,1
122.00,98.92,1
96.00,103.41,1
124.00,107.02,1
115.00,110.01,1
167.00,112.96,1
102.00,116.02,1
64.00,118.10,1
38.00,117.99,1
58.00,115.63,1
51.00,111.68,1
233.00,108.23,1
80.00,106.98,1
107.00,106.62,1
80.00,105.90,1
38.00,104.38,1
94.00,101.85,1
70.00,98.99,1
111.00,96.40,1
76.00,94.29,1
48.00,92.13,1
129.00,89.94,1
36.00,88.12,1
121.00,86.49,1
101.00,85.52,1
59.00,85.12,1
45.00,84.18,1
103.00,82.76,1
201.00,82.69,1
109.00,85.00,1
53.00,87.87,1
104.00,89.77,1
112.00,91.34,1
174.00,93.67,1
158.00,97.46,1
169.00,102.58,1
93.00,107.96,1
47.00,111.80,1
36.00,112.84,1
104.00,111.72,1
39.00,109.51,1
83.00,106.41,1
71.00,102.79,1
111.00,99.42,1
88.00,96.73,1
131.00,94.95,1
96.00,94.14,1
39.00,93.41,1
54.00,91.65,1
236.00,90.45,1
65.00,91.45,1
200.00,93.88,1
88.00,97.19,1
76.00,100.22,1
46.00,101.58,1
56.00,101.08,1
117.00,99.63,1
130.00,98.71,1
68.00,98.43,1
38.00,97.47,1
132.00,95.80,1
42.00,94.20,1
126.00,92.69,1
160.00,92.24,1
94.00,93.34,1
136.00,95.09,1
127.00,97.35,1
35.00,99.37,1
75.00,99.86,1
65.00,98.99,1
63.00,97.25,1
59.00,94.78,1
41.00,91.59,1
133.00,88.40,1
45.00,85.97,1
62.00,83.63,1
158.00,81.79,1
134.00,81.92,1
126.00,83.88,1
144.00,86.97,1
46.00,90.25,1
45.00,92.08,1
289.00,93.94,1
132.00,98.53,1
167.00,104.73,1
45.00,110.19,1
156.00,114.11,1
58.00,116.74,1
51.00,117.55,1
43.00,115.95,1
67.00,112.58,1
38.00,108.06,1
118.00,103.19,1
63.00,98.86,1
66.00,94.86,1
131.00,91.38,1
36.00,88.73,1
172.00,86.89,1
44.00,86.13,1
326.00,87.58,1
78.00,92.20,1
38.00,96.98,1
218.00,100.47,1
96.00,104.52,1
308.00,110.12,1
60.00,117.13,1
114.00,123.06,1
274.00,128.14,1
139.00,134.39,1
76.00,139.88,1
39.00,142.14,1
156.00,141.73,1
60.00,140.13,1
69.00,137.11,1
79.00,132.56,1
55.00,127.07,1
66.00,120.79,1
129.00,114.63,1
250.00,110.89,1
111.00,110.51,1
106.00,111.35,1
98.00,111.79,1
118.00,111.91,1
88.00,111.78,1
58.00,110.89,1
65.00,108.77,1
59.00,105.60,1
55.00,101.66,1
85.00,97.40,1
92.00,93.57,1
43.00,90.14,1
123.00,87.04,1
124.00,85.23,1
64.00,84.64,1
45.00,83.85,1
112.00,82.67,1
127.00,82.33,1
181.00,83.85,1
90.00,87.02,1
97.00,90.35,1
84.00,92.93,1
68.00,94.57,1
58.00,94.98,1
41.00,93.99,1
137.00,92.43,1
82.00,91.46,1
76.00,90.83,1
81.00,89.94,1
39.00,88.59,1
39.00,86.25,1
85.00,83.30,1
62.00,80.54,1
58.00,77.99,1
62.00,75.46,1
50.00,72.95,1
68.00,70.53,1
56.00,68.37,1
78.00,66.59,1
106.00,65.66,1
136.00,66.33,1
87.00,68.50,1
65.00,70.98,1
86.00,73.03,1
96.00,74.92,1
80.00,76.84,1
39.00,78.20,1
95.00,78.73,1
55.00,78.88,1
51.00,78.49,1
37.00,77.20,1
80.00,75.37,1
88.00,73.84,1
64.00,72.88,1
107.00,72.41,1
71.00,72.54,1
103.00,73.16,1
107.00,74.39,1
55.00,75.94,1
246.00,78.44,1
117.00,83.24,1
93.00,88.86,1
116.00,93.66,1
62.00,97.40,1
37.00,99.33,1
87.00,99.35,1
127.00,98.87,1
126.00,99.10,1
105.00,100.00,1
137.00,101.29,1
40.00,102.39,1
43.00,101.98,1
113.00,100.25,1
110.00,98.76,1
117.00,98.08,1
240.00,99.17,1
56.00,102.13,1
50.00,104.32,1
82.00,104.48,1
46.00,103.28,1
52.00,100.83,1
125.00,97.90,1
121.00,95.95,1
66.00,94.86,1
64.00,93.52,1
75.00,91.62,1
53.00,89.36,1
86.00,86.89,1
78.00,84.65,1
58.00,82.62,1
77.00,80.59,1
55.00,78.59,1
62.00,76.53,1
40.00,74.24,1
378.00,74.34,1
76.00,79.20,1
66.00,85.21,1
48.00,89.07,1
71.00,90.98,1
168.00,92.39,1
188.00,95.32,1
145.00,100.12,1
41.00,104.74,1
81.00,107.32,1
127.00,108.45,1
97.00,109.29,1
148.00,110.19,1
103.00,111.33,1
219.00,113.27,1
67.00,116.03,1
67.00,117.75,1
64.00,117.36,1
50.00,115.20,1
38.00,111.43,1
60.00,106.40,1
65.00,100.90,1
46.00,95.33,1
53.00,89.67,1
58.00,84.13,1
94.00,79.32,1
86.00,75.79,1
50.00,73.21,1
77.00,71.01,1
109.00,69.58,1
87.00,69.36,1
60.00,69.74,1
102.00,70.28,1
78.00,71.20,1
47.00,72.06,1
44.00,72.12,1
111.00,71.81,1
150.00,72.63,1
92.00,75.03,1
82.00,77.82,1
50.00,79.89,1
127.00,81.38,1
100.00,83.16,1
64.00,85.00,1
122.00,86.48,1
230.00,89.19,1
53.00,93.57,1
44.00,96.94,1
78.00,98.09,1
142.00,98.56,1
72.00,99.24,1
80.00,99.50,1
41.00,98.65,1
119.00,97.06,1
89.00,95.68,1
99.00,94.75,1
61.00,93.79,1
81.00,92.45,1
148.00,91.44,1
73.00,91.36,1
163.00,92.07,1
107.00,93.75,1
238.00,97.02,1
148.00,102.35,1
65.00,107.98,1
70.00,111.58,1
61.00,112.82,1
46.00,112.00,1
120.00,109.91,1
211.00,108.80,1
62.00,109.35,1
107.00,109.80,1
86.00,109.51,1
71.00,108.55,1
53.00,106.54,1
131.00,104.03,1
86.00,102.00,1
180.00,101.08,1
43.00,101.09,1
73.00,100.56,1
74.00,98.99,1
158.00,97.65,1
40.00,96.97,1
41.00,95.53,1
115.00,93.23,1
187.00,92.19,1
103.00,93.27,1
105.00,95.14,1
90.00,96.74,1
166.00,98.48,1
46.00,100.43,1
55.00,101.18,1
63.00,100.21,1
163.00,99.01,1
160.00,99.37,1
243.00,102.35,1
174.00,108.00,1
187.00,115.15,1
78.00,121.95,1
92.00,126.68,1
47.00,128.61,1
248.00,129.41,1
127.00,131.29,1
90.00,133.27,1
76.00,133.55,1
81.00,132.01,1
167.00,129.81,1
38.00,127.60,1
160.00,125.03,1
162.00,123.24,1
90.00,122.56,1
171.00,122.23,1
88.00,122.24,1
35.00,121.34,1
52.00,118.36,1
70.00,113.92,1
301.00,110.85,1
273.00,112.67,1
45.00,117.73,1
86.00,121.39,1
118.00,122.92,1
49.00,123.10,1
37.00,121.25,1
90.00,117.60,1
37.00,113.03,1
38.00,107.49,1
139.00,101.80,1
68.00,97.29,1
121.00,93.91,1
84.00,91.50,1
150.00,90.28,1
82.00,90.22,1
94.00,90.56,1
78.00,90.70,1
168.00,91.27,1
99.00,92.92,1
85.00,94.84,1
53.00,95.81,1
88.00,95.69,1
41.00,94.65,1
76.00,92.77,1
42.00,90.20,1
83.00,87.27,1
122.00,84.89,1
75.00,83.59,1
57.00,82.57,1
155.00,81.91,1
40.00,82.06,1
154.00,82.68,1
70.00,83.86,1
123.00,85.45,1
77.00,87.07,1
170.00,89.14,1
88.00,91.93,1
58.00,94.36,1
183.00,96.28,1
274.00,100.34,1
42.00,106.50,1
154.00,111.89,1
146.00,116.39,1
88.00,120.38,1
223.00,123.93,1
147.00,128.16,1
37.00,131.72,1
66.00,132.40,1
40.00,130.25,1
74.00,126.13,1
49.00,120.78,1
87.00,114.85,1
63.00,108.90,1
304.00,105.06,1
54.00,104.69,1
70.00,104.93,1
88.00,103.99,1
42.00,102.19,1
43.00,99.21,1
110.00,95.65,1
74.00,92.56,1
93.00,90.05,1
61.00,87.83,1
136.00,86.13,1
153.00,86.02,1
107.00,87.64,1
93.00,89.79,1
118.00,91.84,1
39.00,93.41,1
74.00,93.73,1
182.00,93.93,1
44.00,94.95,1
73.00,95.43,1
109.00,95.10,1
44.00,94.47,1
319.00,95.14,1
212.00,99.99,1
68.00,107.09,1
62.00,112.32,1
215.00,115.93,1
155.00,120.20,1
118.00,124.77,1
113.00,128.29,1
80.00,130.22,1
84.00,130.33,1
141.00,129.30,1
45.00,127.64,1
92.00,124.82,1
88.00,121.17,1
141.00,117.76,1
117.00,115.31,1
136.00,113.86,1
86.00,112.92,1
335.00,113.79,1
230.00,118.84,1
60.00,125.85,1
105.00,130.78,1
84.00,133.12,1
123.00,133.75,1
214.00,134.30,1
153.00,136.11,1
63.00,137.80,1
268.00,139.05,1
101.00,141.19,1
51.00,142.45,1
126.00,141.42,1
138.00,139.59,1
46.00,137.28,1
72.00,133.49,1
132.00,128.86,1
126.00,124.90,1
88.00,121.66,1
42.00,118.02,1
64.00,113.29,1
130.00,108.42,1
46.00,104.19,1
71.00,99.96,1
60.00,95.47,1
52.00,90.92,1
56.00,86.26,1
164.00,82.59,1
41.00,80.59,1
111.00,79.36,1
222.00,79.82,1
137.00,83.25,1
107.00,88.09,1
82.00,92.43,1
85.00,95.62,1
46.00,97.33,1
50.00,97.28,1
56.00,95.68,1
36.00,92.91,1
89.00,89.51,1
108.00,86.64,1
127.00,85.16,1
114.00,85.15,1
110.00,86.19,1
116.00,87.85,1
176.00,90.48,1
89.00,94.11,1
115.00,97.63,1
60.00,100.22,1
74.00,101.40,1
86.00,101.38,1
42.00,100.40,1
44.00,98.07,1
62.00,94.63,1
164.00,91.64,1
118.00,90.54,1
125.00,91.06,1
142.00,92.66,1
74.00,94.82,1
40.00,96.05,1
121.00,96.09,1
128.00,96.32,1
44.00,96.80,1
63.00,96.27,1
142.00,95.25,1
45.00,94.58,1
40.00,93.18,1
67.00,90.62,1
40.00,87.43,1
75.00,83.94,1
83.00,80.78,1
77.00,78.33,1
66.00,76.39,1
41.00,74.45,1
210.00,73.50,1
174.00,75.60,1
47.00,79.70,1
122.00,83.41,1
42.00,86.22,1
68.00,87.77,1
67.00,88.08,1
121.00,88.06,1
105.00,88.56,1
83.00,89.44,1
70.00,89.96,1
52.00,89.66,1
67.00,88.46,1
127.00,87.20,1
84.00,86.72,1
76.00,86.55,1
101.00,86.35,1
89.00,86.37,1
45.00,86.21,1
41.00,85.05,1
219.00,84.21,1
97.00,85.57,1
144.00,88.38,1
66.00,91.33,1
69.00,93.40,1
61.00,94.06,1
134.00,94.14,1
170.00,95.21,1
70.00,97.37,1
69.00,98.93,1
68.00,99.11,1
116.00,98.63,1
42.00,97.82,1
41.00,95.97,1
62.00,92.94,1
194.00,90.53,1
99.00,90.25,1
227.00,92.16,1
41.00,95.48,1
42.00,97.74,1
54.00,97.70,1
119.00,96.66,1
39.00,95.40,1
72.00,93.52,1
65.00,91.04,1
35.00,88.10,1
61.00,84.55,1
116.00,81.32,1
55.00,79.06,1
43.00,76.96,1
59.00,74.46,1
76.00,72.05,1
52.00,70.02,1
90.00,68.39,1
140.00,67.98,1
45.00,68.87,1
121.00,70.17,1
118.00,72.20,1
80.00,74.97,1
125.00,77.92,1
79.00,80.98,1
44.00,83.33,1
120.00,84.73,1
124.00,86.36,1
42.00,88.15,1
68.00,88.86,1
112.00,88.86,1
112.00,89.26,1
42.00,89.74,1
85.00,89.46,1
45.00,88.40,1
181.00,87.62,1
66.00,88.03,1
76.00,88.66,1
182.00,89.51,1
44.00,91.20,1
75.00,92.31,1
65.00,92.25,1
46.00,91.24,1
116.00,89.71,1
43.00,88.23,1
62.00,86.37,1
82.00,84.16,1
86.00,82.28,1
67.00,80.78,1
131.00,79.87,1
102.00,80.12,1
58.00,80.92,1
53.00,81.08,1
60.00,80.36,1
57.00,79.06,1
77.00,77.53,1
45.00,75.91,1
39.00,73.87,1
116.00,71.86,1
135.00,71.33,1
42.00,72.11,1
62.00,72.65,1
97.00,72.82,1
64.00,73.19,1
42.00,73.25,1
37.00,72.40,1
58.00,70.79,1
89.00,69.23,1
36.00,68.00,1
85.00,66.85,1
103.00,66.32,1
38.00,66.44,1
40.00,66.15,1
118.00,65.69,1
121.00,66.45,1
157.00,69.13,1
50.00,72.90,1
78.00,76.12,1
105.00,78.62,1
204.00,82.00,1
97.00,86.90,1
93.00,91.80,1
44.00,95.18,1
73.00,96.70,1
79.00,96.86,1
73.00,96.30,1
89.00,95.27,1
125.00,94.45,1
77.00,94.15,1
112.00,94.04,1
68.00,93.90,1
77.00,93.37,1
42.00,92.05,1
78.00,89.98,1
53.00,87.49,1
58.00,84.71,1
58.00,81.67,1
140.00,79.26,1
67.00,78.16,1
78.00,77.65,1
103.00,77.39,1
251.00,79.06,1
158.00,84.04,1
139.00,90.88,1
94.00,97.45,1
118.00,102.90,1
70.00,106.94,1
82.00,109.28,1
202.00,111.04,1
44.00,113.10,1
78.00,113.95,1
40.00,112.79,1
145.00,110.67,1
67.00,108.69,1
122.00,106.89,1
54.00,105.02,1
52.00,102.43,1
37.00,98.68,1
51.00,94.03,1
36.00,88.82,1
265.00,85.13,1
86.00,84.90,1
151.00,86.82,1
49.00,89.03,1
92.00,90.58,1
106.00,91.55,1
147.00,93.00,1
77.00,94.98,1
57.00,96.30,1
44.00,96.05,1
69.00,94.42,1
240.00,93.56,1
37.00,94.67,1
86.00,95.70,1
109.00,95.93,1
101.00,96.28,1
126.00,96.98,1
187.00,98.78,1
176.00,102.48,1
198.00,108.03,1
66.00,113.95,1
240.00,119.40,1
98.00,124.92,1
127.00,129.63,1
38.00,132.15,1
175.00,132.80,1
73.00,132.71,1
121.00,131.90,1
57.00,129.99,1
54.00,126.61,1
104.00,122.07,1
57.00,117.21,1
136.00,112.57,1
86.00,108.75,1
52.00,105.23,1
85.00,101.33,1
47.00,97.24,1
127.00,93.44,1
98.00,90.76,1
171.00,89.82,1
95.00,90.60,1
56.00,91.65,1
102.00,91.98,1
62.00,91.84,1
70.00,91.14,1
45.00,89.63,1
42.00,87.17,1
114.00,84.43,1
132.00,82.88,1
70.00,82.68,1
40.00,82.37,1
97.00,81.46,1
248.00,82.06,1
44.00,85.07,1
48.00,87.72,1
59.00,88.48,1
66.00,88.04,1
65.00,86.90,1
169.00,86.17,1
75.00,86.75,1
132.00,88.06,1
173.00,90.39,1
218.00,94.97,1
171.00,101.77,1
203.00,109.89,1
75.00,117.84,1
131.00,123.98,1
233.00,129.25,1
60.00,134.43,1
72.00,137.42,1
89.00,137.55,1
110.00,136.05,1
104.00,133.82,1
121.00,131.33,1
60.00,128.43,1
75.00,124.59,1
174.00,120.72,1
143.00,118.48,1
161.00,118.01,1
46.00,117.97,1
64.00,116.64,1
85.00,113.91,1
52.00,110.43,1
165.00,107.06,1
70.00,104.69,1
81.00,102.62,1
72.00,100.16,1
79.00,97.49,1
65.00,94.68,1
108.00,92.03,1
60.00,89.79,1
73.00,87.61,1
59.00,85.25,1
191.00,83.79,1
306.00,86.12,1
71.00,92.27,1
85.00,98.30,1
76.00,102.26,1
65.00,104.37,1
89.00,104.98,1
147.00,105.19,1
154.00,106.30,1
61.00,107.90,1
118.00,108.80,1
139.00,109.49,1
52.00,110.10,1
53.00,109.34,1
50.00,106.88,1
50.00,103.15,1
56.00,98.58,1
45.00,93.55,1
76.00,88.46,1
137.00,84.44,1
76.00,82.13,1
39.00,80.37,1
70.00,78.21,1
166.00,76.84,1
89.00,77.33,1
41.00,78.35,1
119.00,78.92,1
116.00,80.02,1
81.00,81.79,1
118.00,83.71,1
93.00,85.80,1
82.00,87.74,1
147.00,89.65,1
45.00,91.63,1
63.00,92.58,1
51.00,92.07,1
73.00,90.59,1
104.00,88.96,1
144.00,88.30,1
51.00,88.55,1
79.00,88.49,1
40.00,87.57,1
65.00,85.83,1
81.00,83.73,1
36.00,81.53,1
75.00,79.05,1
103.00,76.95,1
181.00,76.63,1
103.00,78.57,1
46.00,81.04,1
196.00,83.46,1
53.00,86.62,1
112.00,89.57,1
74.00,91.75,1
61.00,93.03,1
128.00,93.60,1
93.00,94.33,1
86.00,95.07,1
51.00,95.09,1
84.00,94.21,1
52.00,92.67,1
42.00,90.32,1
36.00,86.96,1
71.00,83.06,1
99.00,79.64,1
117.00,77.60,1
160.00,77.55,1
189.00,80.15,1
45.00,84.31,1
187.00,88.53,1
84.00,92.97,1
88.00,96.94,1
98.00,99.70,1
81.00,101.52,1
63.00,102.20,1
87.00,101.77,1
120.00,101.02,1
62.00,100.32,1
87.00,99.22,1
42.00,97.39,1
135.00,95.31,1
53.00,93.59,1
172.00,92.61,1
127.00,93.14,1
37.00,94.30,1
58.00,94.19,1
36.00,92.53,1
41.00,89.61,1
60.00,85.89,1
40.00,81.87,1
55.00,77.72,1
66.00,73.77,1
206.00,71.61,1
45.00,71.94,1
167.00,73.64,1
70.00,76.23,1
60.00,78.72,1
192.00,81.16,1
40.00,84.35,1
64.00,86.76,1
46.00,87.48,1
41.00,86.75,1
46.00,84.76,1
82.00,82.22,1
44.00,79.67,1
88.00,77.23,1
237.00,76.60,1
127.00,79.33,1
36.00,83.15,1
101.00,85.77,1
150.00,88.14,1
64.00,90.88,1
131.00,93.34,1
66.00,95.36,1
102.00,96.76,1
56.00,97.31,1
126.00,97.32,1
218.00,98.46,1
127.00,101.79,1
143.00,106.05,1
88.00,109.93,1
79.00,112.52,1
135.00,113.91,1
96.00,114.88,1
50.00,114.93,1
81.00,113.42,1
62.00,110.78,1
117.00,107.75,1
52.00,104.77,1
100.00,101.69,1
41.00,98.40,1
48.00,94.54,1
50.00,90.02,1
223.00,86.68,1
68.00,85.95,1
64.00,86.05,1
54.00,85.35,1
79.00,84.07,1
58.00,82.55,1
157.00,81.57,1
55.00,81.68,1
90.00,82.02,1
59.00,81.99,1
46.00,81.35,1
129.00,80.48,1
273.00,81.95,1
37.00,86.29,1
82.00,90.29,1
73.00,92.60,1
44.00,93.52,1
223.00,94.30,1
112.00,96.76,1
52.00,99.56,1
259.00,102.32,1
126.00,106.81,1
49.00,111.31,1
62.00,113.41,1
129.00,113.75,1
39.00,113.21,1
92.00,111.52,1
68.00,108.95,1
93.00,106.05,1
161.00,103.77,1
132.00,103.14,1
89.00,103.50,1
142.00,104.10,1
110.00,105.11,1
68.00,105.95,1
42.00,105.45,1
78.00,103.48,1
47.00,100.57,1
156.00,97.74,1
62.00,95.85,1
40.00,93.88,1
256.00,92.57,1
127.00,94.16,1
75.00,97.10,1
107.00,99.29,1
106.00,100.93,1
46.00,101.86,1
86.00,101.53,1
36.00,100.01,1
90.00,97.60,1
40.00,94.64,1
81.00,91.33,1
106.00,88.34,1
60.00,86.08,1
70.00,83.96,1
49.00,81.61,1
69.00,79.09,1
114.00,77.05,1
132.00,76.52,1
138.00,77.87,1
65.00,80.23,1
116.00,82.55,1
68.00,84.60,1
236.00,87.40,1
88.00,91.87,1
110.00,96.55,1
109.00,100.36,1
132.00,103.74,1
183.00,107.48,1
127.00,111.94,1
166.00,116.62,1
138.00,121.27,1
71.00,125.03,1
124.00,127.07,1
158.00,128.35,1
187.00,130.27,1
148.00,133.04,1
224.00,136.60,1
74.00,140.33,1
73.00,142.17,1
194.00,142.31,1
58.00,141.99,1
40.00,139.94,1
283.00,137.23,1
66.00,136.20,1
90.00,135.08,1
152.00,133.04,1
118.00,131.33,1
178.00,130.37,1
148.00,130.48,1
75.00,130.79,1
124.00,130.19,1
39.00,128.40,1
112.00,125.37,1
94.00,121.87,1
70.00,118.23,1
138.00,114.63,1
135.00,112.08,1
284.00,112.20,1
76.00,115.04,1
327.00,119.72,1
180.00,126.89,1
237.00,135.79,1
45.00,143.84,1
263.00,150.08,1
59.00,155.07,1
86.00,157.58,1
61.00,156.68,1
138.00,153.68,1
72.00,149.69,1
214.00,145.81,1
187.00,143.73,1
80.00,142.93,1
81.00,141.10,1
117.00,138.01,1
161.00,135.02,1
148.00,133.16,1
101.00,131.96,1
110.00,130.48,1
139.00,128.84,1
122.00,127.55,1
60.00,126.01,1
62.00,123.16,1
80.00,119.09,1
182.00,115.40,1
129.00,113.53,1
94.00,112.78,1
240.00,113.09,1
49.00,114.75,1
40.00,115.34,1
146.00,114.24,1
104.00,113.23,1
68.00,112.20,1
213.00,111.46,1
47.00,111.69,1
279.00,113.03,1
83.00,115.99,1
50.00,118.50,1
362.00,121.00,1
76.00,125.93,1
82.00,130.44,1
158.00,132.84,1
58.00,134.03,1
214.00,134.53,1
122.00,135.49,1
60.00,136.02,1
383.00,137.10,1
38.00,140.53,1
104.00,143.14,1
119.00,143.39,1
110.00,142.57,1
37.00,140.34,1
83.00,136.21,1
97.00,131.03,1
36.00,125.34,1
177.00,119.73,1
44.00,115.09,1
68.00,110.52,1
175.00,106.32,1
100.00,103.93,1
130.00,102.84,1
96.00,102.40,1
68.00,101.89,1
115.00,101.00,1
138.00,100.60,1
209.00,101.93,1
105.00,105.04,1
136.00,108.54,1
41.00,111.06,1
127.00,112.13,1
110.00,112.58,1
111.00,112.99,1
219.00,114.12,1
100.00,116.61,1
46.00,118.49,1
123.00,118.60,1
52.00,117.58,1
74.00,115.39,1
53.00,112.00,1
223.00,109.05,1
81.00,108.01,1
48.00,107.22,1
54.00,104.96,1
146.00,102.26,1
42.00,100.04,1
78.00,97.58,1
102.00,94.97,1
66.00,92.72,1
52.00,90.30,1
86.00,87.59,1
47.00,84.88,1
70.00,82.07,1
82.00,79.44,1
61.00,77.25,1
71.00,75.31,1
152.00,74.28,1
82.00,74.82,1
147.00,76.60,1
50.00,78.94,1
60.00,80.65,1
169.00,82.08,1
159.00,85.07,1
46.00,88.94,1
63.00,91.54,1
168.00,93.29,1
69.00,95.40,1
127.00,97.44,1
49.00,98.83,1
39.00,98.79,1
117.00,97.50,1
65.00,96.09,1
80.00,94.53,1
86.00,92.79,1
38.00,90.79,1
40.00,87.93,1
69.00,84.38,1
49.00,80.76,1
83.00,77.41,1
39.00,74.40,1
108.00,71.88,1
96.00,70.50,1
45.00,69.98,1
94.00,69.59,1
43.00,69.27,1
38.00,68.53,1
46.00,67.07,1
59.00,65.29,1
62.00,63.65,1
73.00,62.42,1
46.00,61.52,1
