33.00,35.54,1
32.00,35.43,1
32.00,35.24,1
35.00,35.01,1
32.00,34.79,1
33.00,34.56,1
42.00,34.40,1
37.00,34.42,1
35.00,34.54,1
35.00,34.67,1
32.00,34.75,1
38.00,34.80,1
39.00,34.89,1
31.00,35.03,1
37.00,35.12,1
32.00,35.16,1
30.00,35.10,1
37.00,34.97,1
34.00,34.85,1
33.00,34.75,1
31.00,34.61,1
34.00,34.42,1
30.00,34.21,1
34.00,33.97,1
31.00,33.73,1
34.00,33.51,1
36.00,33.35,1
32.00,33.27,1
38.00,33.25,1
41.00,33.36,1
48.00,33.74,1
38.00,34.35,1
48.00,35.11,1
34.00,35.91,1
48.00,36.69,1
46.00,37.52,1
39.00,38.40,1
44.00,39.18,1
60.00,40.02,1
32.00,40.96,1
42.00,41.70,1
32.00,42.10,1
40.00,42.21,1
31.00,42.09,1
52.00,41.88,1
37.00,41.76,1
39.00,41.65,1
34.00,41.42,1
36.00,41.06,1
34.00,40.59,1
45.00,40.12,1
34.00,39.74,1
40.00,39.40,1
33.00,39.06,1
43.00,38.74,1
34.00,38.48,1
42.00,38.27,1
44.00,38.19,1
36.00,38.24,1
50.00,38.38,1
31.00,38.60,1
37.00,38.73,1
37.00,38.71,1
40.00,38.67,1
39.00,38.65,1
55.00,38.79,1
40.00,39.17,1
46.00,39.67,1
33.00,40.10,1
41.00,40.36,1
33.00,40.45,1
55.00,40.52,1
36.00,40.71,1
81.00,41.23,1
30.00,42.15,1
60.00,43.12,1
33.00,43.95,1
42.00,44.51,1
57.00,44.90,1
61.00,45.50,1
34.00,46.22,1
49.00,46.70,1
31.00,46.87,1
48.00,46.76,1
32.00,46.45,1
34.00,45.88,1
30.00,45.00,1
60.00,44.12,1
32.00,43.50,1
31.00,42.87,1
35.00,42.04,1
36.00,41.15,1
41.00,40.34,1
37.00,39.67,1
31.00,39.06,1
31.00,38.37,1
69.00,37.92,1
43.00,38.08,1
58.00,38.70,1
31.00,39.47,1
47.00,40.13,1
43.00,40.69,1
61.00,41.38,1
30.00,42.14,1
50.00,42.74,1
31.00,43.11,1
60.00,43.39,1
51.00,43.84,1
70.00,44.65,1
42.00,45.71,1
42.00,46.63,1
35.00,47.12,1
49.00,47.27,1
42.00,47.26,1
65.00,47.33,1
30.00,47.49,1
38.00,47.38,1
40.00,46.94,1
30.00,46.28,1
35.00,45.36,1
30.00,44.23,1
96.00,43.50,1
49.00,43.74,1
43.00,44.44,1
31.00,44.87,1
61.00,45.09,1
45.00,45.40,1
45.00,45.76,1
41.00,45.97,1
49.00,46.07,1
40.00,46.10,1
46.00,46.04,1
54.00,46.02,1
77.00,46.38,1
37.00,47.15,1
64.00,47.96,1
32.00,48.61,1
58.00,49.03,1
31.00,49.22,1
48.00,49.11,1
36.00,48.76,1
31.00,48.12,1
31.00,47.11,1
34.00,45.83,1
30.00,44.40,1
32.00,42.89,1
33.00,41.38,1
31.00,39.92,1
48.00,38.68,1
35.00,37.80,1
45.00,37.23,1
32.00,36.86,1
39.00,36.59,1
69.00,36.65,1
63.00,37.47,1
32.00,38.73,1
64.00,39.99,1
51.00,41.37,1
76.00,43.06,1
36.00,44.89,1
65.00,46.56,1
36.00,47.96,1
65.00,49.11,1
42.00,50.08,1
58.00,50.87,1
44.00,51.45,1
41.00,51.74,1
37.00,51.60,1
36.00,51.03,1
34.00,50.08,1
35.00,48.86,1
34.00,47.46,1
29.00,45.92,1
47.00,44.38,1
33.00,43.03,1
51.00,41.94,1
34.00,41.12,1
40.00,40.46,1
50.00,39.97,1
73.00,40.03,1
31.00,40.64,1
33.00,41.14,1
34.00,41.25,1
58.00,41.28,1
38.00,41.50,1
90.00,42.14,1
36.00,43.35,1
78.00,44.81,1
46.00,46.41,1
42.00,47.84,1
35.00,48.71,1
71.00,49.28,1
76.00,50.17,1
55.00,51.50,1
42.00,52.69,1
96.00,53.79,1
31.00,55.05,1
33.00,55.76,1
29.00,55.50,1
44.00,54.58,1
37.00,53.34,1
52.00,52.05,1
33.00,50.78,1
35.00,49.40,1
49.00,47.97,1
36.00,46.70,1
61.00,45.69,1
53.00,45.16,1
52.00,45.07,1
61.00,45.32,1
67.00,46.00,1
82.00,47.28,1
116.00,49.56,1
60.00,52.77,1
132.00,56.50,1
47.00,60.54,1
72.00,64.07,1
31.00,66.47,1
61.00,67.72,1
31.00,67.94,1
35.00,67.17,1
30.00,65.44,1
86.00,63.45,1
39.00,61.84,1
81.00,60.60,1
37.00,59.61,1
73.00,58.78,1
42.00,58.06,1
69.00,57.47,1
46.00,56.98,1
59.00,56.55,1
74.00,56.31,1
45.00,56.36,1
40.00,56.21,1
55.00,55.73,1
67.00,55.32,1
104.00,55.61,1
89.00,56.99,1
49.00,58.89,1
48.00,60.33,1
36.00,60.93,1
72.00,60.95,1
31.00,60.70,1
78.00,60.26,1
41.00,59.81,1
81.00,59.48,1
40.00,59.28,1
58.00,58.97,1
64.00,58.61,1
64.00,58.46,1
35.00,58.29,1
49.00,57.75,1
37.00,56.84,1
57.00,55.75,1
52.00,54.75,1
55.00,53.98,1
32.00,53.20,1
33.00,52.11,1
71.00,50.95,1
32.00,50.10,1
42.00,49.26,1
56.00,48.41,1
56.00,47.90,1
31.00,47.58,1
79.00,47.39,1
40.00,47.57,1
72.00,48.05,1
60.00,48.84,1
110.00,50.32,1
63.00,52.63,1
50.00,55.02,1
59.00,56.84,1
81.00,58.41,1
45.00,59.87,1
91.00,61.16,1
31.00,62.26,1
77.00,62.93,1
43.00,63.25,1
62.00,63.25,1
40.00,62.87,1
31.00,61.91,1
33.00,60.25,1
33.00,58.07,1
42.00,55.65,1
40.00,53.26,1
53.00,51.13,1
35.00,49.32,1
49.00,47.74,1
127.00,47.11,1
169.00,49.03,1
77.00,53.39,1
133.00,58.72,1
32.00,63.94,1
127.00,68.48,1
82.00,72.70,1
130.00,76.99,1
39.00,80.85,1
79.00,83.48,1
68.00,84.91,1
114.00,85.92,1
50.00,86.69,1
132.00,87.28,1
65.00,87.97,1
34.00,88.03,1
36.00,86.57,1
84.00,84.17,1
62.00,81.75,1
56.00,79.40,1
39.00,76.74,1
32.00,73.55,1
55.00,70.00,1
36.00,66.47,1
56.00,63.10,1
81.00,60.34,1
107.00,58.93,1
101.00,59.21,1
162.00,61.35,1
77.00,65.10,1
55.00,68.86,1
71.00,71.57,1
136.00,74.01,1
62.00,76.78,1
143.00,79.67,1
75.00,82.73,1
151.00,86.00,1
41.00,89.09,1
56.00,90.89,1
46.00,90.91,1
72.00,89.75,1
40.00,87.78,1
181.00,86.14,1
39.00,85.68,1
82.00,85.33,1
66.00,84.46,1
97.00,83.57,1
45.00,82.66,1
32.00,81.04,1
35.00,78.31,1
33.00,74.74,1
60.00,70.90,1
47.00,67.29,1
46.00,63.97,1
38.00,60.80,1
93.00,58.16,1
56.00,56.54,1
130.00,56.22,1
52.00,57.17,1
136.00,59.07,1
148.00,62.45,1
132.00,67.64,1
81.00,73.42,1
156.00,79.10,1
84.00,84.75,1
59.00,89.41,1
94.00,92.45,1
70.00,94.33,1
36.00,94.87,1
134.00,94.43,1
123.00,94.50,1
76.00,95.22,1
48.00,95.28,1
44.00,93.95,1
39.00,91.25,1
33.00,87.47,1
33.00,82.82,1
47.00,77.76,1
38.00,72.70,1
36.00,67.76,1
160.00,64.00,1
33.00,62.25,1
81.00,61.40,1
55.00,60.79,1
72.00,60.50,1
102.00,60.77,1
139.00,62.39,1
148.00,65.93,1
102.00,70.89,1
79.00,75.87,1
185.00,80.84,1
67.00,86.20,1
276.00,92.35,1
171.00,100.48,1
134.00,109.57,1
76.00,117.11,1
82.00,122.02,1
78.00,124.32,1
326.00,126.62,1
34.00,130.51,1
175.00,133.85,1
33.00,135.42,1
35.00,134.40,1
71.00,130.64,1
35.00,125.20,1
70.00,118.67,1
296.00,113.68,1
46.00,112.00,1
226.00,112.10,1
205.00,114.26,1
290.00,119.76,1
135.00,127.61,1
292.00,136.39,1
199.00,146.14,1
152.00,155.70,1
153.00,163.24,1
132.00,168.44,1
298.00,172.74,1
298.00,178.77,1
365.00,187.82,1
126.00,198.04,1
256.00,206.47,1
137.00,212.45,1
141.00,215.51,1
202.00,215.80,1
77.00,214.04,1
94.00,209.35,1
430.00,204.60,1
147.00,203.31,1
214.00,203.37,1
195.00,203.05,1
65.00,201.61,1
161.00,197.84,1
117.00,192.59,1
290.00,187.90,1
364.00,186.92,1
177.00,189.84,1
48.00,192.12,1
202.00,191.44,1
140.00,189.50,1
159.00,187.05,1
227.00,184.67,1
182.00,183.33,1
133.00,182.23,1
194.00,180.67,1
148.00,179.04,1
262.00,178.10,1
169.00,178.47,1
120.00,178.80,1
101.00,177.36,1
90.00,173.80,1
113.00,168.58,1
96.00,162.44,1
59.00,155.42,1
94.00,147.47,1
44.00,138.94,1
54.00,129.82,1
32.00,120.10,1
52.00,110.14,1
37.00,100.35,1
35.00,90.93,1
51.00,82.06,1
31.00,73.99,1
74.00,66.96,1
58.00,61.38,1
764.00,63.03,1
395.00,78.61,1
169.00,102.29,1
122.00,123.95,1
92.00,140.50,1
681.00,156.63,1
219.00,177.54,1
70.00,197.39,1
592.00,213.79,1
294.00,232.01,1
345.00,250.78,1
139.00,266.04,1
420.00,277.46,1
198.00,286.71,1
214.00,292.76,1
235.00,294.80,1
598.00,297.20,1
51.00,301.45,1
58.00,300.92,1
208.00,293.65,1
431.00,285.89,1
42.00,279.73,1
182.00,271.57,1
713.00,265.64,1
42.00,265.98,1
230.00,265.92,1
998.00,269.48,1
589.00,286.60,1
208.00,309.92,1
541.00,330.17,1
323.00,347.97,1
372.00,362.87,1
710.00,376.88,1
391.00,393.13,1
96.00,405.61,1
301.00,408.97,1
475.00,407.68,1
228.00,405.43,1
121.00,399.02,1
48.00,385.17,1
594.00,368.58,1
268.00,356.27,1
60.00,344.97,1
74.00,328.72,1
102.00,307.91,1
754.00,290.45,1
38.00,281.26,1
83.00,272.51,1
507.00,262.74,1
386.00,258.90,1
127.00,259.07,1
89.00,256.65,1
47.00,249.17,1
876.00,244.02,1
183.00,248.43,1
104.00,254.73,1
158.00,255.62,1
344.00,254.17,1
152.00,252.91,1
169.00,250.34,1
271.00,246.40,1
581.00,245.95,1
467.00,253.11,1
126.00,263.73,1
638.00,274.31,1
174.00,286.31,1
259.00,296.25,1
35.00,299.94,1
230.00,297.45,1
32.00,290.12,1
592.00,282.25,1
109.00,277.91,1
140.00,273.26,1
192.00,265.43,1
55.00,255.49,1
44.00,242.30,1
175.00,226.83,1
249.00,212.88,1
400.00,204.10,1
368.00,202.53,1
299.00,206.47,1
271.00,212.89,1
917.00,225.40,1
629.00,250.17,1
108.00,279.61,1
419.00,303.14,1
300.00,321.30,1
272.00,335.15,1
516.00,345.81,1
305.00,355.77,1
481.00,364.86,1
217.00,371.97,1
44.00,372.95,1
72.00,364.55,1
280.00,349.96,1
246.00,334.53,1
34.00,318.40,1
89.00,298.87,1
139.00,276.93,1
176.00,255.61,1
346.00,237.88,1
78.00,224.37,1
164.00,212.19,1
268.00,201.49,1
317.00,195.09,1
217.00,193.07,1
170.00,192.78,1
37.00,191.08,1
350.00,188.38,1
311.00,188.75,1
353.00,193.78,1
390.00,202.83,1
217.00,214.17,1
311.00,225.10,1
354.00,235.81,1
324.00,247.30,1
373.00,259.21,1
218.00,270.33,1
349.00,279.41,1
569.00,289.34,1
458.00,303.36,1
579.00,321.04,1
61.00,337.73,1
157.00,346.37,1
216.00,346.37,1
32.00,340.10,1
66.00,326.93,1
194.00,309.09,1
353.00,292.00,1
55.00,277.25,1
100.00,261.50,1
163.00,244.32,1
178.00,228.16,1
85.00,213.33,1
162.00,199.22,1
174.00,186.73,1
64.00,175.81,1
203.00,165.87,1
108.00,157.61,1
187.00,151.15,1
506.00,149.42,1
46.00,153.42,1
64.00,156.85,1
120.00,156.70,1
376.00,157.03,1
238.00,161.26,1
340.00,168.96,1
445.00,180.45,1
61.00,193.86,1
47.00,202.73,1
298.00,206.51,1
93.00,208.66,1
410.00,210.77,1
206.00,214.66,1
291.00,219.73,1
155.00,224.10,1
197.00,226.61,1
111.00,226.47,1
52.00,222.80,1
127.00,215.50,1
236.00,207.28,1
324.00,201.81,1
253.00,200.40,1
348.00,202.48,1
84.00,205.89,1
138.00,207.09,1
318.00,206.77,1
595.00,211.00,1
534.00,224.14,1
302.00,242.96,1
415.00,262.11,1
744.00,283.47,1
460.00,309.86,1
88.00,334.16,1
385.00,349.99,1
149.00,358.75,1
311.00,361.78,1
268.00,360.68,1
259.00,357.08,1
389.00,352.24,1
503.00,349.66,1
132.00,348.76,1
111.00,343.81,1
118.00,332.64,1
103.00,316.87,1
115.00,298.03,1
178.00,278.08,1
81.00,258.28,1
422.00,240.99,1
33.00,227.82,1
118.00,215.29,1
46.00,201.26,1
341.00,188.51,1
221.00,180.41,1
61.00,175.25,1
71.00,168.97,1
226.00,162.16,1
392.00,159.17,1
353.00,162.96,1
372.00,172.55,1
360.00,186.14,1
478.00,203.25,1
450.00,224.13,1
421.00,247.42,1
309.00,270.16,1
315.00,289.69,1
158.00,304.03,1
350.00,313.01,1
286.00,318.95,1
254.00,322.63,1
121.00,322.31,1
49.00,315.95,1
91.00,303.21,1
222.00,287.21,1
187.00,271.54,1
58.00,256.08,1
122.00,239.39,1
191.00,222.88,1
191.00,208.70,1
137.00,196.90,1
107.00,186.15,1
93.00,175.49,1
344.00,166.85,1
177.00,162.66,1
290.00,162.31,1
118.00,163.89,1
298.00,166.48,1
603.00,173.91,1
521.00,190.46,1
693.00,216.03,1
505.00,248.26,1
314.00,281.26,1
171.00,307.81,1
234.00,325.14,1
284.00,335.14,1
448.00,341.99,1
491.00,349.71,1
54.00,356.29,1
347.00,357.34,1
100.00,353.36,1
360.00,346.17,1
490.00,340.10,1
412.00,338.72,1
149.00,338.56,1
121.00,334.15,1
70.00,323.57,1
233.00,308.95,1
67.00,292.63,1
213.00,275.35,1
45.00,257.54,1
152.00,239.24,1
450.00,224.04,1
165.00,215.17,1
403.00,211.11,1
270.00,211.33,1
225.00,214.17,1
524.00,219.55,1
319.00,229.56,1
93.00,239.96,1
524.00,248.43,1
386.00,259.25,1
43.00,269.98,1
480.00,277.03,1
440.00,285.17,1
259.00,295.30,1
80.00,301.78,1
321.00,302.84,1
256.00,301.72,1
379.00,300.91,1
510.00,302.95,1
312.00,308.64,1
86.00,312.84,1
176.00,311.18,1
144.00,304.44,1
69.00,293.69,1
191.00,279.68,1
40.00,263.84,1
141.00,246.44,1
35.00,227.98,1
127.00,209.22,1
143.00,191.60,1
174.00,176.74,1
219.00,165.46,1
265.00,158.65,1
462.00,158.24,1
439.00,166.14,1
412.00,181.05,1
543.00,201.29,1
357.00,225.42,1
302.00,249.21,1
211.00,268.73,1
468.00,284.54,1
361.00,299.62,1
271.00,313.25,1
430.00,324.25,1
251.00,333.32,1
364.00,339.91,1
31.00,342.04,1
56.00,336.39,1
280.00,324.48,1
166.00,311.14,1
100.00,296.61,1
212.00,280.49,1
253.00,265.40,1
56.00,251.56,1
38.00,236.03,1
263.00,219.67,1
331.00,207.36,1
556.00,203.39,1
304.00,208.21,1
132.00,215.68,1
280.00,221.24,1
295.00,226.31,1
417.00,233.32,1
420.00,243.70,1
494.00,257.97,1
357.00,274.92,1
427.00,292.20,1
265.00,307.87,1
434.00,321.10,1
160.00,331.22,1
354.00,337.13,1
203.00,339.33,1
160.00,337.34,1
631.00,334.23,1
410.00,335.97,1
359.00,341.18,1
302.00,345.69,1
64.00,346.17,1
188.00,340.14,1
127.00,328.89,1
143.00,314.35,1
142.00,297.45,1
41.00,278.65,1
116.00,257.94,1
108.00,236.84,1
32.00,216.01,1
60.00,194.96,1
326.00,176.47,1
490.00,166.52,1
387.00,167.61,1
309.00,175.96,1
500.00,188.88,1
156.00,204.60,1
399.00,219.79,1
605.00,236.96,1
398.00,258.78,1
391.00,281.68,1
587.00,304.38,1
268.00,326.73,1
302.00,344.66,1
288.00,356.51,1
379.00,364.14,1
265.00,368.74,1
231.00,369.49,1
278.00,366.17,1
307.00,360.56,1
308.00,354.30,1
181.00,346.96,1
111.00,336.33,1
157.00,321.77,1
64.00,304.12,1
115.00,284.00,1
234.00,263.69,1
272.00,246.61,1
221.00,233.75,1
202.00,223.81,1
39.00,214.34,1
197.00,203.99,1
524.00,197.28,1
416.00,199.45,1
436.00,209.42,1
395.00,223.97,1
394.00,241.02,1
401.00,259.09,1
575.00,278.88,1
291.00,299.89,1
566.00,320.17,1
358.00,339.71,1
213.00,355.70,1
228.00,364.48,1
412.00,368.07,1
312.00,369.88,1
319.00,370.22,1
220.00,367.91,1
371.00,363.30,1
183.00,357.24,1
162.00,348.26,1
69.00,334.61,1
44.00,316.02,1
194.00,294.38,1
116.00,272.75,1
323.00,253.49,1
162.00,238.11,1
256.00,226.02,1
326.00,217.63,1
332.00,214.29,1
104.00,213.69,1
361.00,213.62,1
295.00,215.79,1
265.00,220.37,1
261.00,225.53,1
394.00,231.74,1
320.00,240.12,1
313.00,249.66,1
326.00,259.18,1
281.00,268.14,1
230.00,275.33,1
639.00,283.09,1
43.00,292.45,1
31.00,296.12,1
123.00,291.02,1
428.00,283.36,1
440.00,279.90,1
296.00,281.27,1
160.00,282.86,1
135.00,280.95,1
66.00,274.25,1
259.00,264.43,1
55.00,253.48,1
218.00,241.62,1
38.00,228.99,1
182.00,215.73,1
157.00,203.16,1
68.00,191.54,1
238.00,180.77,1
195.00,172.71,1
319.00,168.76,1
106.00,167.93,1
406.00,169.51,1
231.00,174.60,1
232.00,181.77,1
497.00,191.07,1
395.00,205.17,1
325.00,222.52,1
474.00,240.87,1
184.00,258.88,1
123.00,272.01,1
258.00,278.68,1
293.00,282.25,1
105.00,283.47,1
101.00,279.99,1
329.00,273.38,1
169.00,266.97,1
149.00,260.04,1
146.00,251.22,1
71.00,240.44,1
82.00,227.38,1
74.00,212.48,1
243.00,198.03,1
153.00,186.40,1
260.00,178.07,1
248.00,173.49,1
217.00,172.31,1
158.00,172.66,1
407.00,175.01,1
72.00,179.64,1
310.00,184.33,1
409.00,190.89,1
304.00,201.39,1
458.00,214.88,1
336.00,230.89,1
478.00,248.69,1
284.00,267.03,1
630.00,285.99,1
284.00,306.03,1
451.00,324.79,1
312.00,340.69,1
443.00,354.06,1
223.00,364.22,1
129.00,368.27,1
133.00,364.19,1
79.00,352.78,1
194.00,336.42,1
141.00,317.90,1
146.00,298.38,1
116.00,278.22,1
40.00,257.15,1
106.00,235.10,1
105.00,213.52,1
222.00,194.51,1
471.00,182.11,1
461.00,180.12,1
342.00,187.00,1
129.00,196.58,1
36.00,202.63,1
401.00,205.49,1
592.00,212.67,1
303.00,226.70,1
436.00,243.34,1
390.00,260.86,1
76.00,276.23,1
321.00,285.92,1
349.00,292.66,1
194.00,298.14,1
75.00,299.18,1
308.00,295.47,1
313.00,291.19,1
93.00,286.79,1
273.00,280.32,1
645.00,276.75,1
253.00,279.86,1
130.00,283.55,1
113.00,282.16,1
142.00,275.92,1
105.00,266.23,1
177.00,254.44,1
258.00,242.99,1
83.00,232.67,1
303.00,223.14,1
237.00,216.17,1
107.00,211.04,1
234.00,205.82,1
158.00,201.11,1
450.00,199.14,1
251.00,201.85,1
364.00,208.13,1
343.00,216.98,1
434.00,228.79,1
212.00,241.97,1
308.00,253.62,1
421.00,264.42,1
316.00,276.01,1
262.00,286.57,1
382.00,295.21,1
249.00,302.55,1
312.00,307.98,1
175.00,310.60,1
204.00,309.47,1
187.00,304.74,1
102.00,296.72,1
177.00,285.42,1
174.00,272.60,1
47.00,258.56,1
89.00,242.29,1
94.00,224.58,1
96.00,206.79,1
221.00,190.63,1
53.00,176.93,1
64.00,163.90,1
241.00,152.06,1
206.00,144.25,1
236.00,140.87,1
503.00,143.40,1
180.00,152.28,1
410.00,164.59,1
406.00,180.14,1
608.00,201.07,1
383.00,227.04,1
503.00,254.78,1
187.00,280.46,1
450.00,301.68,1
461.00,320.62,1
380.00,338.90,1
334.00,354.43,1
307.00,365.68,1
86.00,370.68,1
174.00,367.56,1
92.00,357.28,1
254.00,342.74,1
230.00,327.21,1
54.00,310.93,1
182.00,292.59,1
128.00,273.52,1
83.00,254.31,1
80.00,234.41,1
262.00,215.70,1
226.00,201.22,1
448.00,193.16,1
251.00,192.06,1
515.00,196.99,1
186.00,206.32,1
405.00,217.27,1
299.00,229.10,1
324.00,241.46,1
311.00,253.27,1
207.00,263.40,1
435.00,271.98,1
34.00,278.69,1
193.00,280.27,1
365.00,278.70,1
157.00,277.21,1
271.00,274.77,1
244.00,271.62,1
279.00,268.82,1
76.00,265.07,1
57.00,257.50,1
52.00,245.18,1
198.00,230.70,1
110.00,216.66,1
166.00,203.66,1
55.00,191.15,1
141.00,178.78,1
127.00,167.29,1
48.00,156.69,1
206.00,147.00,1
36.00,138.88,1
161.00,131.74,1
212.00,126.68,1
386.00,126.70,1
405.00,133.96,1
460.00,148.67,1
720.00,171.94,1
446.00,203.35,1
425.00,237.32,1
468.00,269.87,1
373.00,300.05,1
564.00,327.76,1
209.00,352.12,1
401.00,370.40,1
278.00,382.70,1
266.00,389.54,1
185.00,390.08,1
323.00,385.53,1
411.00,379.60,1
68.00,372.56,1
130.00,360.40,1
264.00,344.14,1
65.00,326.36,1
106.00,306.22,1
64.00,283.58,1
59.00,259.40,1
89.00,234.68,1
59.00,210.54,1
198.00,188.58,1
276.00,171.70,1
354.00,162.42,1
323.00,160.83,1
529.00,166.88,1
312.00,180.12,1
421.00,197.24,1
509.00,217.48,1
516.00,241.98,1
425.00,268.88,1
426.00,295.24,1
462.00,319.87,1
381.00,342.33,1
686.00,363.85,1
319.00,385.33,1
411.00,403.25,1
503.00,417.13,1
127.00,426.66,1
288.00,428.48,1
110.00,422.31,1
95.00,408.59,1
41.00,387.47,1
189.00,361.54,1
108.00,334.23,1
180.00,307.26,1
187.00,282.01,1
473.00,261.98,1
267.00,249.63,1
212.00,242.06,1
244.00,236.04,1
228.00,231.33,1
374.00,228.98,1
134.00,228.84,1
225.00,228.34,1
180.00,226.72,1
563.00,227.53,1
387.00,234.58,1
399.00,246.58,1
481.00,261.39,1
481.00,279.23,1
545.00,299.98,1
282.00,321.13,1
297.00,338.21,1
254.00,349.33,1
257.00,355.03,1
108.00,354.86,1
307.00,349.42,1
100.00,340.54,1
156.00,328.01,1
55.00,311.49,1
104.00,291.72,1
257.00,271.38,1
71.00,252.64,1
168.00,234.73,1
56.00,217.20,1
111.00,199.94,1
172.00,183.94,1
343.00,172.28,1
238.00,166.83,1
289.00,166.35,1
445.00,170.94,1
506.00,182.75,1
525.00,202.08,1
405.00,226.40,1
414.00,251.87,1
421.00,276.56,1
400.00,299.89,1
277.00,320.08,1
179.00,334.19,1
357.00,342.00,1
283.00,346.33,1
278.00,348.10,1
383.00,348.01,1
200.00,346.72,1
152.00,341.98,1
268.00,333.48,1
237.00,323.59,1
379.00,314.65,1
42.00,306.02,1
201.00,294.79,1
98.00,280.98,1
187.00,266.04,1
108.00,250.69,1
211.00,235.80,1
199.00,222.71,1
388.00,213.66,1
309.00,210.39,1
475.00,213.17,1
620.00,223.71,1
525.00,242.84,1
510.00,267.32,1
347.00,292.73,1
341.00,315.13,1
474.00,334.15,1
490.00,352.27,1
207.00,368.12,1
250.00,377.47,1
342.00,380.80,1
447.00,382.15,1
290.00,383.15,1
241.00,381.74,1
320.00,377.05,1
65.00,368.86,1
238.00,356.05,1
320.00,341.68,1
52.00,327.15,1
198.00,310.44,1
141.00,292.35,1
86.00,273.61,1
204.00,254.61,1
127.00,236.87,1
250.00,221.41,1
159.00,208.84,1
345.00,199.94,1
372.00,196.62,1
345.00,199.42,1
440.00,207.33,1
280.00,218.97,1
445.00,232.53,1
434.00,248.39,1
592.00,267.98,1
472.00,291.28,1
379.00,315.19,1
349.00,335.99,1
236.00,351.55,1
330.00,361.28,1
76.00,364.80,1
362.00,362.43,1
349.00,358.11,1
314.00,354.36,1
335.00,350.63,1
362.00,347.33,1
227.00,343.97,1
90.00,337.53,1
263.00,327.01,1
99.00,314.09,1
289.00,300.10,1
106.00,286.01,1
212.00,271.72,1
279.00,258.57,1
223.00,248.24,1
253.00,240.27,1
384.00,235.45,1
324.00,235.15,1
458.00,239.45,1
425.00,248.64,1
686.00,263.97,1
787.00,288.21,1
140.00,317.02,1
733.00,343.31,1
216.00,367.00,1
425.00,385.98,1
471.00,400.36,1
430.00,412.90,1
412.00,423.20,1
383.00,430.54,1
608.00,436.65,1
172.00,441.49,1
586.00,443.26,1
338.00,443.85,1
208.00,441.76,1
43.00,432.08,1
158.00,414.08,1
57.00,390.07,1
35.00,361.31,1
179.00,329.94,1
174.00,299.88,1
169.00,272.85,1
353.00,250.45,1
310.00,235.00,1
211.00,225.31,1
258.00,218.69,1
317.00,215.08,1
415.00,216.08,1
458.00,222.98,1
360.00,234.91,1
476.00,249.90,1
424.00,267.42,1
459.00,286.67,1
474.00,306.85,1
376.00,326.81,1
352.00,344.21,1
292.00,357.38,1
289.00,365.68,1
185.00,368.62,1
243.00,366.03,1
83.00,358.17,1
150.00,344.96,1
68.00,327.17,1
80.00,305.88,1
62.00,282.00,1
49.00,256.58,1
195.00,231.70,1
268.00,210.97,1
168.00,195.71,1
138.00,183.78,1
335.00,175.10,1
390.00,172.64,1
244.00,176.30,1
370.00,183.60,1
352.00,194.09,1
464.00,208.35,1
434.00,226.49,1
392.00,247.01,1
330.00,267.21,1
412.00,285.85,1
455.00,303.86,1
415.00,321.85,1
355.00,338.44,1
378.00,352.28,1
348.00,363.22,1
250.00,370.47,1
287.00,373.12,1
236.00,371.59,1
293.00,366.83,1
83.00,358.53,1
61.00,344.68,1
83.00,325.19,1
85.00,302.24,1
119.00,277.85,1
78.00,253.42,1
41.00,229.09,1
295.00,206.78,1
282.00,190.51,1
295.00,181.35,1
481.00,179.59,1
327.00,185.49,1
457.00,196.99,1
424.00,213.01,1
431.00,232.53,1
529.00,254.66,1
634.00,280.60,1
411.00,309.25,1
602.00,337.83,1
416.00,365.16,1
562.00,390.36,1
384.00,412.51,1
260.00,428.87,1
458.00,438.41,1
142.00,442.09,1
156.00,437.65,1
383.00,426.77,1
152.00,413.26,1
177.00,396.44,1
32.00,375.05,1
50.00,348.85,1
98.00,319.36,1
75.00,289.05,1
55.00,258.99,1
109.00,230.03,1
171.00,204.09,1
237.00,183.34,1
320.00,169.46,1
316.00,163.16,1
216.00,162.74,1
331.00,165.94,1
226.00,172.03,1
388.00,180.71,1
388.00,192.80,1
478.00,209.13,1
480.00,229.74,1
419.00,253.15,1
311.00,276.04,1
398.00,296.21,1
222.00,312.72,1
232.00,323.83,1
316.00,329.83,1
174.00,332.07,1
368.00,331.31,1
322.00,329.95,1
70.00,326.97,1
160.00,318.98,1
122.00,306.58,1
47.00,290.71,1
39.00,271.02,1
241.00,250.12,1
280.00,232.59,1
35.00,218.53,1
223.00,205.35,1
483.00,196.56,1
96.00,194.07,1
144.00,192.54,1
202.00,189.85,1
318.00,188.69,1
500.00,192.67,1
305.00,202.74,1
538.00,217.39,1
119.00,233.74,1
372.00,247.92,1
355.00,260.57,1
238.00,272.49,1
304.00,281.93,1
298.00,289.23,1
268.00,294.87,1
508.00,300.49,1
519.00,309.71,1
86.00,319.95,1
165.00,324.22,1
68.00,320.68,1
115.00,310.87,1
134.00,296.66,1
39.00,279.49,1
75.00,259.62,1
218.00,239.28,1
164.00,221.49,1
121.00,206.16,1
44.00,191.42,1
41.00,175.91,1
32.00,159.61,1
318.00,145.45,1
251.00,137.55,1
322.00,136.46,1
284.00,140.84,1
333.00,149.73,1
189.00,160.96,1
550.00,174.61,1
373.00,193.01,1
287.00,213.66,1
351.00,233.02,1
142.00,249.38,1
224.00,260.64,1
277.00,267.75,1
401.00,274.04,1
335.00,281.45,1
147.00,287.85,1
246.00,290.45,1
70.00,288.71,1
40.00,281.28,1
65.00,268.07,1
89.00,251.32,1
64.00,232.77,1
70.00,213.38,1
108.00,194.18,1
52.00,175.97,1
121.00,159.04,1
225.00,145.22,1
329.00,137.36,1
425.00,137.65,1
301.00,145.61,1
509.00,159.57,1
466.00,179.79,1
412.00,204.58,1
500.00,231.46,1
334.00,258.70,1
269.00,282.73,1
593.00,303.74,1
515.00,325.93,1
337.00,348.27,1
362.00,366.53,1
178.00,378.54,1
246.00,383.12,1
134.00,380.53,1
246.00,372.31,1
353.00,361.80,1
63.00,350.23,1
153.00,335.12,1
82.00,316.33,1
107.00,295.08,1
107.00,272.53,1
77.00,249.64,1
51.00,226.53,1
198.00,204.59,1
187.00,186.40,1
61.00,171.65,1
211.00,159.07,1
356.00,151.15,1
420.00,151.20,1
279.00,158.41,1
260.00,168.93,1
350.00,180.84,1
592.00,196.70,1
453.00,218.67,1
291.00,242.91,1
437.00,265.47,1
363.00,286.49,1
344.00,305.46,1
388.00,321.66,1
355.00,335.53,1
252.00,346.14,1
297.00,352.28,1
57.00,352.67,1
156.00,346.01,1
83.00,333.29,1
47.00,315.61,1
71.00,293.80,1
62.00,269.63,1
136.00,245.07,1
40.00,221.37,1
49.00,198.23,1
127.00,176.27,1
128.00,157.32,1
102.00,141.72,1
270.00,130.16,1
277.00,124.67,1
375.00,126.33,1
288.00,134.27,1
463.00,147.51,1
323.00,165.51,1
493.00,186.94,1
542.00,212.32,1
493.00,241.65,1
355.00,271.54,1
325.00,297.90,1
363.00,319.40,1
224.00,335.69,1
154.00,344.95,1
381.00,348.11,1
198.00,348.21,1
269.00,345.36,1
160.00,339.18,1
221.00,329.95,1
102.00,317.83,1
43.00,301.95,1
82.00,282.15,1
104.00,260.25,1
66.00,237.93,1
64.00,215.58,1
80.00,193.71,1
99.00,173.37,1
293.00,156.90,1
173.00,146.29,1
402.00,141.99,1
194.00,143.69,1
317.00,149.37,1
176.00,157.07,1
387.00,166.46,1
216.00,177.72,1
58.00,187.66,1
263.00,193.92,1
422.00,200.58,1
262.00,210.30,1
457.00,222.30,1
517.00,238.05,1
464.00,258.30,1
277.00,279.38,1
324.00,297.26,1
420.00,312.14,1
326.00,325.45,1
366.00,336.68,1
126.00,343.86,1
208.00,344.76,1
181.00,340.02,1
211.00,331.64,1
122.00,320.27,1
105.00,305.65,1
142.00,288.39,1
187.00,270.48,1
318.00,254.82,1
186.00,242.82,1
553.00,235.99,1
384.00,236.84,1
246.00,242.66,1
385.00,249.47,1
264.00,256.99,1
392.00,264.99,1
146.00,272.17,1
367.00,277.32,1
483.00,283.32,1
460.00,293.30,1
358.00,305.71,1
340.00,317.57,1
375.00,327.76,1
291.00,336.09,1
193.00,340.76,1
339.00,341.45,1
397.00,341.16,1
437.00,342.63,1
207.00,344.63,1
396.00,345.06,1
88.00,342.95,1
113.00,335.59,1
82.00,322.20,1
108.00,304.59,1
68.00,284.03,1
202.00,262.68,1
267.00,243.88,1
376.00,230.75,1
77.00,222.19,1
226.00,214.58,1
303.00,208.58,1
359.00,207.02,1
542.00,211.96,1
605.00,225.67,1
704.00,248.90,1
418.00,278.50,1
488.00,308.56,1
411.00,336.12,1
386.00,359.97,1
260.00,378.12,1
518.00,391.14,1
250.00,400.87,1
294.00,405.81,1
298.00,405.49,1
444.00,402.85,1
207.00,399.03,1
214.00,391.76,1
185.00,380.05,1
179.00,364.84,1
128.00,346.76,1
196.00,326.76,1
125.00,306.12,1
114.00,284.93,1
140.00,263.45,1
44.00,242.05,1
236.00,221.63,1
352.00,205.96,1
391.00,198.21,1
163.00,196.46,1
400.00,197.89,1
286.00,202.75,1
115.00,208.72,1
389.00,213.83,1
331.00,220.77,1
435.00,231.09,1
549.00,245.75,1
305.00,263.92,1
452.00,282.33,1
219.00,298.80,1
308.00,311.33,1
262.00,319.61,1
494.00,326.29,1
59.00,331.39,1
292.00,331.78,1
249.00,328.49,1
155.00,322.92,1
112.00,313.56,1
169.00,300.60,1
325.00,287.23,1
67.00,274.90,1
68.00,260.82,1
38.00,243.43,1
99.00,224.16,1
66.00,204.60,1
223.00,186.73,1
221.00,173.03,1
355.00,165.30,1
155.00,162.94,1
374.00,164.39,1
167.00,168.90,1
550.00,177.15,1
486.00,192.03,1
557.00,214.11,1
377.00,240.11,1
550.00,267.33,1
332.00,294.11,1
389.00,317.99,1
371.00,337.86,1
307.00,353.65,1
273.00,364.35,1
250.00,369.55,1
253.00,369.75,1
188.00,365.44,1
336.00,358.02,1
200.00,349.29,1
86.00,337.86,1
108.00,321.94,1
34.00,301.97,1
114.00,279.07,1
186.00,256.15,1
56.00,234.74,1
243.00,215.17,1
117.00,198.62,1
196.00,185.05,1
269.00,175.05,1
496.00,171.78,1
431.00,177.55,1
328.00,189.94,1
383.00,205.24,1
488.00,223.13,1
311.00,243.17,1
454.00,263.30,1
124.00,280.98,1
413.00,294.34,1
273.00,304.87,1
461.00,314.53,1
324.00,324.02,1
233.00,331.62,1
182.00,334.47,1
164.00,331.86,1
155.00,324.37,1
322.00,314.52,1
708.00,309.11,1
339.00,311.96,1
278.00,317.56,1
174.00,320.13,1
100.00,317.47,1
329.00,310.80,1
181.00,303.21,1
240.00,295.11,1
174.00,286.10,1
212.00,276.43,1
335.00,267.65,1
154.00,260.69,1
315.00,254.70,1
216.00,250.00,1
151.00,245.59,1
383.00,241.57,1
414.00,241.50,1
386.00,246.66,1
244.00,254.22,1
468.00,262.66,1
429.00,273.71,1
392.00,287.26,1
431.00,301.67,1
322.00,315.67,1
377.00,327.88,1
144.00,336.40,1
239.00,339.21,1
331.00,337.95,1
236.00,335.23,1
150.00,329.97,1
134.00,320.61,1
108.00,307.22,1
44.00,290.19,1
112.00,270.17,1
66.00,248.79,1
81.00,227.02,1
48.00,205.27,1
91.00,184.19,1
128.00,165.03,1
272.00,150.14,1
124.00,140.44,1
368.00,135.76,1
57.00,135.29,1
421.00,137.92,1
249.00,144.88,1
426.00,156.51,1
464.00,173.12,1
380.00,194.41,1
550.00,218.85,1
390.00,245.65,1
412.00,272.31,1
420.00,297.06,1
503.00,320.57,1
338.00,342.41,1
277.00,359.73,1
229.00,370.23,1
164.00,373.43,1
378.00,371.28,1
174.00,366.39,1
92.00,357.28,1
83.00,342.16,1
60.00,321.96,1
172.00,298.99,1
100.00,275.85,1
172.00,253.65,1
207.00,233.78,1
258.00,217.93,1
207.00,206.37,1
224.00,198.19,1
258.00,192.98,1
306.00,191.27,1
444.00,194.48,1
435.00,203.90,1
294.00,217.60,1
459.00,233.06,1
449.00,250.81,1
430.00,270.76,1
327.00,290.51,1
478.00,308.83,1
518.00,327.43,1
287.00,345.62,1
236.00,359.00,1
444.00,367.27,1
277.00,373.00,1
419.00,376.72,1
191.00,377.88,1
214.00,374.64,1
185.00,366.39,1
302.00,355.36,1
130.00,342.85,1
112.00,327.60,1
264.00,310.21,1
194.00,293.64,1
117.00,277.69,1
104.00,260.73,1
48.00,242.29,1
177.00,223.38,1
225.00,206.81,1
349.00,195.44,1
291.00,190.40,1
360.00,191.01,1
528.00,197.84,1
38.00,208.48,1
405.00,218.00,1
322.00,227.71,1
413.00,239.61,1
296.00,252.68,1
489.00,266.63,1
357.00,281.91,1
342.00,296.97,1
200.00,308.87,1
184.00,315.36,1
350.00,317.47,1
451.00,319.61,1
282.00,323.34,1
245.00,325.90,1
201.00,325.11,1
222.00,320.96,1
209.00,314.29,1
174.00,305.53,1
58.00,293.87,1
44.00,278.08,1
200.00,259.66,1
104.00,241.62,1
306.00,225.82,1
55.00,212.73,1
144.00,200.37,1
331.00,189.93,1
254.00,184.47,1
314.00,183.80,1
379.00,187.68,1
302.00,195.84,1
520.00,207.99,1
329.00,224.18,1
409.00,242.25,1
186.00,259.00,1
291.00,272.03,1
370.00,282.32,1
254.00,291.43,1
168.00,297.37,1
152.00,298.20,1
376.00,295.95,1
290.00,294.32,1
193.00,292.85,1
66.00,288.15,1
227.00,279.59,1
95.00,268.90,1
88.00,256.05,1
104.00,240.89,1
78.00,224.49,1
175.00,208.18,1
272.00,194.69,1
275.00,186.20,1
358.00,183.34,1
491.00,187.50,1
350.00,198.49,1
284.00,212.43,1
124.00,224.62,1
256.00,232.99,1
385.00,240.08,1
222.00,247.84,1
386.00,255.59,1
156.00,262.54,1
334.00,267.68,1
160.00,270.83,1
142.00,270.85,1
98.00,266.39,1
120.00,257.91,1
116.00,246.71,1
112.00,233.88,1
34.00,219.48,1
32.00,203.00,1
37.00,184.88,1
41.00,166.21,1
33.00,147.75,1
34.00,130.02,1
31.00,113.34,1
40.00,98.05,1
43.00,84.46,1
35.00,72.68,1
40.00,62.58,1
36.00,54.09,1
44.00,47.14,1
35.00,41.62,1
39.00,37.32,1
31.00,34.01,1
41.00,31.54,1
30.00,29.80,1
40.00,28.66,1
33.00,28.03,1
41.00,27.84,1
33.00,28.00,1
36.00,28.37,1
33.00,28.86,1
38.00,29.44,1
34.00,30.08,1
36.00,30.76,1
33.00,31.40,1
37.00,32.00,1
34.00,32.56,1
35.00,33.07,1
34.00,33.50,1
36.00,33.87,1
32.00,34.18,1
36.00,34.40,1
34.00,34.57,1
36.00,34.72,1
34.00,34.84,1
36.00,34.94,1
34.00,35.01,1
35.00,35.06,1
34.00,35.08,1
35.00,35.07,1
34.00,35.05,1
34.00,35.01,1
34.00,34.94,1
37.00,34.88,1
35.00,34.87,1
34.00,34.87,1
35.00,34.86,1
34.00,34.84,1
35.00,34.81,1
34.00,34.78,1
36.00,34.76,1
32.00,34.73,1
36.00,34.69,1
33.00,34.64,1
35.00,34.59,1
34.00,34.54,1
35.00,34.50,1
35.00,34.48,1
35.00,34.48,1
34.00,34.49,1
34.00,34.49,1
33.00,34.47,1
35.00,34.42,1
34.00,34.39,1
38.00,34.39,1
34.00,34.44,1
35.00,34.51,1
35.00,34.57,1
35.00,34.63,1
35.00,34.69,1
34.00,34.73,1
36.00,34.77,1
36.00,34.82,1
35.00,34.89,1
35.00,34.95,1
35.00,35.00,1
33.00,35.03,1
35.00,35.01,1
34.00,34.97,1
36.00,34.94,1
33.00,34.90,1
35.00,34.85,1
33.00,34.79,1
36.00,34.72,1
30.00,34.64,1
34.00,34.51,1
34.00,34.36,1
34.00,34.23,1
34.00,34.13,1
36.00,34.06,1
34.00,34.04,1
35.00,34.05,1
36.00,34.08,1
35.00,34.16,1
34.00,34.24,1
33.00,34.30,1
35.00,34.33,1
33.00,34.33,1
37.00,34.35,1
34.00,34.38,1
38.00,34.46,1
34.00,34.57,1
36.00,34.68,1
34.00,34.77,1
35.00,34.85,1
33.00,34.88,1
36.00,34.89,1
34.00,34.89,1
36.00,34.89,1
34.00,34.90,1
35.00,34.90,1
33.00,34.88,1
36.00,34.84,1
34.00,34.81,1
35.00,34.78,1
34.00,34.75,1
35.00,34.72,1
33.00,34.68,1
35.00,34.63,1
34.00,34.58,1
35.00,34.54,1
34.00,34.50,1
35.00,34.48,1
34.00,34.46,1
37.00,34.46,1
34.00,34.50,1
35.00,34.55,1
33.00,34.57,1
34.00,34.56,1
34.00,34.53,1
33.00,34.48,1
34.00,34.40,1
34.00,34.33,1
35.00,34.27,1
33.00,34.22,1
36.00,34.19,1
34.00,34.18,1
36.00,34.20,1
33.00,34.24,1
36.00,34.27,1
33.00,34.30,1
36.00,34.34,1
34.00,34.38,1
36.00,34.43,1
37.00,34.51,1
35.00,34.63,1
34.00,34.74,1
35.00,34.82,1
33.00,34.86,1
35.00,34.86,1
34.00,34.84,1
35.00,34.81,1
35.00,34.79,1
35.00,34.78,1
34.00,34.77,1
35.00,34.76,1
34.00,34.74,1
37.00,34.73,1
37.00,34.78,1
33.00,34.85,1
35.00,34.90,1
35.00,34.92,1
36.00,34.95,1
34.00,34.98,1
35.00,34.99,1
34.00,34.99,1
34.00,34.96,1
36.00,34.92,1
36.00,34.91,1
37.00,34.95,1
34.00,35.02,1
34.00,35.05,1
36.00,35.07,1
34.00,35.07,1
35.00,35.07,1
32.00,35.03,1
35.00,34.95,1
37.00,34.88,1
35.00,34.86,1
35.00,34.87,1
35.00,34.89,1
34.00,34.89,1
35.00,34.88,1
34.00,34.86,1
34.00,34.83,1
35.00,34.78,1
34.00,34.74,1
35.00,34.70,1
34.00,34.66,1
35.00,34.62,1
36.00,34.61,1
35.00,34.63,1
33.00,34.65,1
36.00,34.65,1
33.00,34.64,1
35.00,34.63,1
33.00,34.60,1
36.00,34.56,1
32.00,34.52,1
35.00,34.47,1
34.00,34.41,1
36.00,34.38,1
33.00,34.37,1
35.00,34.35,1
34.00,34.34,1
31.00,34.30,1
34.00,34.21,1
35.00,34.12,1
34.00,34.07,1
34.00,34.03,1
37.00,34.03,1
34.00,34.07,1
38.00,34.16,1
34.00,34.29,1
34.00,34.41,1
34.00,34.49,1
36.00,34.55,1
34.00,34.61,1
36.00,34.67,1
36.00,34.74,1
36.00,34.84,1
32.00,34.92,1
36.00,34.95,1
34.00,34.95,1
35.00,34.95,1
34.00,34.94,1
35.00,34.91,1
37.00,34.90,1
32.00,34.91,1
34.00,34.87,1
35.00,34.81,1
34.00,34.75,1
35.00,34.70,1
34.00,34.65,1
35.00,34.61,1
35.00,34.58,1
38.00,34.60,1
32.00,34.65,1
33.00,34.66,1
38.00,34.65,1
37.00,34.70,1
35.00,34.81,1
34.00,34.90,1
34.00,34.95,1
33.00,34.95,1
35.00,34.91,1
34.00,34.86,1
35.00,34.81,1
34.00,34.76,1
36.00,34.72,1
34.00,34.70,1
35.00,34.69,1
34.00,34.67,1
35.00,34.65,1
34.00,34.63,1
35.00,34.61,1
34.00,34.60,1
35.00,34.58,1
33.00,34.56,1
35.00,34.52,1
34.00,34.48,1
35.00,34.46,1
34.00,34.44,1
35.00,34.42,1
35.00,34.43,1
35.00,34.45,1
34.00,34.47,1
34.00,34.48,1
35.00,34.49,1
34.00,34.49,1
35.00,34.49,1
34.00,34.49,1
36.00,34.50,1
34.00,34.52,1
39.00,34.58,1
34.00,34.69,1
36.00,34.81,1
33.00,34.90,1
36.00,34.95,1
34.00,34.98,1
35.00,35.00,1
33.00,34.99,1
35.00,34.95,1
33.00,34.88,1
36.00,34.82,1
37.00,34.79,1
35.00,34.81,1
34.00,34.85,1
35.00,34.86,1
34.00,34.86,1
35.00,34.85,1
35.00,34.83,1
38.00,34.86,1
34.00,34.92,1
37.00,34.99,1
35.00,35.07,1
34.00,35.14,1
34.00,35.16,1
34.00,35.14,1
36.00,35.10,1
34.00,35.07,1
36.00,35.04,1
34.00,35.02,1
36.00,35.01,1
37.00,35.02,1
36.00,35.08,1
34.00,35.14,1
36.00,35.19,1
34.00,35.22,1
35.00,35.22,1
33.00,35.20,1
35.00,35.14,1
34.00,35.06,1
35.00,34.98,1
32.00,34.89,1
35.00,34.78,1
33.00,34.66,1
35.00,34.54,1
35.00,34.46,1
35.00,34.41,1
35.00,34.39,1
35.00,34.40,1
35.00,34.42,1
30.00,34.42,1
35.00,34.35,1
35.00,34.28,1
36.00,34.26,1
34.00,34.28,1
36.00,34.31,1
34.00,34.36,1
36.00,34.42,1
34.00,34.49,1
36.00,34.55,1
33.00,34.61,1
36.00,34.65,1
34.00,34.68,1
33.00,34.69,1
34.00,34.66,1
38.00,34.64,1
33.00,34.66,1
37.00,34.70,1
35.00,34.75,1
38.00,34.84,1
34.00,34.95,1
35.00,35.05,1
35.00,35.12,1
35.00,35.16,1
35.00,35.19,1
35.00,35.20,1
34.00,35.20,1
35.00,35.17,1
35.00,35.14,1
34.00,35.10,1
35.00,35.05,1
35.00,35.01,1
34.00,34.96,1
34.00,34.90,1
36.00,34.85,1
33.00,34.80,1
36.00,34.75,1
33.00,34.71,1
36.00,34.67,1
35.00,34.65,1
39.00,34.69,1
34.00,34.79,1
35.00,34.89,1
33.00,34.94,1
36.00,34.96,1
34.00,34.96,1
35.00,34.96,1
37.00,34.97,1
35.00,35.01,1
34.00,35.05,1
35.00,35.06,1
35.00,35.06,1
35.00,35.05,1
35.00,35.05,1
34.00,35.04,1
35.00,35.01,1
33.00,34.96,1
36.00,34.90,1
34.00,34.85,1
36.00,34.82,1
34.00,34.80,1
36.00,34.79,1
33.00,34.78,1
36.00,34.77,1
34.00,34.76,1
35.00,34.75,1
37.00,34.76,1
36.00,34.82,1
34.00,34.89,1
37.00,34.96,1
34.00,35.03,1
35.00,35.08,1
34.00,35.10,1
35.00,35.10,1
36.00,35.09,1
35.00,35.10,1
34.00,35.10,1
35.00,35.08,1
35.00,35.06,1
34.00,35.03,1
35.00,34.99,1
33.00,34.94,1
36.00,34.87,1
37.00,34.85,1
36.00,34.88,1
37.00,34.96,1
36.00,35.07,1
34.00,35.18,1
38.00,35.27,1
33.00,35.35,1
34.00,35.39,1
35.00,35.37,1
35.00,35.34,1
34.00,35.29,1
35.00,35.23,1
34.00,35.16,1
35.00,35.09,1
33.00,35.00,1
35.00,34.90,1
34.00,34.81,1
34.00,34.72,1
34.00,34.62,1
34.00,34.53,1
34.00,34.44,1
34.00,34.36,1
37.00,34.31,1
34.00,34.32,1
35.00,34.34,1
34.00,34.36,1
35.00,34.39,1
34.00,34.41,1
35.00,34.43,1
32.00,34.43,1
36.00,34.40,1
37.00,34.42,1
36.00,34.49,1
29.00,34.55,1
34.00,34.51,1
34.00,34.43,1
35.00,34.35,1
34.00,34.30,1
34.00,34.26,1
34.00,34.22,1
36.00,34.20,1
34.00,34.21,1
34.00,34.23,1
34.00,34.24,1
34.00,34.23,1
34.00,34.22,1
36.00,34.22,1
33.00,34.24,1
33.00,34.24,1
35.00,34.21,1
35.00,34.20,1
35.00,34.22,1
32.00,34.23,1
35.00,34.22,1
34.00,34.20,1
34.00,34.19,1
34.00,34.18,1
36.00,34.18,1
34.00,34.20,1
36.00,34.25,1
33.00,34.30,1
36.00,34.35,1
33.00,34.39,1
35.00,34.42,1
34.00,34.43,1
35.00,34.44,1
33.00,34.45,1
35.00,34.43,1
35.00,34.43,1
35.00,34.44,1
34.00,34.46,1
34.00,34.47,1
34.00,34.46,1
35.00,34.45,1
35.00,34.45,1
34.00,34.46,1
34.00,34.46,1
35.00,34.45,1
35.00,34.46,1
34.00,34.47,1
34.00,34.47,1
34.00,34.46,1
38.00,34.47,1
34.00,34.52,1
35.00,34.59,1
34.00,34.64,1
36.00,34.68,1
34.00,34.72,1
36.00,34.76,1
33.00,34.79,1
36.00,34.81,1
34.00,34.81,1
36.00,34.83,1
34.00,34.84,1
36.00,34.86,1
35.00,34.88,1
36.00,34.92,1
34.00,34.97,1
36.00,35.00,1
34.00,35.02,1
33.00,35.02,1
34.00,34.96,1
34.00,34.88,1
35.00,34.79,1
34.00,34.72,1
35.00,34.66,1
33.00,34.60,1
35.00,34.53,1
37.00,34.50,1
34.00,34.51,1
34.00,34.53,1
35.00,34.54,1
34.00,34.54,1
32.00,34.52,1
33.00,34.44,1
36.00,34.35,1
34.00,34.30,1
39.00,34.30,1
32.00,34.36,1
36.00,34.42,1
34.00,34.47,1
38.00,34.54,1
34.00,34.65,1
36.00,34.75,1
34.00,34.84,1
34.00,34.90,1
34.00,34.91,1
35.00,34.90,1
34.00,34.88,1
34.00,34.84,1
34.00,34.78,1
34.00,34.71,1
34.00,34.64,1
35.00,34.57,1
35.00,34.52,1
35.00,34.50,1
35.00,34.50,1
35.00,34.52,1
35.00,34.55,1
33.00,34.57,1
36.00,34.57,1
32.00,34.56,1
36.00,34.54,1
32.00,34.50,1
36.00,34.46,1
34.00,34.43,1
34.00,34.41,1
30.00,34.34,1
35.00,34.22,1
33.00,34.10,1
36.00,34.02,1
30.00,33.94,1
39.00,33.88,1
33.00,33.87,1
35.00,33.91,1
34.00,33.95,1
35.00,34.00,1
33.00,34.04,1
35.00,34.07,1
35.00,34.11,1
37.00,34.19,1
34.00,34.30,1
34.00,34.39,1
34.00,34.45,1
32.00,34.47,1
36.00,34.45,1
33.00,34.42,1
35.00,34.40,1
37.00,34.40,1
36.00,34.47,1
34.00,34.56,1
37.00,34.65,1
33.00,34.74,1
36.00,34.81,1
33.00,34.85,1
36.00,34.87,1
33.00,34.87,1
36.00,34.86,1
34.00,34.85,1
34.00,34.83,1
34.00,34.79,1
36.00,34.75,1
33.00,34.71,1
35.00,34.67,1
34.00,34.63,1
35.00,34.59,1
35.00,34.57,1
37.00,34.58,1
34.00,34.63,1
35.00,34.68,1
34.00,34.71,1
35.00,34.73,1
35.00,34.74,1
34.00,34.75,1
35.00,34.75,1
34.00,34.74,1
36.00,34.74,1
34.00,34.74,1
36.00,34.75,1
33.00,34.76,1
35.00,34.75,1
33.00,34.72,1
35.00,34.67,1
34.00,34.62,1
35.00,34.58,1
37.00,34.57,1
35.00,34.61,1
34.00,34.66,1
36.00,34.70,1
34.00,34.74,1
34.00,34.77,1
35.00,34.77,1
33.00,34.75,1
34.00,34.70,1
35.00,34.65,1
35.00,34.61,1
34.00,34.58,1
35.00,34.56,1
32.00,34.52,1
35.00,34.46,1
34.00,34.40,1
31.00,34.32,1
34.00,34.20,1
36.00,34.10,1
33.00,34.04,1
36.00,34.01,1
34.00,34.01,1
36.00,34.05,1
33.00,34.10,1
36.00,34.15,1
32.00,34.19,1
35.00,34.21,1
35.00,34.22,1
38.00,34.28,1
34.00,34.40,1
35.00,34.51,1
33.00,34.59,1
35.00,34.63,1
35.00,34.65,1
36.00,34.69,1
34.00,34.74,1
35.00,34.78,1
35.00,34.81,1
35.00,34.83,1
35.00,34.86,1
30.00,34.84,1
35.00,34.75,1
37.00,34.67,1
35.00,34.65,1
34.00,34.65,1
38.00,34.67,1
33.00,34.73,1
35.00,34.77,1
33.00,34.77,1
36.00,34.76,1
33.00,34.74,1
35.00,34.71,1
34.00,34.67,1
34.00,34.63,1
37.00,34.60,1
35.00,34.62,1
34.00,34.65,1
34.00,34.66,1
34.00,34.65,1
34.00,34.62,1
34.00,34.57,1
35.00,34.53,1
35.00,34.50,1
35.00,34.50,1
35.00,34.51,1
35.00,34.54,1
35.00,34.58,1
30.00,34.57,1
35.00,34.50,1
34.00,34.42,1
36.00,34.36,1
32.00,34.33,1
35.00,34.28,1
34.00,34.23,1
36.00,34.22,1
33.00,34.22,1
34.00,34.22,1
33.00,34.19,1
38.00,34.18,1
33.00,34.22,1
36.00,34.27,1
34.00,34.33,1
35.00,34.38,1
34.00,34.43,1
35.00,34.47,1
34.00,34.50,1
38.00,34.55,1
34.00,34.63,1
35.00,34.71,1
34.00,34.77,1
35.00,34.81,1
34.00,34.82,1
34.00,34.82,1
35.00,34.79,1
35.00,34.77,1
35.00,34.76,1
32.00,34.74,1
35.00,34.68,1
34.00,34.62,1
34.00,34.55,1
33.00,34.48,1
34.00,34.39,1
34.00,34.30,1
35.00,34.23,1
34.00,34.19,1
36.00,34.18,1
36.00,34.21,1
36.00,34.29,1
33.00,34.39,1
36.00,34.47,1
33.00,34.52,1
34.00,34.55,1
33.00,34.54,1
35.00,34.50,1
34.00,34.47,1
35.00,34.44,1
34.00,34.42,1
35.00,34.41,1
34.00,34.40,1
35.00,34.40,1
35.00,34.41,1
35.00,34.44,1
33.00,34.46,1
35.00,34.47,1
37.00,34.49,1
34.00,34.54,1
33.00,34.58,1
34.00,34.58,1
35.00,34.56,1
34.00,34.54,1
36.00,34.53,1
33.00,34.53,1
34.00,34.52,1
34.00,34.48,1
39.00,34.47,1
36.00,34.56,1
36.00,34.69,1
34.00,34.82,1
34.00,34.91,1
34.00,34.94,1
35.00,34.95,1
33.00,34.93,1
35.00,34.88,1
34.00,34.83,1
35.00,34.77,1
32.00,34.71,1
35.00,34.62,1
34.00,34.53,1
33.00,34.44,1
35.00,34.36,1
35.00,34.29,1
34.00,34.26,1
35.00,34.25,1
36.00,34.26,1
34.00,34.30,1
34.00,34.34,1
33.00,34.35,1
35.00,34.34,1
34.00,34.33,1
35.00,34.32,1
34.00,34.33,1
33.00,34.32,1
34.00,34.29,1
36.00,34.26,1
34.00,34.26,1
35.00,34.28,1
37.00,34.33,1
34.00,34.41,1
34.00,34.49,1
35.00,34.53,1
34.00,34.57,1
35.00,34.59,1
33.00,34.60,1
35.00,34.59,1
34.00,34.57,1
35.00,34.55,1
34.00,34.53,1
35.00,34.52,1
35.00,34.52,1
35.00,34.53,1
34.00,34.55,1
34.00,34.55,1
34.00,34.54,1
34.00,34.51,1
34.00,34.47,1
36.00,34.44,1
35.00,34.44,1
32.00,34.45,1
36.00,34.43,1
32.00,34.40,1
36.00,34.37,1
34.00,34.34,1
35.00,34.34,1
34.00,34.34,1
35.00,34.35,1
34.00,34.36,1
36.00,34.38,1
34.00,34.42,1
34.00,34.45,1
33.00,34.45,1
35.00,34.42,1
31.00,34.38,1
34.00,34.28,1
35.00,34.19,1
36.00,34.14,1
35.00,34.15,1
34.00,34.19,1
34.00,34.22,1
34.00,34.24,1
36.00,34.26,1
33.00,34.29,1
37.00,34.33,1
34.00,34.39,1
36.00,34.46,1
32.00,34.52,1
36.00,34.55,1
33.00,34.56,1
35.00,34.56,1
34.00,34.54,1
32.00,34.51,1
34.00,34.43,1
34.00,34.34,1
37.00,34.29,1
33.00,34.28,1
35.00,34.28,1
34.00,34.28,1
35.00,34.29,1
33.00,34.29,1
36.00,34.29,1
33.00,34.30,1
39.00,34.34,1
34.00,34.43,1
38.00,34.56,1
36.00,34.72,1
38.00,34.92,1
32.00,35.11,1
39.00,35.26,1
31.00,35.37,1
44.00,35.48,1
29.00,35.62,1
40.00,35.72,1
32.00,35.78,1
33.00,35.77,1
32.00,35.66,1
38.00,35.51,1
33.00,35.39,1
33.00,35.26,1
35.00,35.10,1
34.00,34.95,1
33.00,34.81,1
33.00,34.65,1
36.00,34.49,1
33.00,34.38,1
38.00,34.31,1
33.00,34.30,1
38.00,34.33,1
33.00,34.39,1
39.00,34.48,1
34.00,34.61,1
46.00,34.83,1
31.00,35.15,1
45.00,35.49,1
30.00,35.82,1
44.00,36.12,1
31.00,36.39,1
47.00,36.65,1
31.00,36.93,1
44.00,37.19,1
32.00,37.40,1
41.00,37.55,1
34.00,37.66,1
41.00,37.73,1
32.00,37.76,1
37.00,37.70,1
33.00,37.57,1
43.00,37.43,1
33.00,37.34,1
34.00,37.22,1
38.00,37.05,1
34.00,36.88,1
40.00,36.74,1
31.00,36.62,1
37.00,36.47,1
35.00,36.30,1
53.00,36.30,1
30.00,36.51,1
46.00,36.78,1
31.00,37.03,1
47.00,37.28,1
32.00,37.53,1
43.00,37.76,1
31.00,37.91,1
44.00,38.01,1
29.00,38.05,1
52.00,38.09,1
31.00,38.22,1
46.00,38.38,1
33.00,38.52,1
41.00,38.62,1
31.00,38.62,1
43.00,38.56,1
31.00,38.45,1
42.00,38.32,1
34.00,38.18,1
39.00,38.05,1
35.00,37.90,1
30.00,37.69,1
42.00,37.41,1
32.00,37.17,1
41.00,36.98,1
27.00,36.77,1
45.00,36.55,1
30.00,36.40,1
43.00,36.30,1
30.00,36.23,1
41.00,36.17,1
31.00,36.11,1
49.00,36.13,1
31.00,36.27,1
48.00,36.49,1
32.00,36.77,1
40.00,37.02,1
31.00,37.17,1
50.00,37.31,1
31.00,37.53,1
35.00,37.66,1
30.00,37.61,1
42.00,37.45,1
31.00,37.29,1
36.00,37.09,1
33.00,36.84,1
35.00,36.57,1
35.00,36.29,1
33.00,36.02,1
34.00,35.74,1
31.00,35.43,1
39.00,35.15,1
32.00,34.93,1
37.00,34.77,1
30.00,34.62,1
40.00,34.50,1
31.00,34.43,1
40.00,34.41,1
31.00,34.44,1
38.00,34.47,1
31.00,34.50,1
36.00,34.51,1
26.00,34.43,1
44.00,34.33,1
32.00,34.33,1
41.00,34.42,1
32.00,34.56,1
39.00,34.71,1
32.00,34.85,1
38.00,34.98,1
32.00,35.07,1
37.00,35.13,1
32.00,35.15,1
39.00,35.17,1
33.00,35.20,1
34.00,35.21,1
34.00,35.16,1
32.00,35.07,1
38.00,34.97,1
30.00,34.88,1
39.00,34.79,1
26.00,34.68,1
35.00,34.48,1
33.00,34.26,1
37.00,34.10,1
32.00,34.00,1
42.00,33.99,1
31.00,34.06,1
40.00,34.19,1
31.00,34.32,1
41.00,34.48,1
32.00,34.65,1
40.00,34.83,1
32.00,35.01,1
37.00,35.16,1
32.00,35.25,1
36.00,35.28,1
32.00,35.26,1
41.00,35.25,1
32.00,35.28,1
34.00,35.29,1
33.00,35.23,1
38.00,35.15,1
34.00,35.12,1
35.00,35.10,1
38.00,35.09,1
30.00,35.10,1
36.00,35.05,1
33.00,34.96,1
39.00,34.91,1
34.00,34.92,1
37.00,34.96,1
32.00,34.99,1
39.00,35.01,1
30.00,35.03,1
40.00,35.04,1
30.00,35.04,1
39.00,35.03,1
31.00,35.01,1
45.00,35.05,1
30.00,35.17,1
38.00,35.28,1
32.00,35.34,1
42.00,35.40,1
31.00,35.50,1
44.00,35.62,1
32.00,35.78,1
46.00,36.00,1
32.00,36.26,1
36.00,36.46,1
34.00,36.56,1
35.00,36.57,1
31.00,36.48,1
33.00,36.28,1
37.00,36.04,1
31.00,35.80,1
36.00,35.56,1
31.00,35.30,1
40.00,35.08,1
34.00,34.95,1
39.00,34.92,1
32.00,34.92,1
42.00,34.97,1
34.00,35.09,1
48.00,35.33,1
34.00,35.70,1
44.00,36.12,1
31.00,36.51,1
50.00,36.89,1
30.00,37.29,1
49.00,37.68,1
30.00,38.03,1
45.00,38.31,1
31.00,38.51,1
39.00,38.59,1
30.00,38.53,1
38.00,38.34,1
31.00,38.06,1
35.00,37.70,1
32.00,37.28,1
36.00,36.85,1
34.00,36.44,1
31.00,36.04,1
37.00,35.65,1
35.00,35.32,1
39.00,35.12,1
34.00,35.01,1
42.00,35.01,1
31.00,35.08,1
45.00,35.21,1
34.00,35.42,1
46.00,35.73,1
33.00,36.10,1
45.00,36.48,1
33.00,36.85,1
53.00,37.28,1
31.00,37.77,1
47.00,38.24,1
31.00,38.62,1
56.00,38.99,1
30.00,39.42,1
43.00,39.76,1
31.00,39.91,1
42.00,39.92,1
32.00,39.83,1
31.00,39.57,1
31.00,39.10,1
33.00,38.49,1
33.00,37.83,1
34.00,37.18,1
34.00,36.57,1
33.00,36.01,1
36.00,35.52,1
32.00,35.11,1
36.00,34.76,1
32.00,34.47,1
36.00,34.23,1
32.00,34.04,1
37.00,33.91,1
32.00,33.82,1
36.00,33.77,1
36.00,33.78,1
37.00,33.86,1
32.00,33.98,1
37.00,34.09,1
32.00,34.18,1
36.00,34.26,1
34.00,34.32,1
36.00,34.39,1
34.00,34.47,1
36.00,34.54,1
33.00,34.60,1
34.00,34.63,1
34.00,34.63,1
35.00,34.61,1
33.00,34.58,1
34.00,34.53,1
34.00,34.47,1
35.00,34.42,1
34.00,34.38,1
36.00,34.36,1
33.00,34.36,1
35.00,34.36,1
34.00,34.35,1
31.00,34.32,1
34.00,34.23,1
34.00,34.14,1
34.00,34.06,1
34.00,34.00,1
33.00,33.94,1
34.00,33.88,1
34.00,33.84,1
37.00,33.83,1
35.00,33.89,1
34.00,33.98,1
38.00,34.09,1
34.00,34.24,1
34.00,34.38,1
34.00,34.47,1
36.00,34.54,1
33.00,34.60,1
36.00,34.64,1
34.00,34.68,1
35.00,34.71,1
34.00,34.72,1
38.00,34.75,1
35.00,34.82,1
35.00,34.91,1
34.00,34.97,1
38.00,35.02,1
34.00,35.10,1
36.00,35.17,1
34.00,35.21,1
35.00,35.23,1
35.00,35.23,1
34.00,35.22,1
35.00,35.18,1
35.00,35.14,1
34.00,35.09,1
35.00,35.04,1
35.00,34.99,1
35.00,34.95,1
35.00,34.93,1
32.00,34.88,1
35.00,34.80,1
33.00,34.71,1
36.00,34.62,1
33.00,34.55,1
36.00,34.50,1
36.00,34.48,1
35.00,34.51,1
33.00,34.54,1
35.00,34.55,1
37.00,34.56,1
38.00,34.65,1
33.00,34.78,1
35.00,34.87,1
34.00,34.93,1
35.00,34.95,1
35.00,34.97,1
35.00,34.98,1
34.00,34.98,1
35.00,34.96,1
34.00,34.94,1
35.00,34.90,1
37.00,34.89,1
35.00,34.91,1
35.00,34.95,1
34.00,34.97,1
35.00,34.98,1
34.00,34.96,1
35.00,34.94,1
34.00,34.90,1
35.00,34.86,1
36.00,34.84,1
35.00,34.84,1
35.00,34.85,1
36.00,34.88,1
34.00,34.91,1
35.00,34.93,1
37.00,34.95,1
33.00,34.99,1
34.00,34.99,1
35.00,34.96,1
34.00,34.92,1
35.00,34.88,1
32.00,34.82,1
35.00,34.73,1
33.00,34.63,1
36.00,34.54,1
33.00,34.47,1
33.00,34.39,1
34.00,34.30,1
33.00,34.20,1
34.00,34.10,1
35.00,34.02,1
35.00,33.99,1
35.00,33.99,1
36.00,34.04,1
34.00,34.11,1
35.00,34.19,1
34.00,34.26,1
38.00,34.35,1
32.00,34.45,1
36.00,34.53,1
33.00,34.58,1
36.00,34.62,1
34.00,34.65,1
35.00,34.68,1
32.00,34.68,1
35.00,34.64,1
34.00,34.59,1
34.00,34.54,1
34.00,34.48,1
35.00,34.43,1
34.00,34.39,1
38.00,34.40,1
34.00,34.45,1
34.00,34.51,1
34.00,34.54,1
35.00,34.55,1
37.00,34.58,1
34.00,34.64,1
35.00,34.70,1
35.00,34.75,1
35.00,34.79,1
34.00,34.83,1
35.00,34.84,1
34.00,34.84,1
35.00,34.83,1
34.00,34.81,1
36.00,34.79,1
33.00,34.77,1
36.00,34.75,1
32.00,34.72,1
34.00,34.66,1
34.00,34.57,1
35.00,34.49,1
35.00,34.44,1
34.00,34.42,1
34.00,34.39,1
35.00,34.36,1
34.00,34.35,1
35.00,34.34,1
34.00,34.34,1
35.00,34.35,1
34.00,34.36,1
35.00,34.37,1
34.00,34.38,1
35.00,34.40,1
35.00,34.42,1
34.00,34.45,1
34.00,34.46,1
34.00,34.46,1
35.00,34.45,1
34.00,34.44,1
35.00,34.44,1
34.00,34.44,1
36.00,34.45,1
34.00,34.48,1
36.00,34.51,1
34.00,34.56,1
36.00,34.61,1
34.00,34.66,1
36.00,34.71,1
34.00,34.75,1
35.00,34.79,1
33.00,34.80,1
35.00,34.78,1
34.00,34.75,1
35.00,34.71,1
37.00,34.71,1
35.00,34.74,1
33.00,34.78,1
34.00,34.78,1
35.00,34.75,1
34.00,34.71,1
34.00,34.68,1
32.00,34.61,1
35.00,34.51,1
34.00,34.42,1
35.00,34.35,1
34.00,34.31,1
36.00,34.29,1
32.00,34.28,1
34.00,34.25,1
34.00,34.20,1
36.00,34.17,1
33.00,34.17,1
37.00,34.19,1
33.00,34.23,1
36.00,34.27,1
32.00,34.31,1
36.00,34.33,1
33.00,34.34,1
35.00,34.34,1
34.00,34.34,1
35.00,34.35,1
34.00,34.36,1
35.00,34.37,1
34.00,34.38,1
35.00,34.40,1
34.00,34.41,1
34.00,34.42,1
34.00,34.41,1
34.00,34.39,1
35.00,34.37,1
34.00,34.35,1
35.00,34.35,1
34.00,34.35,1
36.00,34.37,1
33.00,34.39,1
38.00,34.43,1
34.00,34.50,1
35.00,34.58,1
33.00,34.63,1
36.00,34.66,1
32.00,34.66,1
36.00,34.65,1
33.00,34.62,1
37.00,34.60,1
33.00,34.61,1
36.00,34.61,1
33.00,34.61,1
36.00,34.61,1
34.00,34.61,1
35.00,34.62,1
34.00,34.62,1
37.00,34.63,1
34.00,34.67,1
37.00,34.73,1
34.00,34.80,1
34.00,34.85,1
34.00,34.86,1
34.00,34.84,1
38.00,34.83,1
34.00,34.86,1
35.00,34.89,1
37.00,34.93,1
36.00,35.01,1
33.00,35.08,1
38.00,35.13,1
33.00,35.18,1
35.00,35.21,1
34.00,35.20,1
36.00,35.17,1
33.00,35.14,1
36.00,35.09,1
36.00,35.06,1
36.00,35.07,1
34.00,35.09,1
35.00,35.10,1
33.00,35.07,1
34.00,35.01,1
33.00,34.91,1
35.00,34.80,1
34.00,34.69,1
35.00,34.61,1
34.00,34.54,1
34.00,34.48,1
36.00,34.43,1
34.00,34.42,1
34.00,34.41,1
33.00,34.38,1
36.00,34.34,1
34.00,34.33,1
34.00,34.33,1
34.00,34.31,1
35.00,34.30,1
34.00,34.30,1
36.00,34.31,1
32.00,34.33,1
36.00,34.33,1
34.00,34.33,1
36.00,34.36,1
34.00,34.40,1
36.00,34.45,1
34.00,34.51,1
35.00,34.56,1
34.00,34.60,1
35.00,34.63,1
34.00,34.64,1
34.00,34.64,1
33.00,34.61,1
34.00,34.55,1
36.00,34.49,1
34.00,34.47,1
34.00,34.45,1
34.00,34.42,1
35.00,34.39,1
33.00,34.37,1
37.00,34.35,1
34.00,34.37,1
34.00,34.40,1
34.00,34.40,1
37.00,34.42,1
33.00,34.46,1
36.00,34.50,1
34.00,34.54,1
36.00,34.58,1
32.00,34.62,1
37.00,34.63,1
33.00,34.64,1
37.00,34.66,1
34.00,34.70,1
37.00,34.75,1
36.00,34.83,1
35.00,34.93,1
34.00,35.01,1
35.00,35.06,1
34.00,35.07,1
35.00,35.06,1
34.00,35.04,1
34.00,34.99,1
34.00,34.93,1
33.00,34.84,1
38.00,34.76,1
34.00,34.73,1
36.00,34.73,1
34.00,34.75,1
37.00,34.77,1
32.00,34.80,1
36.00,34.80,1
33.00,34.79,1
41.00,34.81,1
31.00,34.88,1
39.00,34.95,1
32.00,35.02,1
38.00,35.08,1
33.00,35.13,1
37.00,35.17,1
33.00,35.20,1
37.00,35.21,1
32.00,35.20,1
38.00,35.19,1
33.00,35.17,1
40.00,35.19,1
34.00,35.26,1
33.00,35.31,1
35.00,35.29,1
34.00,35.25,1
34.00,35.18,1
32.00,35.07,1
35.00,34.93,1
32.00,34.77,1
37.00,34.63,1
27.00,34.47,1
37.00,34.27,1
32.00,34.09,1
38.00,33.97,1
31.00,33.90,1
36.00,33.86,1
31.00,33.81,1
44.00,33.83,1
31.00,33.97,1
42.00,34.17,1
32.00,34.42,1
41.00,34.68,1
31.00,34.92,1
34.00,35.09,1
32.00,35.14,1
36.00,35.13,1
32.00,35.08,1
37.00,35.01,1
32.00,34.95,1
37.00,34.88,1
32.00,34.82,1
34.00,34.74,1
34.00,34.63,1
33.00,34.52,1
34.00,34.41,1
31.00,34.27,1
39.00,34.15,1
33.00,34.11,1
39.00,34.13,1
32.00,34.21,1
39.00,34.31,1
30.00,34.41,1
43.00,34.52,1
30.00,34.67,1
43.00,34.84,1
31.00,35.04,1
43.00,35.25,1
31.00,35.47,1
39.00,35.65,1
30.00,35.76,1
42.00,35.83,1
31.00,35.90,1
40.00,35.95,1
33.00,35.99,1
43.00,36.06,1
32.00,36.18,1
39.00,36.27,1
32.00,36.32,1
33.00,36.28,1
32.00,36.12,1
32.00,35.88,1
32.00,35.56,1
33.00,35.21,1
36.00,34.89,1
33.00,34.63,1
40.00,34.47,1
32.00,34.40,1
42.00,34.42,1
30.00,34.50,1
44.00,34.63,1
31.00,34.81,1
42.00,35.03,1
34.00,35.26,1
46.00,35.57,1
34.00,35.94,1
43.00,36.34,1
31.00,36.69,1
50.00,37.02,1
31.00,37.39,1
39.00,37.68,1
34.00,37.84,1
41.00,37.93,1
32.00,37.97,1
34.00,37.90,1
31.00,37.67,1
37.00,37.35,1
31.00,37.00,1
36.00,36.62,1
33.00,36.25,1
36.00,35.91,1
34.00,35.61,1
34.00,35.35,1
36.00,35.12,1
32.00,34.93,1
39.00,34.77,1
30.00,34.67,1
40.00,34.59,1
31.00,34.55,1
42.00,34.56,1
31.00,34.64,1
41.00,34.76,1
31.00,34.88,1
46.00,35.06,1
34.00,35.33,1
45.00,35.68,1
31.00,36.05,1
41.00,36.36,1
31.00,36.59,1
45.00,36.77,1
31.00,36.95,1
43.00,37.11,1
32.00,37.23,1
41.00,37.32,1
34.00,37.37,1
36.00,37.38,1
32.00,37.28,1
35.00,37.10,1
33.00,36.84,1
36.00,36.57,1
34.00,36.30,1
35.00,36.04,1
33.00,35.78,1
33.00,35.52,1
38.00,35.27,1
31.00,35.07,1
41.00,34.93,1
34.00,34.88,1
37.00,34.90,1
31.00,34.91,1
34.00,34.86,1
33.00,34.76,1
38.00,34.68,1
31.00,34.62,1
45.00,34.64,1
31.00,34.76,1
43.00,34.94,1
31.00,35.15,1
42.00,35.36,1
31.00,35.55,1
43.00,35.74,1
30.00,35.92,1
39.00,36.04,1
32.00,36.10,1
37.00,36.10,1
32.00,36.05,1
33.00,35.93,1
33.00,35.73,1
36.00,35.52,1
32.00,35.31,1
32.00,35.08,1
36.00,34.83,1
33.00,34.63,1
36.00,34.47,1
30.00,34.32,1
36.00,34.17,1
32.00,34.03,1
36.00,33.92,1
31.00,33.83,1
36.00,33.76,1
32.00,33.70,1
44.00,33.73,1
31.00,33.89,1
38.00,34.07,1
32.00,34.24,1
40.00,34.41,1
32.00,34.59,1
38.00,34.75,1
32.00,34.89,1
38.00,35.00,1
32.00,35.08,1
37.00,35.13,1
32.00,35.15,1
37.00,35.14,1
33.00,35.12,1
36.00,35.09,1
34.00,35.06,1
38.00,35.05,1
34.00,35.08,1
34.00,35.09,1
33.00,35.06,1
36.00,35.00,1
35.00,34.96,1
33.00,34.91,1
36.00,34.86,1
31.00,34.79,1
36.00,34.70,1
32.00,34.59,1
37.00,34.50,1
33.00,34.44,1
38.00,34.42,1
33.00,34.45,1
38.00,34.50,1
33.00,34.57,1
39.00,34.66,1
32.00,34.77,1
36.00,34.85,1
33.00,34.89,1
38.00,34.93,1
33.00,34.97,1
37.00,35.02,1
32.00,35.04,1
37.00,35.04,1
33.00,35.03,1
36.00,35.02,1
34.00,35.00,1
35.00,34.97,1
34.00,34.94,1
35.00,34.90,1
34.00,34.85,1
34.00,34.80,1
34.00,34.73,1
33.00,34.65,1
36.00,34.56,1
33.00,34.50,1
35.00,34.44,1
34.00,34.39,1
34.00,34.35,1
34.00,34.30,1
36.00,34.27,1
32.00,34.26,1
40.00,34.28,1
33.00,34.35,1
37.00,34.46,1
33.00,34.55,1
38.00,34.65,1
29.00,34.72,1
35.00,34.71,1
33.00,34.64,1
36.00,34.58,1
33.00,34.53,1
36.00,34.49,1
36.00,34.48,1
35.00,34.52,1
30.00,34.53,1
33.00,34.46,1
34.00,34.34,1
33.00,34.22,1
33.00,34.09,1
33.00,33.96,1
35.00,33.85,1
32.00,33.76,1
35.00,33.68,1
34.00,33.63,1
35.00,33.63,1
34.00,33.65,1
36.00,33.70,1
29.00,33.75,1
34.00,33.72,1
34.00,33.67,1
36.00,33.66,1
33.00,33.69,1
36.00,33.73,1
34.00,33.80,1
36.00,33.90,1
33.00,34.00,1
35.00,34.08,1
32.00,34.13,1
35.00,34.15,1
34.00,34.16,1
35.00,34.18,1
34.00,34.20,1
35.00,34.23,1
34.00,34.26,1
35.00,34.29,1
30.00,34.29,1
34.00,34.22,1
34.00,34.13,1
38.00,34.09,1
35.00,34.13,1
35.00,34.21,1
34.00,34.29,1
33.00,34.35,1
35.00,34.37,1
35.00,34.39,1
34.00,34.41,1
38.00,34.46,1
35.00,34.56,1
38.00,34.69,1
34.00,34.85,1
35.00,34.98,1
34.00,35.06,1
34.00,35.10,1
36.00,35.11,1
34.00,35.11,1
36.00,35.11,1
34.00,35.10,1
36.00,35.09,1
34.00,35.09,1
35.00,35.07,1
35.00,35.04,1
35.00,35.02,1
34.00,35.00,1
35.00,34.97,1
34.00,34.92,1
35.00,34.88,1
34.00,34.83,1
36.00,34.79,1
34.00,34.77,1
35.00,34.75,1
34.00,34.73,1
35.00,34.71,1
34.00,34.68,1
36.00,34.66,1
34.00,34.66,1
35.00,34.66,1
35.00,34.67,1
33.00,34.67,1
36.00,34.65,1
34.00,34.64,1
35.00,34.64,1
34.00,34.63,1
35.00,34.62,1
34.00,34.61,1
34.00,34.59,1
34.00,34.56,1
34.00,34.51,1
33.00,34.45,1
36.00,34.39,1
34.00,34.36,1
34.00,34.34,1
34.00,34.31,1
35.00,34.29,1
34.00,34.28,1
35.00,34.28,1
34.00,34.28,1
35.00,34.30,1
34.00,34.31,1
34.00,34.32,1
38.00,34.35,1
35.00,34.44,1
35.00,34.55,1
35.00,34.65,1
36.00,34.74,1
35.00,34.84,1
33.00,34.91,1
34.00,34.93,1
36.00,34.92,1
34.00,34.91,1
36.00,34.91,1
34.00,34.91,1
39.00,34.94,1
32.00,35.00,1
36.00,35.04,1
34.00,35.05,1
35.00,35.04,1
37.00,35.05,1
34.00,35.07,1
33.00,35.08,1
36.00,35.04,1
33.00,35.00,1
36.00,34.95,1
32.00,34.89,1
35.00,34.80,1
33.00,34.70,1
35.00,34.61,1
34.00,34.52,1
33.00,34.44,1
35.00,34.35,1
34.00,34.28,1
35.00,34.24,1
35.00,34.22,1
35.00,34.23,1
34.00,34.26,1
35.00,34.29,1
35.00,34.32,1
35.00,34.37,1
34.00,34.42,1
35.00,34.47,1
35.00,34.51,1
35.00,34.55,1
33.00,34.59,1
36.00,34.60,1
34.00,34.62,1
36.00,34.64,1
32.00,34.66,1
36.00,34.65,1
34.00,34.63,1
35.00,34.63,1
34.00,34.62,1
34.00,34.60,1
34.00,34.56,1
36.00,34.54,1
34.00,34.53,1
34.00,34.53,1
34.00,34.50,1
35.00,34.48,1
34.00,34.46,1
35.00,34.45,1
34.00,34.44,1
35.00,34.44,1
34.00,34.44,1
34.00,34.43,1
37.00,34.43,1
34.00,34.47,1
35.00,34.52,1
35.00,34.56,1
37.00,34.63,1
34.00,34.71,1
34.00,34.78,1
34.00,34.80,1
36.00,34.81,1
33.00,34.82,1
34.00,34.79,1
34.00,34.74,1
35.00,34.68,1
34.00,34.63,1
35.00,34.59,1
36.00,34.57,1
35.00,34.59,1
34.00,34.62,1
36.00,34.64,1
37.00,34.70,1
35.00,34.79,1
34.00,34.88,1
35.00,34.93,1
34.00,34.95,1
35.00,34.96,1
34.00,34.95,1
35.00,34.92,1
33.00,34.88,1
34.00,34.81,1
34.00,34.73,1
35.00,34.65,1
36.00,34.59,1
35.00,34.59,1
35.00,34.60,1
34.00,34.62,1
35.00,34.63,1
34.00,34.63,1
36.00,34.64,1
34.00,34.65,1
36.00,34.68,1
34.00,34.71,1
34.00,34.72,1
34.00,34.71,1
33.00,34.67,1
33.00,34.59,1
36.00,34.50,1
34.00,34.44,1
35.00,34.41,1
34.00,34.39,1
36.00,34.38,1
34.00,34.40,1
35.00,34.42,1
34.00,34.44,1
34.00,34.45,1
33.00,34.44,1
35.00,34.40,1
34.00,34.37,1
35.00,34.35,1
35.00,34.35,1
34.00,34.36,1
35.00,34.37,1
34.00,34.39,1
35.00,34.40,1
34.00,34.42,1
35.00,34.43,1
34.00,34.44,1
38.00,34.48,1
32.00,34.54,1
36.00,34.59,1
34.00,34.62,1
35.00,34.65,1
35.00,34.67,1
34.00,34.69,1
33.00,34.69,1
34.00,34.64,1
34.00,34.58,1
35.00,34.52,1
34.00,34.47,1
31.00,34.41,1
34.00,34.29,1
35.00,34.18,1
35.00,34.11,1
35.00,34.09,1
34.00,34.10,1
33.00,34.10,1
34.00,34.08,1
34.00,34.05,1
35.00,34.04,1
34.00,34.05,1
34.00,34.06,1
34.00,34.06,1
31.00,34.04,1
33.00,33.97,1
35.00,33.88,1
34.00,33.82,1
36.00,33.81,1
33.00,33.83,1
35.00,33.86,1
33.00,33.89,1
36.00,33.92,1
32.00,33.96,1
35.00,33.98,1
34.00,34.00,1
36.00,34.03,1
33.00,34.08,1
35.00,34.13,1
35.00,34.18,1
35.00,34.24,1
30.00,34.27,1
38.00,34.26,1
34.00,34.28,1
37.00,34.34,1
33.00,34.42,1
35.00,34.48,1
34.00,34.52,1
33.00,34.53,1
35.00,34.51,1
34.00,34.49,1
35.00,34.48,1
34.00,34.46,1
36.00,34.47,1
33.00,34.48,1
35.00,34.48,1
33.00,34.46,1
35.00,34.43,1
33.00,34.40,1
36.00,34.37,1
32.00,34.34,1
35.00,34.30,1
34.00,34.26,1
35.00,34.24,1
34.00,34.23,1
35.00,34.23,1
33.00,34.23,1
35.00,34.23,1
34.00,34.22,1
35.00,34.23,1
34.00,34.24,1
35.00,34.26,1
34.00,34.28,1
35.00,34.31,1
34.00,34.33,1
34.00,34.35,1
34.00,34.35,1
34.00,34.34,1
35.00,34.33,1
35.00,34.33,1
37.00,34.38,1
34.00,34.45,1
35.00,34.53,1
34.00,34.59,1
35.00,34.63,1
34.00,34.66,1
36.00,34.68,1
33.00,34.70,1
36.00,34.71,1
34.00,34.72,1
38.00,34.75,1
34.00,34.81,1
37.00,34.90,1
34.00,34.98,1
36.00,35.05,1
33.00,35.09,1
36.00,35.11,1
34.00,35.11,1
35.00,35.09,1
34.00,35.06,1
35.00,35.02,1
34.00,34.97,1
35.00,34.92,1
32.00,34.85,1
34.00,34.75,1
35.00,34.63,1
35.00,34.55,1
33.00,34.48,1
34.00,34.41,1
35.00,34.34,1
37.00,34.32,1
35.00,34.36,1
34.00,34.42,1
38.00,34.49,1
34.00,34.59,1
35.00,34.70,1
34.00,34.77,1
36.00,34.82,1
34.00,34.86,1
36.00,34.90,1
33.00,34.93,1
35.00,34.93,1
38.00,34.93,1
35.00,34.99,1
34.00,35.05,1
34.00,35.07,1
34.00,35.05,1
35.00,35.01,1
34.00,34.96,1
35.00,34.91,1
34.00,34.86,1
36.00,34.81,1
35.00,34.79,1
34.00,34.79,1
34.00,34.76,1
35.00,34.73,1
36.00,34.71,1
34.00,34.71,1
38.00,34.74,1
33.00,34.80,1
36.00,34.85,1
34.00,34.88,1
36.00,34.91,1
34.00,34.94,1
36.00,34.96,1
33.00,34.97,1
34.00,34.94,1
34.00,34.88,1
35.00,34.82,1
34.00,34.76,1
34.00,34.70,1
32.00,34.61,1
36.00,34.51,1
34.00,34.43,1
38.00,34.40,1
34.00,34.44,1
35.00,34.49,1
34.00,34.53,1
35.00,34.56,1
34.00,34.58,1
33.00,34.58,1
35.00,34.55,1
35.00,34.52,1
34.00,34.51,1
35.00,34.50,1
38.00,34.53,1
33.00,34.60,1
35.00,34.66,1
34.00,34.69,1
35.00,34.71,1
34.00,34.71,1
37.00,34.73,1
36.00,34.78,1
36.00,34.87,1
33.00,34.95,1
36.00,34.99,1
33.00,35.01,1
35.00,35.00,1
34.00,34.97,1
36.00,34.93,1
34.00,34.91,1
35.00,34.89,1
34.00,34.86,1
35.00,34.82,1
34.00,34.79,1
34.00,34.74,1
34.00,34.68,1
34.00,34.61,1
35.00,34.55,1
35.00,34.51,1
34.00,34.48,1
35.00,34.47,1
33.00,34.45,1
34.00,34.41,1
35.00,34.36,1
35.00,34.34,1
34.00,34.34,1
32.00,34.32,1
35.00,34.27,1
33.00,34.22,1
35.00,34.17,1
33.00,34.12,1
35.00,34.09,1
34.00,34.06,1
36.00,34.07,1
36.00,34.12,1
35.00,34.21,1
34.00,34.31,1
36.00,34.40,1
33.00,34.48,1
34.00,34.52,1
34.00,34.53,1
35.00,34.53,1
34.00,34.52,1
35.00,34.52,1
34.00,34.52,1
35.00,34.51,1
34.00,34.51,1
35.00,34.51,1
34.00,34.51,1
33.00,34.49,1
34.00,34.44,1
35.00,34.39,1
36.00,34.37,1
34.00,34.39,1
35.00,34.41,1
34.00,34.43,1
36.00,34.46,1
33.00,34.49,1
38.00,34.53,1
33.00,34.59,1
36.00,34.65,1
29.00,34.66,1
36.00,34.59,1
34.00,34.51,1
35.00,34.46,1
34.00,34.43,1
34.00,34.39,1
30.00,34.32,1
34.00,34.19,1
32.00,34.03,1
35.00,33.89,1
34.00,33.78,1
34.00,33.72,1
34.00,33.68,1
35.00,33.67,1
37.00,33.71,1
33.00,33.80,1
35.00,33.90,1
34.00,33.98,1
38.00,34.08,1
34.00,34.23,1
35.00,34.37,1
34.00,34.48,1
35.00,34.57,1
34.00,34.63,1
35.00,34.68,1
33.00,34.70,1
35.00,34.69,1
33.00,34.66,1
35.00,34.61,1
34.00,34.57,1
35.00,34.53,1
34.00,34.50,1
34.00,34.47,1
35.00,34.44,1
36.00,34.44,1
35.00,34.47,1
35.00,34.52,1
34.00,34.56,1
38.00,34.62,1
34.00,34.71,1
35.00,34.80,1
34.00,34.85,1
34.00,34.87,1
34.00,34.86,1
35.00,34.83,1
34.00,34.80,1
35.00,34.76,1
35.00,34.73,1
30.00,34.68,1
38.00,34.59,1
37.00,34.56,1
31.00,34.58,1
33.00,34.54,1
36.00,34.47,1
34.00,34.42,1
35.00,34.40,1
34.00,34.38,1
36.00,34.38,1
33.00,34.39,1
34.00,34.39,1
34.00,34.37,1
34.00,34.34,1
34.00,34.30,1
34.00,34.27,1
37.00,34.26,1
35.00,34.30,1
33.00,34.35,1
35.00,34.38,1
35.00,34.41,1
35.00,34.45,1
34.00,34.49,1
35.00,34.52,1
35.00,34.55,1
34.00,34.58,1
38.00,34.63,1
34.00,34.71,1
36.00,34.79,1
33.00,34.86,1
36.00,34.89,1
34.00,34.92,1
35.00,34.93,1
34.00,34.93,1
36.00,34.92,1
33.00,34.90,1
36.00,34.88,1
34.00,34.86,1
34.00,34.83,1
37.00,34.81,1
36.00,34.83,1
34.00,34.87,1
35.00,34.91,1
34.00,34.92,1
35.00,34.91,1
38.00,34.93,1
34.00,34.98,1
35.00,35.03,1
37.00,35.08,1
34.00,35.13,1
34.00,35.16,1
36.00,35.17,1
33.00,35.15,1
40.00,35.16,1
36.00,35.23,1
41.00,35.38,1
33.00,35.57,1
37.00,35.74,1
33.00,35.84,1
39.00,35.90,1
32.00,35.94,1
39.00,35.96,1
32.00,35.96,1
38.00,35.94,1
35.00,35.91,1
36.00,35.90,1
32.00,35.85,1
35.00,35.74,1
34.00,35.60,1
34.00,35.45,1
33.00,35.28,1
35.00,35.10,1
34.00,34.93,1
34.00,34.78,1
35.00,34.65,1
29.00,34.51,1
39.00,34.35,1
33.00,34.25,1
36.00,34.20,1
32.00,34.17,1
38.00,34.16,1
32.00,34.18,1
40.00,34.24,1
31.00,34.33,1
43.00,34.47,1
35.00,34.69,1
38.00,34.95,1
32.00,35.18,1
42.00,35.39,1
32.00,35.59,1
39.00,35.77,1
33.00,35.91,1
36.00,35.99,1
36.00,36.02,1
38.00,36.07,1
32.00,36.10,1
34.00,36.05,1
34.00,35.93,1
32.00,35.76,1
34.00,35.54,1
34.00,35.30,1
36.00,35.09,1
32.00,34.92,1
36.00,34.75,1
31.00,34.59,1
35.00,34.43,1
36.00,34.30,1
39.00,34.27,1
32.00,34.33,1
40.00,34.41,1
32.00,34.53,1
40.00,34.67,1
32.00,34.82,1
40.00,34.97,1
32.00,35.12,1
42.00,35.28,1
31.00,35.45,1
36.00,35.57,1
32.00,35.59,1
38.00,35.58,1
32.00,35.55,1
36.00,35.49,1
32.00,35.39,1
34.00,35.26,1
33.00,35.09,1
36.00,34.92,1
34.00,34.79,1
34.00,34.68,1
34.00,34.58,1
32.00,34.46,1
37.00,34.35,1
29.00,34.24,1
39.00,34.14,1
30.00,34.06,1
37.00,34.00,1
31.00,33.95,1
38.00,33.92,1
31.00,33.92,1
42.00,33.97,1
32.00,34.10,1
42.00,34.29,1
32.00,34.53,1
38.00,34.76,1
31.00,34.94,1
36.00,35.04,1
33.00,35.08,1
37.00,35.10,1
32.00,35.10,1
39.00,35.10,1
36.00,35.15,1
33.00,35.21,1
34.00,35.22,1
34.00,35.18,1
37.00,35.13,1
33.00,35.10,1
34.00,35.05,1
35.00,34.98,1
34.00,34.90,1
33.00,34.82,1
37.00,34.74,1
33.00,34.68,1
39.00,34.67,1
32.00,34.69,1
38.00,34.73,1
33.00,34.77,1
39.00,34.84,1
32.00,34.92,1
38.00,34.99,1
35.00,35.07,1
39.00,35.19,1
35.00,35.34,1
39.00,35.51,1
33.00,35.67,1
36.00,35.78,1
32.00,35.81,1
33.00,35.75,1
33.00,35.60,1
35.00,35.42,1
34.00,35.25,1
36.00,35.10,1
34.00,34.98,1
33.00,34.87,1
34.00,34.73,1
33.00,34.59,1
35.00,34.46,1
33.00,34.34,1
35.00,34.24,1
31.00,34.14,1
35.00,34.02,1
33.00,33.92,1
39.00,33.88,1
33.00,33.92,1
36.00,33.99,1
31.00,34.04,1
40.00,34.10,1
33.00,34.21,1
38.00,34.35,1
33.00,34.49,1
37.00,34.63,1
33.00,34.74,1
36.00,34.83,1
32.00,34.88,1
36.00,34.88,1
29.00,34.84,1
34.00,34.71,1
33.00,34.53,1
32.00,34.35,1
37.00,34.19,1
34.00,34.09,1
34.00,34.03,1
34.00,33.99,1
34.00,33.96,1
34.00,33.94,1
35.00,33.93,1
32.00,33.93,1
35.00,33.91,1
28.00,33.85,1
36.00,33.74,1
32.00,33.63,1
36.00,33.55,1
32.00,33.51,1
36.00,33.50,1
32.00,33.51,1
40.00,33.56,1
36.00,33.71,1
38.00,33.96,1
33.00,34.22,1
38.00,34.46,1
34.00,34.68,1
37.00,34.89,1
34.00,35.07,1
37.00,35.22,1
35.00,35.35,1
37.00,35.47,1
34.00,35.57,1
35.00,35.63,1
35.00,35.64,1
34.00,35.62,1
35.00,35.57,1
34.00,35.50,1
33.00,35.39,1
32.00,35.23,1
34.00,35.03,1
32.00,34.81,1
35.00,34.59,1
32.00,34.38,1
38.00,34.23,1
34.00,34.15,1
38.00,34.15,1
33.00,34.21,1
36.00,34.27,1
33.00,34.33,1
38.00,34.40,1
33.00,34.49,1
36.00,34.57,1
34.00,34.64,1
37.00,34.71,1
34.00,34.80,1
39.00,34.90,1
34.00,35.03,1
35.00,35.14,1
34.00,35.21,1
35.00,35.23,1
34.00,35.23,1
34.00,35.19,1
34.00,35.13,1
34.00,35.04,1
34.00,34.94,1
32.00,34.81,1
34.00,34.66,1
32.00,34.48,1
32.00,34.29,1
33.00,34.07,1
39.00,33.91,1
32.00,33.85,1
36.00,33.84,1
33.00,33.84,1
37.00,33.87,1
33.00,33.93,1
38.00,34.02,1
33.00,34.14,1
38.00,34.28,1
35.00,34.44,1
36.00,34.61,1
34.00,34.76,1
38.00,34.90,1
33.00,35.04,1
37.00,35.15,1
34.00,35.23,1
36.00,35.30,1
35.00,35.35,1
35.00,35.38,1
35.00,35.40,1
33.00,35.37,1
36.00,35.32,1
34.00,35.26,1
34.00,35.19,1
34.00,35.10,1
36.00,35.01,1
34.00,34.94,1
35.00,34.88,1
33.00,34.82,1
32.00,34.72,1
33.00,34.56,1
36.00,34.41,1
33.00,34.30,1
37.00,34.23,1
33.00,34.21,1
36.00,34.20,1
34.00,34.22,1
37.00,34.27,1
34.00,34.34,1
39.00,34.46,1
33.00,34.60,1
36.00,34.73,1
34.00,34.83,1
41.00,34.96,1
33.00,35.13,1
36.00,35.28,1
34.00,35.37,1
33.00,35.41,1
34.00,35.38,1
33.00,35.29,1
35.00,35.17,1
33.00,35.04,1
35.00,34.91,1
28.00,34.73,1
35.00,34.50,1
33.00,34.26,1
38.00,34.09,1
33.00,34.01,1
36.00,33.99,1
32.00,33.97,1
35.00,33.96,1
35.00,33.95,1
38.00,34.01,1
33.00,34.12,1
37.00,34.24,1
33.00,34.36,1
40.00,34.50,1
34.00,34.67,1
35.00,34.84,1
33.00,34.95,1
36.00,35.01,1
33.00,35.04,1
36.00,35.05,1
33.00,35.03,1
35.00,34.99,1
38.00,34.97,1
34.00,35.00,1
34.00,35.02,1
33.00,34.99,1
35.00,34.93,1
32.00,34.85,1
36.00,34.75,1
33.00,34.65,1
35.00,34.57,1
33.00,34.49,1
35.00,34.41,1
32.00,34.32,1
36.00,34.24,1
33.00,34.18,1
36.00,34.15,1
33.00,34.13,1
36.00,34.13,1
32.00,34.14,1
37.00,34.14,1
33.00,34.17,1
36.00,34.21,1
34.00,34.25,1
35.00,34.31,1
34.00,34.35,1
38.00,34.42,1
34.00,34.52,1
36.00,34.63,1
35.00,34.73,1
38.00,34.85,1
35.00,35.00,1
31.00,35.10,1
34.00,35.10,1
35.00,35.05,1
35.00,35.00,1
33.00,34.95,1
35.00,34.87,1
33.00,34.79,1
35.00,34.70,1
33.00,34.61,1
38.00,34.54,1
32.00,34.52,1
37.00,34.50,1
32.00,34.50,1
36.00,34.48,1
36.00,34.49,1
38.00,34.56,1
33.00,34.67,1
39.00,34.79,1
33.00,34.92,1
35.00,35.02,1
38.00,35.11,1
39.00,35.25,1
33.00,35.43,1
34.00,35.54,1
32.00,35.55,1
35.00,35.48,1
34.00,35.38,1
34.00,35.26,1
34.00,35.13,1
36.00,35.01,1
33.00,34.92,1
32.00,34.79,1
36.00,34.65,1
34.00,34.54,1
34.00,34.45,1
32.00,34.35,1
35.00,34.24,1
33.00,34.14,1
35.00,34.06,1
32.00,33.99,1
37.00,33.93,1
33.00,33.92,1
38.00,33.95,1
33.00,34.03,1
37.00,34.12,1
33.00,34.23,1
35.00,34.32,1
33.00,34.37,1
38.00,34.43,1
34.00,34.51,1
37.00,34.62,1
33.00,34.72,1
39.00,34.82,1
36.00,34.97,1
39.00,35.16,1
34.00,35.37,1
33.00,35.51,1
33.00,35.55,1
37.00,35.52,1
34.00,35.50,1
31.00,35.43,1
35.00,35.28,1
34.00,35.12,1
38.00,35.01,1
29.00,34.91,1
36.00,34.77,1
32.00,34.62,1
35.00,34.47,1
32.00,34.33,1
35.00,34.19,1
33.00,34.07,1
37.00,34.00,1
33.00,33.97,1
40.00,34.01,1
31.00,34.11,1
38.00,34.21,1
33.00,34.31,1
35.00,34.41,1
33.00,34.46,1
39.00,34.53,1
29.00,34.59,1
37.00,34.60,1
33.00,34.59,1
38.00,34.60,1
33.00,34.64,1
33.00,34.66,1
34.00,34.62,1
34.00,34.57,1
34.00,34.51,1
36.00,34.47,1
34.00,34.45,1
33.00,34.43,1
35.00,34.39,1
33.00,34.35,1
39.00,34.34,1
33.00,34.39,1
35.00,34.44,1
32.00,34.46,1
37.00,34.46,1
33.00,34.47,1
35.00,34.48,1
32.00,34.46,1
39.00,34.45,1
35.00,34.50,1
38.00,34.61,1
33.00,34.74,1
38.00,34.87,1
33.00,34.98,1
35.00,35.06,1
33.00,35.09,1
36.00,35.08,1
32.00,35.05,1
38.00,35.00,1
33.00,34.98,1
34.00,34.94,1
35.00,34.89,1
38.00,34.86,1
37.00,34.91,1
34.00,35.01,1
35.00,35.08,1
34.00,35.11,1
34.00,35.11,1
33.00,35.06,1
38.00,35.01,1
30.00,34.96,1
43.00,34.93,1
33.00,34.99,1
39.00,35.10,1
32.00,35.20,1
39.00,35.29,1
32.00,35.36,1
42.00,35.45,1
33.00,35.57,1
40.00,35.72,1
32.00,35.84,1
40.00,35.94,1
32.00,36.02,1
34.00,36.03,1
33.00,35.95,1
36.00,35.82,1
33.00,35.68,1
42.00,35.58,1
33.00,35.57,1
36.00,35.58,1
34.00,35.55,1
31.00,35.48,1
35.00,35.33,1
35.00,35.17,1
34.00,35.04,1
35.00,34.92,1
34.00,34.82,1
32.00,34.70,1
35.00,34.57,1
31.00,34.42,1
38.00,34.29,1
35.00,34.23,1
43.00,34.30,1
32.00,34.48,1
41.00,34.70,1
31.00,34.92,1
41.00,35.13,1
32.00,35.32,1
42.00,35.51,1
28.00,35.67,1
43.00,35.78,1
32.00,35.89,1
44.00,36.03,1
32.00,36.21,1
45.00,36.41,1
32.00,36.63,1
39.00,36.81,1
33.00,36.91,1
37.00,36.94,1
34.00,36.91,1
27.00,36.75,1
36.00,36.44,1
32.00,36.08,1
36.00,35.74,1
34.00,35.44,1
34.00,35.18,1
32.00,34.93,1
38.00,34.70,1
30.00,34.53,1
37.00,34.37,1
30.00,34.22,1
37.00,34.08,1
32.00,33.97,1
42.00,33.95,1
31.00,34.02,1
45.00,34.19,1
31.00,34.44,1
48.00,34.77,1
31.00,35.18,1
50.00,35.65,1
31.00,36.17,1
50.00,36.70,1
30.00,37.23,1
45.00,37.68,1
32.00,38.03,1
41.00,38.28,1
30.00,38.39,1
38.00,38.36,1
32.00,38.21,1
39.00,38.00,1
33.00,37.76,1
33.00,37.47,1
32.00,37.10,1
31.00,36.64,1
35.00,36.15,1
30.00,35.67,1
40.00,35.24,1
30.00,34.90,1
43.00,34.67,1
32.00,34.58,1
39.00,34.57,1
34.00,34.61,1
44.00,34.74,1
30.00,34.95,1
44.00,35.18,1
30.00,35.41,1
38.00,35.59,1
31.00,35.69,1
40.00,35.73,1
31.00,35.76,1
46.00,35.83,1
29.00,35.95,1
42.00,36.05,1
31.00,36.14,1
42.00,36.21,1
35.00,36.31,1
41.00,36.45,1
36.00,36.61,1
34.00,36.74,1
34.00,36.77,1
36.00,36.71,1
34.00,36.61,1
34.00,36.46,1
37.00,36.29,1
30.00,36.11,1
36.00,35.87,1
31.00,35.60,1
45.00,35.40,1
29.00,35.32,1
40.00,35.28,1
34.00,35.25,1
43.00,35.32,1
31.00,35.45,1
38.00,35.57,1
31.00,35.61,1
50.00,35.71,1
31.00,35.95,1
42.00,36.21,1
33.00,36.43,1
51.00,36.72,1
31.00,37.09,1
44.00,37.44,1
30.00,37.71,1
43.00,37.88,1
32.00,37.97,1
43.00,38.03,1
33.00,38.07,1
34.00,38.02,1
31.00,37.82,1
35.00,37.50,1
35.00,37.14,1
31.00,36.76,1
36.00,36.36,1
29.00,35.94,1
42.00,35.56,1
31.00,35.28,1
42.00,35.11,1
29.00,35.02,1
45.00,34.98,1
30.00,35.03,1
43.00,35.13,1
33.00,35.28,1
48.00,35.53,1
31.00,35.86,1
48.00,36.24,1
30.00,36.62,1
50.00,37.01,1
33.00,37.43,1
44.00,37.83,1
30.00,38.13,1
45.00,38.34,1
31.00,38.47,1
41.00,38.52,1
29.00,38.46,1
45.00,38.34,1
31.00,38.21,1
38.00,38.06,1
33.00,37.83,1
44.00,37.64,1
33.00,37.52,1
33.00,37.37,1
34.00,37.12,1
33.00,36.81,1
36.00,36.48,1
31.00,36.15,1
41.00,35.85,1
31.00,35.63,1
40.00,35.47,1
31.00,35.35,1
44.00,35.29,1
32.00,35.33,1
46.00,35.46,1
33.00,35.69,1
44.00,35.97,1
32.00,36.26,1
51.00,36.60,1
31.00,37.01,1
50.00,37.44,1
31.00,37.87,1
50.00,38.29,1
30.00,38.67,1
45.00,38.96,1
31.00,39.14,1
44.00,39.23,1
32.00,39.25,1
39.00,39.18,1
35.00,39.04,1
36.00,38.83,1
33.00,38.55,1
31.00,38.16,1
36.00,37.69,1
32.00,37.20,1
39.00,36.74,1
31.00,36.35,1
39.00,36.00,1
32.00,35.72,1
44.00,35.53,1
31.00,35.47,1
41.00,35.46,1
30.00,35.47,1
45.00,35.50,1
31.00,35.61,1
47.00,35.78,1
33.00,36.04,1
45.00,36.34,1
33.00,36.67,1
51.00,37.04,1
30.00,37.46,1
42.00,37.80,1
33.00,38.03,1
43.00,38.20,1
31.00,38.30,1
44.00,38.34,1
30.00,38.33,1
42.00,38.27,1
29.00,38.14,1
37.00,37.91,1
33.00,37.61,1
40.00,37.32,1
33.00,37.07,1
36.00,36.83,1
36.00,36.59,1
32.00,36.36,1
35.00,36.10,1
31.00,35.81,1
39.00,35.52,1
30.00,35.28,1
32.00,35.02,1
34.00,34.71,1
41.00,34.50,1
31.00,34.42,1
54.00,34.51,1
31.00,34.84,1
54.00,35.35,1
32.00,35.98,1
58.00,36.73,1
31.00,37.56,1
54.00,38.39,1
31.00,39.16,1
54.00,39.85,1
29.00,40.45,1
50.00,40.91,1
30.00,41.22,1
50.00,41.41,1
31.00,41.52,1
50.00,41.57,1
35.00,41.60,1
38.00,41.56,1
35.00,41.36,1
34.00,41.01,1
35.00,40.53,1
31.00,39.94,1
40.00,39.30,1
32.00,38.70,1
47.00,38.21,1
32.00,37.88,1
48.00,37.70,1
35.00,37.66,1
54.00,37.80,1
31.00,38.10,1
46.00,38.41,1
35.00,38.68,1
56.00,39.03,1
32.00,39.48,1
50.00,39.93,1
31.00,40.29,1
34.00,40.45,1
31.00,40.30,1
52.00,40.08,1
31.00,39.96,1
45.00,39.86,1
32.00,39.73,1
43.00,39.57,1
31.00,39.38,1
40.00,39.13,1
34.00,38.84,1
30.00,38.48,1
33.00,37.98,1
31.00,37.40,1
35.00,36.80,1
30.00,36.20,1
36.00,35.64,1
33.00,35.15,1
56.00,34.92,1
35.00,35.09,1
50.00,35.50,1
32.00,36.03,1
41.00,36.52,1
45.00,36.99,1
60.00,37.71,1
35.00,38.66,1
54.00,39.62,1
31.00,40.48,1
49.00,41.16,1
32.00,41.65,1
58.00,42.06,1
37.00,42.50,1
47.00,42.92,1
31.00,43.15,1
50.00,43.22,1
31.00,43.18,1
51.00,43.07,1
31.00,42.91,1
38.00,42.63,1
32.00,42.15,1
39.00,41.55,1
33.00,40.91,1
30.00,40.19,1
35.00,39.37,1
26.00,38.48,1
38.00,37.57,1
31.00,36.74,1
41.00,36.06,1
30.00,35.53,1
44.00,35.15,1
32.00,34.94,1
46.00,34.90,1
31.00,35.00,1
44.00,35.17,1
31.00,35.38,1
49.00,35.65,1
31.00,36.00,1
42.00,36.34,1
31.00,36.60,1
57.00,36.92,1
31.00,37.41,1
42.00,37.87,1
33.00,38.19,1
42.00,38.41,1
32.00,38.54,1
43.00,38.60,1
31.00,38.60,1
32.00,38.45,1
32.00,38.12,1
36.00,37.70,1
33.00,37.26,1
32.00,36.80,1
33.00,36.32,1
31.00,35.81,1
36.00,35.32,1
38.00,34.95,1
38.00,34.75,1
30.00,34.64,1
40.00,34.55,1
31.00,34.51,1
39.00,34.50,1
30.00,34.51,1
48.00,34.58,1
29.00,34.78,1
43.00,35.01,1
34.00,35.26,1
41.00,35.54,1
30.00,35.78,1
39.00,35.94,1
32.00,36.04,1
38.00,36.08,1
34.00,36.09,1
36.00,36.08,1
34.00,36.04,1
38.00,35.99,1
34.00,35.95,1
34.00,35.89,1
35.00,35.79,1
32.00,35.65,1
35.00,35.48,1
32.00,35.28,1
35.00,35.07,1
34.00,34.88,1
34.00,34.71,1
36.00,34.58,1
35.00,34.50,1
34.00,34.45,1
35.00,34.42,1
35.00,34.41,1
33.00,34.40,1
35.00,34.38,1
31.00,34.34,1
35.00,34.26,1
33.00,34.18,1
35.00,34.11,1
34.00,34.06,1
30.00,34.00,1
36.00,33.90,1
30.00,33.79,1
35.00,33.68,1
35.00,33.60,1
35.00,33.58,1
35.00,33.61,1
34.00,33.67,1
35.00,33.75,1
34.00,33.83,1
35.00,33.92,1
34.00,34.00,1
34.00,34.07,1
35.00,34.13,1
34.00,34.19,1
34.00,34.24,1
34.00,34.26,1
34.00,34.28,1
35.00,34.28,1
35.00,34.30,1
35.00,34.34,1
35.00,34.40,1
34.00,34.45,1
35.00,34.49,1
34.00,34.52,1
34.00,34.53,1
34.00,34.53,1
35.00,34.51,1
33.00,34.49,1
35.00,34.46,1
34.00,34.43,1
31.00,34.38,1
35.00,34.28,1
33.00,34.18,1
35.00,34.10,1
34.00,34.05,1
34.00,34.01,1
35.00,33.99,1
36.00,34.01,1
35.00,34.08,1
34.00,34.15,1
34.00,34.22,1
35.00,34.27,1
38.00,34.34,1
35.00,34.48,1
34.00,34.61,1
34.00,34.70,1
35.00,34.75,1
38.00,34.82,1
34.00,34.92,1
35.00,35.00,1
30.00,35.02,1
35.00,34.94,1
34.00,34.84,1
34.00,34.74,1
34.00,34.64,1
33.00,34.54,1
38.00,34.46,1
33.00,34.43,1
34.00,34.41,1
33.00,34.37,1
35.00,34.31,1
34.00,34.27,1
37.00,34.26,1
34.00,34.30,1
34.00,34.34,1
36.00,34.37,1
34.00,34.42,1
35.00,34.47,1
33.00,34.50,1
35.00,34.51,1
35.00,34.51,1
34.00,34.52,1
34.00,34.52,1
33.00,34.49,1
35.00,34.45,1
35.00,34.42,1
35.00,34.41,1
33.00,34.41,1
35.00,34.40,1
36.00,34.40,1
34.00,34.43,1
34.00,34.45,1
34.00,34.45,1
34.00,34.44,1
34.00,34.42,1
35.00,34.39,1
35.00,34.39,1
37.00,34.42,1
35.00,34.50,1
34.00,34.58,1
35.00,34.64,1
35.00,34.69,1
35.00,34.74,1
34.00,34.78,1
39.00,34.83,1
35.00,34.93,1
38.00,35.07,1
34.00,35.21,1
34.00,35.32,1
35.00,35.36,1
35.00,35.37,1
34.00,35.36,1
34.00,35.32,1
34.00,35.24,1
34.00,35.14,1
35.00,35.03,1
35.00,34.94,1
35.00,34.88,1
34.00,34.82,1
35.00,34.77,1
36.00,34.74,1
34.00,34.73,1
38.00,34.75,1
34.00,34.81,1
34.00,34.86,1
34.00,34.87,1
38.00,34.88,1
34.00,34.92,1
35.00,34.97,1
37.00,35.01,1
32.00,35.06,1
35.00,35.05,1
35.00,35.02,1
35.00,35.00,1
34.00,34.98,1
34.00,34.93,1
32.00,34.85,1
38.00,34.76,1
34.00,34.72,1
35.00,34.70,1
32.00,34.67,1
35.00,34.60,1
33.00,34.52,1
36.00,34.46,1
32.00,34.40,1
35.00,34.33,1
33.00,34.26,1
39.00,34.23,1
33.00,34.27,1
36.00,34.33,1
31.00,34.37,1
38.00,34.38,1
32.00,34.40,1
40.00,34.46,1
31.00,34.54,1
32.00,34.57,1
29.00,34.47,1
41.00,34.34,1
37.00,34.33,1
36.00,34.43,1
34.00,34.56,1
32.00,34.63,1
35.00,34.64,1
34.00,34.63,1
36.00,34.63,1
32.00,34.62,1
39.00,34.61,1
31.00,34.63,1
38.00,34.65,1
30.00,34.65,1
38.00,34.63,1
31.00,34.60,1
37.00,34.57,1
31.00,34.53,1
41.00,34.51,1
30.00,34.54,1
44.00,34.61,1
30.00,34.75,1
51.00,34.99,1
30.00,35.35,1
51.00,35.79,1
31.00,36.30,1
45.00,36.78,1
30.00,37.19,1
44.00,37.49,1
31.00,37.72,1
44.00,37.88,1
32.00,38.00,1
34.00,38.01,1
34.00,37.87,1
31.00,37.61,1
32.00,37.23,1
37.00,36.80,1
35.00,36.42,1
31.00,36.07,1
37.00,35.72,1
31.00,35.39,1
39.00,35.12,1
30.00,34.90,1
40.00,34.72,1
33.00,34.63,1
47.00,34.67,1
34.00,34.90,1
46.00,35.24,1
44.00,35.75,1
53.00,36.50,1
30.00,37.36,1
57.00,38.18,1
29.00,38.97,1
44.00,39.60,1
30.00,39.98,1
48.00,40.20,1
33.00,40.36,1
46.00,40.46,1
31.00,40.49,1
40.00,40.40,1
32.00,40.17,1
37.00,39.83,1
31.00,39.39,1
42.00,38.91,1
35.00,38.51,1
35.00,38.14,1
36.00,37.76,1
26.00,37.32,1
50.00,36.90,1
34.00,36.68,1
51.00,36.70,1
32.00,36.89,1
56.00,37.23,1
40.00,37.77,1
64.00,38.59,1
31.00,39.59,1
52.00,40.50,1
36.00,41.28,1
59.00,42.01,1
36.00,42.75,1
60.00,43.47,1
30.00,44.13,1
47.00,44.54,1
32.00,44.68,1
36.00,44.52,1
31.00,44.05,1
35.00,43.32,1
31.00,42.43,1
41.00,41.50,1
31.00,40.60,1
35.00,39.72,1
34.00,38.85,1
32.00,38.03,1
39.00,37.27,1
31.00,36.64,1
45.00,36.15,1
32.00,35.84,1
46.00,35.71,1
32.00,35.72,1
60.00,35.95,1
31.00,36.45,1
51.00,37.06,1
38.00,37.71,1
77.00,38.65,1
38.00,39.98,1
62.00,41.45,1
35.00,42.83,1
68.00,44.11,1
35.00,45.33,1
64.00,46.42,1
28.00,47.30,1
48.00,47.79,1
32.00,47.87,1
47.00,47.65,1
38.00,47.27,1
49.00,46.84,1
36.00,46.38,1
39.00,45.83,1
31.00,45.09,1
36.00,44.17,1
32.00,43.13,1
41.00,42.08,1
40.00,41.16,1
31.00,40.36,1
36.00,39.56,1
32.00,38.75,1
51.00,38.11,1
64.00,37.99,1
55.00,38.58,1
38.00,39.51,1
47.00,40.38,1
36.00,41.10,1
70.00,41.85,1
42.00,42.83,1
76.00,44.07,1
39.00,45.48,1
89.00,47.06,1
36.00,48.79,1
47.00,50.21,1
36.00,51.01,1
90.00,51.65,1
34.00,52.50,1
40.00,53.05,1
35.00,52.95,1
49.00,52.44,1
32.00,51.67,1
72.00,50.91,1
33.00,50.38,1
39.00,49.77,1
35.00,48.87,1
32.00,47.73,1
40.00,46.43,1
32.00,45.10,1
46.00,43.83,1
34.00,42.73,1
62.00,41.93,1
36.00,41.55,1
69.00,41.56,1
34.00,41.92,1
94.00,42.71,1
45.00,44.11,1
73.00,45.85,1
37.00,47.53,1
55.00,48.91,1
47.00,49.95,1
88.00,51.04,1
43.00,52.39,1
66.00,53.66,1
48.00,54.70,1
56.00,55.48,1
46.00,55.94,1
50.00,56.08,1
31.00,55.79,1
44.00,55.02,1
37.00,53.90,1
35.00,52.54,1
34.00,50.93,1
34.00,49.15,1
30.00,47.27,1
31.00,45.31,1
45.00,43.46,1
63.00,42.13,1
49.00,41.55,1
36.00,41.36,1
50.00,41.27,1
47.00,41.35,1
55.00,41.68,1
42.00,42.20,1
64.00,42.88,1
45.00,43.75,1
54.00,44.68,1
38.00,45.50,1
79.00,46.34,1
48.00,47.46,1
69.00,48.76,1
42.00,50.02,1
64.00,51.12,1
36.00,51.97,1
66.00,52.56,1
41.00,53.00,1
59.00,53.29,1
42.00,53.42,1
58.00,53.40,1
30.00,53.18,1
58.00,52.71,1
32.00,52.08,1
48.00,51.29,1
31.00,50.30,1
36.00,49.08,1
43.00,47.75,1
32.00,46.43,1
40.00,45.10,1
34.00,43.81,1
49.00,42.68,1
43.00,41.86,1
52.00,41.40,1
37.00,41.19,1
60.00,41.22,1
47.00,41.56,1
63.00,42.24,1
50.00,43.21,1
89.00,44.61,1
46.00,46.46,1
87.00,48.55,1
44.00,50.71,1
68.00,52.69,1
49.00,54.34,1
84.00,55.87,1
34.00,57.26,1
49.00,58.08,1
31.00,58.12,1
53.00,57.59,1
31.00,56.66,1
31.00,55.29,1
35.00,53.48,1
56.00,51.63,1
34.00,50.01,1
31.00,48.41,1
43.00,46.74,1
38.00,45.21,1
53.00,43.97,1
54.00,43.21,1
55.00,42.99,1
46.00,43.13,1
58.00,43.51,1
48.00,44.09,1
73.00,44.95,1
59.00,46.22,1
80.00,47.90,1
44.00,49.76,1
102.00,51.77,1
38.00,53.95,1
61.00,55.80,1
37.00,56.98,1
78.00,57.75,1
33.00,58.30,1
77.00,58.61,1
32.00,58.73,1
50.00,58.44,1
30.00,57.64,1
36.00,56.32,1
30.00,54.55,1
31.00,52.45,1
32.00,50.15,1
32.00,47.79,1
32.00,45.47,1
32.00,43.27,1
40.00,41.28,1
35.00,39.63,1
30.00,38.21,1
42.00,37.01,1
48.00,36.21,1
49.00,35.95,1
54.00,36.22,1
37.00,36.82,1
67.00,37.68,1
50.00,38.91,1
60.00,40.43,1
43.00,42.01,1
70.00,43.61,1
43.00,45.25,1
65.00,46.82,1
42.00,48.25,1
73.00,49.58,1
38.00,50.81,1
70.00,51.88,1
38.00,52.77,1
73.00,53.50,1
42.00,54.16,1
61.00,54.67,1
29.00,54.85,1
31.00,54.42,1
30.00,53.28,1
30.00,51.64,1
39.00,49.76,1
42.00,47.92,1
41.00,46.29,1
37.00,44.86,1
50.00,43.65,1
43.00,42.77,1
67.00,42.37,1
70.00,42.70,1
61.00,43.75,1
59.00,45.18,1
72.00,46.85,1
62.00,48.77,1
93.00,50.99,1
41.00,53.39,1
82.00,55.57,1
52.00,57.52,1
80.00,59.29,1
44.00,60.79,1
64.00,61.84,1
37.00,62.32,1
44.00,62.13,1
37.00,61.26,1
79.00,60.20,1
37.00,59.33,1
50.00,58.38,1
32.00,57.13,1
48.00,55.63,1
31.00,53.96,1
30.00,52.07,1
34.00,49.94,1
45.00,47.85,1
36.00,46.01,1
35.00,44.34,1
46.00,42.86,1
43.00,41.73,1
53.00,41.02,1
43.00,40.71,1
71.00,40.86,1
43.00,41.51,1
57.00,42.39,1
42.00,43.31,1
95.00,44.53,1
50.00,46.32,1
92.00,48.52,1
63.00,51.05,1
92.00,53.85,1
43.00,56.60,1
81.00,58.95,1
38.00,60.80,1
70.00,62.07,1
34.00,62.74,1
65.00,62.84,1
38.00,62.51,1
51.00,61.78,1
31.00,60.60,1
43.00,58.97,1
32.00,57.02,1
34.00,54.82,1
36.00,52.46,1
30.00,50.05,1
31.00,47.61,1
43.00,45.30,1
49.00,43.42,1
47.00,42.11,1
52.00,41.33,1
53.00,41.06,1
66.00,41.36,1
42.00,42.09,1
70.00,43.08,1
47.00,44.31,1
90.00,45.88,1
47.00,47.82,1
108.00,50.14,1
58.00,52.90,1
62.00,55.62,1
44.00,57.72,1
63.00,59.16,1
36.00,60.00,1
95.00,60.55,1
47.00,61.23,1
32.00,61.54,1
32.00,60.92,1
42.00,59.57,1
30.00,57.79,1
38.00,55.67,1
39.00,53.42,1
32.00,51.17,1
38.00,48.93,1
38.00,46.82,1
52.00,45.04,1
54.00,43.81,1
71.00,43.35,1
48.00,43.58,1
60.00,44.19,1
51.00,45.00,1
93.00,46.24,1
72.00,48.20,1
79.00,50.71,1
52.00,53.28,1
92.00,55.75,1
65.00,58.27,1
86.00,60.81,1
52.00,63.12,1
100.00,65.18,1
36.00,66.97,1
68.00,68.11,1
35.00,68.44,1
70.00,68.14,1
35.00,67.39,1
49.00,66.15,1
32.00,64.37,1
57.00,62.31,1
30.00,60.13,1
41.00,57.80,1
39.00,55.36,1
64.00,53.18,1
41.00,51.49,1
31.00,49.96,1
71.00,48.59,1
43.00,47.72,1
60.00,47.28,1
59.00,47.22,1
68.00,47.65,1
58.00,48.49,1
69.00,49.62,1
55.00,50.90,1
87.00,52.40,1
55.00,54.14,1
86.00,56.02,1
46.00,57.85,1
81.00,59.46,1
41.00,60.79,1
84.00,61.82,1
45.00,62.67,1
110.00,63.58,1
34.00,64.65,1
62.00,65.31,1
36.00,65.25,1
58.00,64.64,1
33.00,63.56,1
43.00,62.03,1
31.00,60.05,1
36.00,57.72,1
36.00,55.19,1
29.00,52.58,1
37.00,49.93,1
33.00,47.40,1
52.00,45.19,1
35.00,43.44,1
50.00,42.10,1
58.00,41.28,1
67.00,41.21,1
42.00,41.73,1
72.00,42.58,1
56.00,43.82,1
81.00,45.51,1
59.00,47.58,1
85.00,49.93,1
53.00,52.39,1
95.00,54.90,1
61.00,57.50,1
123.00,60.38,1
51.00,63.53,1
74.00,66.29,1
38.00,68.17,1
83.00,69.26,1
39.00,69.81,1
56.00,69.71,1
32.00,68.84,1
44.00,67.25,1
32.00,65.08,1
39.00,62.48,1
36.00,59.65,1
33.00,56.72,1
40.00,53.79,1
38.00,51.03,1
40.00,48.54,1
32.00,46.28,1
44.00,44.25,1
40.00,42.57,1
46.00,41.29,1
44.00,40.41,1
69.00,40.08,1
45.00,40.37,1
42.00,40.93,1
41.00,41.40,1
71.00,42.00,1
49.00,43.00,1
130.00,44.81,1
48.00,47.66,1
115.00,51.07,1
47.00,54.66,1
86.00,58.02,1
48.00,60.86,1
33.00,62.78,1
35.00,63.39,1
61.00,63.11,1
31.00,62.35,1
37.00,61.03,1
34.00,59.16,1
38.00,56.95,1
33.00,54.57,1
39.00,52.14,1
35.00,49.78,1
40.00,47.57,1
45.00,45.64,1
35.00,44.03,1
62.00,42.81,1
53.00,42.22,1
51.00,42.19,1
38.00,42.36,1
56.00,42.60,1
50.00,43.03,1
72.00,43.81,1
56.00,45.03,1
89.00,46.71,1
59.00,48.88,1
91.00,51.37,1
44.00,53.92,1
71.00,56.14,1
40.00,57.85,1
94.00,59.26,1
39.00,60.57,1
72.00,61.59,1
44.00,62.20,1
55.00,62.39,1
32.00,62.01,1
59.00,61.14,1
30.00,59.94,1
32.00,58.30,1
30.00,56.14,1
38.00,53.73,1
33.00,51.26,1
30.00,48.80,1
38.00,46.41,1
49.00,44.33,1
51.00,42.84,1
59.00,42.02,1
51.00,41.84,1
60.00,42.14,1
54.00,42.83,1
51.00,43.75,1
59.00,44.78,1
58.00,45.96,1
79.00,47.44,1
58.00,49.25,1
82.00,51.28,1
58.00,53.45,1
84.00,55.65,1
54.00,57.81,1
85.00,59.82,1
42.00,61.58,1
98.00,63.08,1
44.00,64.47,1
59.00,65.41,1
30.00,65.55,1
66.00,65.03,1
32.00,64.07,1
60.00,62.80,1
32.00,61.29,1
33.00,59.40,1
30.00,57.05,1
32.00,54.41,1
36.00,51.69,1
30.00,49.02,1
43.00,46.52,1
40.00,44.37,1
51.00,42.71,1
53.00,41.65,1
44.00,41.13,1
43.00,40.89,1
64.00,40.95,1
50.00,41.48,1
72.00,42.45,1
48.00,43.79,1
80.00,45.41,1
45.00,47.24,1
71.00,49.06,1
49.00,50.77,1
85.00,52.49,1
45.00,54.24,1
68.00,55.79,1
63.00,57.14,1
83.00,58.57,1
36.00,59.91,1
106.00,61.10,1
39.00,62.36,1
56.00,63.24,1
34.00,63.33,1
31.00,62.59,1
33.00,61.01,1
33.00,58.87,1
46.00,56.49,1
45.00,54.22,1
50.00,52.23,1
55.00,50.65,1
55.00,49.56,1
57.00,48.92,1
60.00,48.71,1
53.00,48.84,1
64.00,49.23,1
53.00,49.83,1
80.00,50.71,1
51.00,51.88,1
91.00,53.32,1
49.00,54.98,1
104.00,56.85,1
51.00,58.93,1
86.00,60.98,1
47.00,62.75,1
83.00,64.20,1
46.00,65.31,1
60.00,65.94,1
45.00,65.99,1
66.00,65.62,1
31.00,64.88,1
52.00,63.66,1
32.00,62.01,1
35.00,59.95,1
33.00,57.52,1
35.00,54.90,1
35.00,52.24,1
38.00,49.67,1
45.00,47.36,1
80.00,45.77,1
66.00,45.30,1
36.00,45.49,1
61.00,45.77,1
51.00,46.21,1
79.00,47.01,1
52.00,48.21,1
77.00,49.68,1
51.00,51.28,1
88.00,53.01,1
56.00,54.91,1
100.00,57.02,1
54.00,59.29,1
84.00,61.48,1
47.00,63.33,1
77.00,64.75,1
49.00,65.76,1
81.00,66.47,1
40.00,66.89,1
68.00,66.88,1
34.00,66.40,1
38.00,65.29,1
36.00,63.49,1
39.00,61.27,1
32.00,58.76,1
37.00,56.07,1
31.00,53.31,1
32.00,50.53,1
34.00,47.82,1
35.00,45.29,1
58.00,43.21,1
37.00,41.76,1
50.00,40.78,1
49.00,40.22,1
61.00,40.20,1
54.00,40.71,1
65.00,41.68,1
62.00,43.08,1
91.00,45.03,1
57.00,47.50,1
89.00,50.24,1
54.00,53.05,1
89.00,55.80,1
48.00,58.36,1
88.00,60.63,1
44.00,62.56,1
89.00,64.16,1
42.00,65.43,1
72.00,66.25,1
34.00,66.51,1
63.00,66.19,1
37.00,65.39,1
44.00,64.11,1
31.00,62.32,1
43.00,60.13,1
31.00,57.70,1
47.00,55.19,1
36.00,52.80,1
27.00,50.44,1
37.00,48.03,1
33.00,45.72,1
46.00,43.69,1
41.00,42.07,1
47.00,40.90,1
59.00,40.25,1
48.00,40.20,1
45.00,40.49,1
75.00,41.13,1
51.00,42.30,1
93.00,44.01,1
66.00,46.37,1
80.00,49.14,1
40.00,51.83,1
69.00,54.05,1
42.00,55.77,1
80.00,57.15,1
40.00,58.32,1
93.00,59.37,1
41.00,60.41,1
34.00,60.93,1
30.00,60.47,1
54.00,59.34,1
30.00,57.91,1
68.00,56.41,1
33.00,55.05,1
35.00,53.59,1
40.00,51.90,1
38.00,50.16,1
39.00,48.46,1
74.00,47.14,1
56.00,46.59,1
90.00,46.90,1
63.00,48.05,1
44.00,49.49,1
54.00,50.65,1
69.00,51.67,1
65.00,52.87,1
64.00,54.21,1
93.00,55.79,1
51.00,57.64,1
89.00,59.48,1
79.00,61.46,1
139.00,64.12,1
50.00,67.38,1
112.00,70.53,1
47.00,73.25,1
74.00,75.21,1
44.00,76.19,1
84.00,76.44,1
28.00,76.10,1
64.00,75.01,1
32.00,73.27,1
40.00,70.91,1
30.00,67.96,1
31.00,64.54,1
31.00,60.82,1
37.00,57.06,1
30.00,53.44,1
31.00,49.98,1
36.00,46.75,1
43.00,43.96,1
69.00,41.97,1
52.00,40.98,1
56.00,40.78,1
50.00,41.04,1
48.00,41.57,1
51.00,42.23,1
72.00,43.17,1
66.00,44.60,1
77.00,46.54,1
60.00,48.79,1
98.00,51.33,1
58.00,54.15,1
109.00,57.18,1
70.00,60.45,1
86.00,63.71,1
54.00,66.53,1
98.00,68.88,1
44.00,70.82,1
107.00,72.38,1
41.00,73.64,1
104.00,74.59,1
33.00,75.18,1
33.00,74.81,1
31.00,73.12,1
77.00,70.84,1
32.00,68.56,1
40.00,66.05,1
38.00,63.20,1
47.00,60.29,1
58.00,57.65,1
73.00,55.70,1
52.00,54.49,1
66.00,53.78,1
46.00,53.36,1
45.00,52.96,1
75.00,52.64,1
66.00,52.82,1
97.00,53.72,1
60.00,55.27,1
84.00,57.10,1
73.00,59.10,1
104.00,61.42,1
52.00,63.91,1
82.00,66.08,1
48.00,67.73,1
52.00,68.64,1
36.00,68.61,1
85.00,68.05,1
39.00,67.40,1
38.00,66.33,1
32.00,64.53,1
51.00,62.30,1
31.00,59.91,1
48.00,57.44,1
35.00,54.99,1
33.00,52.57,1
36.00,50.12,1
37.00,47.76,1
45.00,45.68,1
50.00,44.05,1
64.00,43.08,1
46.00,42.79,1
81.00,43.11,1
64.00,44.18,1
90.00,46.02,1
78.00,48.55,1
92.00,51.68,1
64.00,55.04,1
119.00,58.58,1
