118.00,98.18,1
55.00,97.69,1
127.00,97.02,1
117.00,96.82,1
221.00,98.31,1
429.00,104.36,1
165.00,115.82,1
123.00,128.03,1
337.00,139.25,1
49.00,150.17,1
55.00,157.54,1
76.00,159.84,1
134.00,159.10,1
222.00,157.96,1
531.00,161.08,1
377.00,171.91,1
256.00,187.20,1
559.00,204.67,1
366.00,225.55,1
183.00,246.16,1
253.00,261.80,1
298.00,273.19,1
203.00,281.49,1
300.00,286.76,1
515.00,292.18,1
123.00,298.67,1
155.00,301.25,1
327.00,299.57,1
172.00,296.50,1
152.00,291.18,1
48.00,281.82,1
227.00,269.32,1
261.00,257.21,1
404.00,249.07,1
88.00,244.21,1
245.00,239.27,1
365.00,235.41,1
198.00,234.39,1
252.00,234.23,1
328.00,234.90,1
182.00,236.65,1
403.00,239.20,1
348.00,244.29,1
298.00,251.65,1
75.00,257.33,1
689.00,262.55,1
290.00,272.28,1
124.00,282.19,1
429.00,288.39,1
263.00,293.85,1
166.00,297.55,1
191.00,296.99,1
42.00,291.53,1
286.00,282.34,1
62.00,271.60,1
84.00,258.49,1
219.00,243.67,1
139.00,229.81,1
167.00,217.17,1
139.00,205.44,1
93.00,194.17,1
88.00,182.60,1
371.00,173.06,1
159.00,168.25,1
260.00,166.90,1
122.00,166.99,1
96.00,166.50,1
218.00,165.01,1
143.00,164.01,1
98.00,162.80,1
104.00,160.16,1
150.00,156.61,1
59.00,152.56,1
135.00,147.77,1
441.00,145.62,1
266.00,149.80,1
46.00,156.45,1
195.00,160.87,1
195.00,164.13,1
82.00,166.69,1
287.00,168.46,1
170.00,171.07,1
264.00,174.76,1
102.00,178.40,1
120.00,180.11,1
228.00,180.17,1
162.00,180.35,1
83.00,179.77,1
311.00,178.66,1
132.00,178.83,1
230.00,179.71,1
410.00,182.73,1
65.00,188.18,1
191.00,192.14,1
136.00,193.59,1
106.00,193.00,1
83.00,189.74,1
49.00,183.60,1
190.00,175.91,1
240.00,169.79,1
73.00,165.66,1
73.00,160.83,1
49.00,154.06,1
51.00,145.67,1
284.00,138.07,1
71.00,133.44,1
133.00,130.13,1
263.00,128.29,1
117.00,129.07,1
63.00,130.02,1
60.00,128.93,1
107.00,126.24,1
38.00,122.60,1
135.00,118.41,1
52.00,114.28,1
131.00,110.42,1
82.00,107.11,1
88.00,104.22,1
91.00,101.46,1
56.00,98.71,1
174.00,96.47,1
43.00,95.28,1
183.00,94.88,1
139.00,95.97,1
168.00,98.85,1
153.00,102.96,1
49.00,107.00,1
192.00,110.20,1
106.00,113.44,1
53.00,115.93,1
119.00,116.72,1
112.00,116.79,1
52.00,116.24,1
127.00,114.80,1
135.00,113.56,1
41.00,112.48,1
84.00,110.43,1
64.00,107.46,1
175.00,104.85,1
132.00,103.92,1
74.00,104.03,1
127.00,104.04,1
64.00,103.84,1
77.00,103.00,1
81.00,101.42,1
88.00,99.57,1
117.00,97.96,1
56.00,96.62,1
116.00,95.26,1
154.00,94.74,1
150.00,95.97,1
248.00,99.54,1
81.00,104.98,1
53.00,109.47,1
182.00,112.30,1
137.00,115.32,1
101.00,118.41,1
114.00,120.58,1
320.00,123.63,1
105.00,128.97,1
203.00,134.82,1
41.00,139.37,1
255.00,142.69,1
242.00,147.03,1
51.00,152.01,1
91.00,154.32,1
50.00,153.32,1
240.00,151.05,1
88.00,149.43,1
104.00,147.57,1
74.00,144.31,1
65.00,139.69,1
326.00,135.94,1
116.00,135.47,1
82.00,135.92,1
138.00,135.21,1
43.00,133.51,1
225.00,131.51,1
126.00,130.77,1
41.00,130.17,1
165.00,128.49,1
155.00,127.31,1
54.00,126.59,1
167.00,125.40,1
310.00,126.13,1
74.00,129.67,1
92.00,132.62,1
53.00,133.04,1
61.00,131.06,1
93.00,127.44,1
239.00,124.49,1
102.00,123.71,1
44.00,123.05,1
73.00,120.66,1
94.00,117.20,1
66.00,113.38,1
49.00,109.00,1
112.00,104.35,1
42.00,99.97,1
110.00,95.86,1
123.00,92.75,1
180.00,91.76,1
200.00,93.65,1
128.00,97.85,1
118.00,102.59,1
209.00,107.53,1
90.00,112.91,1
107.00,117.36,1
74.00,119.99,1
129.00,121.19,1
76.00,121.45,1
206.00,121.66,1
139.00,122.98,1
326.00,126.62,1
42.00,132.09,1
59.00,135.75,1
57.00,135.84,1
118.00,133.80,1
50.00,130.67,1
190.00,127.35,1
135.00,125.29,1
65.00,123.92,1
162.00,122.32,1
177.00,121.75,1
325.00,124.26,1
62.00,129.41,1
178.00,134.24,1
70.00,137.49,1
143.00,139.23,1
215.00,140.66,1
142.00,143.01,1
111.00,145.11,1
127.00,145.96,1
187.00,146.35,1
142.00,147.11,1
162.00,148.06,1
104.00,148.60,1
170.00,148.56,1
82.00,147.96,1
380.00,148.51,1
46.00,151.40,1
186.00,154.02,1
411.00,157.79,1
37.00,164.11,1
193.00,169.10,1
277.00,173.08,1
97.00,177.37,1
331.00,181.40,1
84.00,185.43,1
167.00,187.84,1
90.00,187.66,1
90.00,184.91,1
135.00,180.02,1
131.00,174.41,1
318.00,170.29,1
102.00,168.70,1
100.00,167.05,1
103.00,163.62,1
78.00,158.79,1
58.00,152.47,1
102.00,145.05,1
134.00,137.90,1
64.00,131.49,1
40.00,124.76,1
163.00,118.06,1
95.00,112.88,1
176.00,109.60,1
187.00,108.73,1
187.00,110.58,1
213.00,114.76,1
226.00,121.09,1
156.00,128.70,1
55.00,135.13,1
232.00,139.66,1
45.00,143.14,1
144.00,144.88,1
167.00,145.55,1
64.00,145.73,1
73.00,144.06,1
374.00,142.86,1
244.00,146.02,1
156.00,152.06,1
111.00,157.14,1
63.00,159.46,1
51.00,158.28,1
39.00,153.83,1
106.00,147.30,1
118.00,140.51,1
71.00,134.12,1
92.00,127.73,1
149.00,121.99,1
88.00,117.55,1
221.00,114.82,1
129.00,114.40,1
100.00,115.08,1
94.00,115.29,1
58.00,114.49,1
143.00,113.01,1
88.00,111.72,1
105.00,110.55,1
57.00,108.93,1
38.00,106.21,1
77.00,102.38,1
68.00,98.23,1
200.00,95.24,1
57.00,94.16,1
124.00,93.85,1
59.00,93.51,1
114.00,93.11,1
57.00,92.56,1
43.00,91.33,1
104.00,89.41,1
79.00,87.73,1
48.00,86.11,1
193.00,85.08,1
179.00,86.56,1
127.00,90.43,1
141.00,95.14,1
115.00,99.92,1
103.00,104.16,1
129.00,107.65,1
91.00,110.49,1
74.00,112.17,1
104.00,112.55,1
42.00,111.80,1
222.00,110.92,1
102.00,111.44,1
351.00,114.59,1
254.00,121.94,1
213.00,132.38,1
68.00,142.12,1
51.00,148.11,1
311.00,151.75,1
118.00,156.04,1
36.00,158.96,1
37.00,157.79,1
96.00,153.38,1
187.00,148.39,1
106.00,144.45,1
180.00,141.47,1
43.00,138.73,1
242.00,136.27,1
149.00,135.47,1
48.00,135.25,1
39.00,132.97,1
69.00,128.46,1
94.00,123.00,1
125.00,117.94,1
111.00,113.95,1
47.00,110.42,1
109.00,106.67,1
69.00,103.06,1
86.00,99.66,1
105.00,96.63,1
113.00,94.52,1
120.00,93.52,1
171.00,94.01,1
40.00,95.42,1
57.00,95.88,1
63.00,94.86,1
85.00,93.16,1
50.00,91.12,1
107.00,88.97,1
56.00,87.04,1
91.00,85.25,1
164.00,84.41,1
65.00,85.00,1
78.00,85.72,1
117.00,86.22,1
60.00,86.83,1
128.00,87.44,1
64.00,88.16,1
94.00,88.68,1
168.00,89.61,1
128.00,91.98,1
108.00,95.15,1
62.00,97.76,1
115.00,99.38,1
39.00,100.05,1
44.00,99.21,1
76.00,96.95,1
74.00,94.24,1
79.00,91.58,1
62.00,88.95,1
92.00,86.45,1
38.00,84.04,1
41.00,81.15,1
54.00,77.72,1
48.00,74.16,1
88.00,70.97,1
53.00,68.49,1
204.00,67.65,1
93.00,69.36,1
44.00,71.96,1
188.00,74.62,1
98.00,78.45,1
115.00,82.89,1
109.00,87.14,1
106.00,91.12,1
409.00,97.17,1
130.00,107.33,1
70.00,117.60,1
65.00,124.29,1
37.00,127.18,1
80.00,126.96,1
158.00,125.53,1
96.00,124.36,1
50.00,122.65,1
39.00,119.24,1
70.00,114.32,1
260.00,110.45,1
170.00,110.14,1
114.00,112.19,1
56.00,113.78,1
79.00,113.74,1
50.00,112.13,1
65.00,109.18,1
82.00,105.51,1
111.00,102.04,1
235.00,100.50,1
104.00,101.68,1
70.00,103.45,1
77.00,104.04,1
73.00,103.49,1
94.00,102.27,1
226.00,101.99,1
129.00,103.99,1
98.00,106.88,1
86.00,108.94,1
107.00,110.01,1
187.00,111.21,1
84.00,113.12,1
38.00,114.07,1
48.00,112.75,1
42.00,109.47,1
45.00,104.83,1
116.00,99.87,1
142.00,96.26,1
168.00,95.03,1
195.00,96.54,1
56.00,99.59,1
86.00,101.86,1
73.00,102.70,1
48.00,102.24,1
103.00,100.77,1
43.00,98.78,1
53.00,95.98,1
140.00,93.08,1
233.00,92.45,1
60.00,94.44,1
170.00,97.15,1
93.00,100.07,1
71.00,102.51,1
103.00,103.76,1
48.00,103.96,1
127.00,103.37,1
66.00,102.55,1
36.00,100.96,1
46.00,97.93,1
174.00,94.87,1
35.00,92.97,1
230.00,92.37,1
36.00,93.26,1
164.00,94.71,1
100.00,96.52,1
225.00,99.59,1
36.00,103.48,1
114.00,106.41,1
108.00,108.18,1
61.00,109.18,1
189.00,109.79,1
154.00,111.55,1
136.00,114.44,1
127.00,117.42,1
105.00,119.89,1
141.00,121.76,1
94.00,123.12,1
140.00,123.96,1
117.00,124.55,1
111.00,124.89,1
52.00,124.24,1
273.00,123.67,1
230.00,126.02,1
35.00,130.01,1
58.00,131.68,1
355.00,132.78,1
115.00,136.55,1
62.00,140.26,1
135.00,141.52,1
154.00,141.81,1
151.00,142.26,1
139.00,142.81,1
54.00,142.49,1
38.00,139.88,1
40.00,134.67,1
54.00,127.67,1
114.00,120.31,1
41.00,113.40,1
45.00,106.39,1
60.00,99.10,1
86.00,92.37,1
88.00,86.84,1
50.00,82.35,1
39.00,78.09,1
81.00,74.01,1
84.00,70.82,1
172.00,69.53,1
69.00,70.35,1
80.00,71.88,1
43.00,72.91,1
39.00,72.98,1
46.00,71.99,1
200.00,71.60,1
48.00,73.02,1
64.00,74.66,1
68.00,75.46,1
204.00,76.91,1
47.00,79.81,1
62.00,82.34,1
38.00,83.28,1
58.00,82.85,1
93.00,81.82,1
36.00,80.65,1
86.00,79.17,1
59.00,77.63,1
50.00,75.99,1
85.00,74.25,1
53.00,72.73,1
40.00,71.08,1
127.00,69.62,1
43.00,69.00,1
96.00,68.81,1
66.00,68.87,1
107.00,69.42,1
80.00,70.52,1
64.00,71.76,1
47.00,72.44,1
122.00,72.87,1
144.00,74.40,1
75.00,77.10,1
96.00,79.83,1
66.00,82.02,1
129.00,83.92,1
335.00,88.04,1
418.00,98.41,1
385.00,115.95,1
84.00,135.96,1
151.00,152.48,1
189.00,164.74,1
55.00,173.42,1
127.00,177.77,1
105.00,178.61,1
309.00,178.69,1
96.00,179.61,1
148.00,179.73,1
108.00,178.01,1
69.00,174.37,1
150.00,169.10,1
538.00,167.01,1
240.00,172.04,1
138.00,179.79,1
332.00,186.74,1
59.00,192.97,1
183.00,196.56,1
87.00,197.02,1
106.00,194.67,1
166.00,190.27,1
310.00,186.82,1
127.00,185.57,1
332.00,185.89,1
100.00,187.39,1
172.00,188.14,1
324.00,188.85,1
492.00,194.04,1
37.00,202.71,1
327.00,209.97,1
68.00,214.80,1
224.00,217.05,1
162.00,217.17,1
173.00,216.03,1
136.00,213.33,1
121.00,208.90,1
52.00,202.13,1
243.00,194.16,1
63.00,186.65,1
214.00,179.59,1
270.00,174.59,1
93.00,172.01,1
495.00,172.23,1
213.00,177.45,1
225.00,185.03,1
425.00,193.65,1
151.00,203.91,1
143.00,212.16,1
165.00,216.35,1
135.00,217.41,1
158.00,215.89,1
83.00,212.00,1
38.00,205.00,1
61.00,194.63,1
130.00,182.71,1
216.00,172.05,1
48.00,163.30,1
42.00,154.20,1
87.00,143.99,1
111.00,134.16,1
55.00,125.27,1
114.00,117.14,1
267.00,111.65,1
315.00,111.73,1
142.00,116.66,1
122.00,122.51,1
326.00,128.80,1
310.00,138.27,1
134.00,149.85,1
85.00,159.16,1
37.00,163.79,1
57.00,163.64,1
78.00,160.04,1
64.00,154.28,1
335.00,149.27,1
76.00,147.21,1
119.00,145.80,1
114.00,143.45,1
131.00,140.87,1
93.00,138.12,1
257.00,136.22,1
41.00,135.63,1
40.00,133.82,1
53.00,129.43,1
130.00,124.10,1
108.00,119.42,1
114.00,115.72,1
172.00,113.28,1
130.00,112.54,1
59.00,112.33,1
102.00,111.33,1
112.00,109.99,1
57.00,108.50,1
64.00,106.19,1
56.00,102.89,1
869.00,105.69,1
75.00,119.76,1
305.00,137.46,1
1023.00,160.66,1
108.00,193.37,1
214.00,223.84,1
195.00,245.58,1
57.00,259.42,1
506.00,268.08,1
45.00,275.00,1
675.00,281.66,1
178.00,290.40,1
301.00,298.46,1
65.00,301.66,1
70.00,298.25,1
356.00,290.42,1
399.00,284.64,1
534.00,284.81,1
41.00,288.02,1
157.00,287.27,1
436.00,283.71,1
226.00,282.01,1
220.00,280.54,1
37.00,275.98,1
250.00,267.89,1
49.00,257.68,1
383.00,247.44,1
48.00,238.61,1
101.00,228.79,1
38.00,216.10,1
80.00,201.39,1
185.00,186.69,1
258.00,175.20,1
73.00,167.10,1
123.00,159.76,1
74.00,152.14,1
120.00,144.54,1
44.00,136.93,1
339.00,131.15,1
238.00,130.37,1
66.00,132.79,1
57.00,133.76,1
141.00,132.74,1
50.00,130.77,1
48.00,127.33,1
116.00,122.66,1
262.00,119.55,1
76.00,119.16,1
43.00,118.71,1
40.00,116.09,1
44.00,111.62,1
85.00,106.30,1
37.00,100.82,1
57.00,95.08,1
66.00,89.37,1
63.00,84.16,1
158.00,80.31,1
122.00,78.89,1
219.00,80.36,1
243.00,85.53,1
166.00,93.83,1
253.00,103.89,1
271.00,115.93,1
488.00,131.86,1
181.00,151.39,1
173.00,169.70,1
313.00,184.94,1
132.00,198.10,1
475.00,210.25,1
36.00,221.78,1
381.00,230.88,1
153.00,238.01,1
54.00,241.67,1
216.00,240.39,1
43.00,235.81,1
257.00,229.12,1
122.00,222.06,1
42.00,213.85,1
382.00,205.40,1
111.00,199.77,1
42.00,194.22,1
286.00,187.56,1
97.00,182.18,1
71.00,176.62,1
58.00,169.00,1
41.00,159.46,1
86.00,148.83,1
75.00,138.20,1
43.00,127.85,1
136.00,118.21,1
193.00,111.18,1
219.00,108.32,1
111.00,108.69,1
43.00,109.37,1
48.00,108.29,1
94.00,105.80,1
35.00,102.64,1
48.00,98.60,1
44.00,93.69,1
36.00,88.29,1
62.00,82.73,1
68.00,77.66,1
38.00,73.18,1
52.00,68.98,1
70.00,65.26,1
44.00,62.23,1
301.00,61.66,1
432.00,68.23,1
138.00,81.73,1
525.00,99.51,1
45.00,120.00,1
95.00,137.48,1
49.00,148.55,1
178.00,155.10,1
487.00,162.34,1
88.00,172.77,1
548.00,185.01,1
694.00,203.71,1
50.00,227.68,1
295.00,247.35,1
89.00,260.09,1
199.00,266.67,1
362.00,269.86,1
376.00,274.14,1
47.00,277.91,1
88.00,276.18,1
823.00,274.37,1
57.00,278.76,1
128.00,281.68,1
85.00,277.76,1
148.00,269.28,1
156.00,258.33,1
67.00,245.78,1
62.00,231.00,1
161.00,215.00,1
110.00,199.81,1
304.00,187.32,1
49.00,177.97,1
204.00,169.99,1
41.00,162.41,1
95.00,154.43,1
87.00,145.85,1
59.00,137.21,1
129.00,128.86,1
92.00,121.64,1
103.00,115.57,1
49.00,110.00,1
112.00,104.70,1
138.00,100.62,1
127.00,98.46,1
187.00,98.37,1
97.00,100.00,1
105.00,101.95,1
81.00,103.27,1
197.00,104.69,1
121.00,107.24,1
178.00,110.73,1
76.00,114.29,1
54.00,116.39,1
457.00,119.43,1
75.00,126.46,1
112.00,133.57,1
200.00,138.69,1
269.00,144.46,1
162.00,151.52,1
165.00,158.14,1
182.00,163.51,1
219.00,168.37,1
188.00,173.17,1
214.00,177.78,1
307.00,183.04,1
135.00,188.95,1
258.00,194.10,1
81.00,197.65,1
269.00,199.50,1
75.00,200.04,1
333.00,200.05,1
43.00,199.92,1
53.00,197.09,1
36.00,189.86,1
143.00,180.33,1
96.00,170.58,1
159.00,161.61,1
41.00,153.22,1
57.00,144.24,1
56.00,134.36,1
56.00,124.27,1
241.00,115.87,1
42.00,110.47,1
62.00,105.91,1
53.00,100.75,1
73.00,95.48,1
123.00,90.99,1
133.00,88.31,1
74.00,87.18,1
83.00,86.45,1
44.00,85.38,1
133.00,84.26,1
180.00,84.69,1
34.00,86.59,1
35.00,87.50,1
417.00,89.60,1
186.00,97.02,1
49.00,106.38,1
68.00,112.88,1
215.00,117.37,1
168.00,122.43,1
282.00,129.10,1
160.00,137.29,1
381.00,147.09,1
591.00,162.20,1
1023.00,189.81,1
186.00,227.80,1
224.00,262.53,1
188.00,287.02,1
57.00,301.54,1
419.00,308.61,1
124.00,312.19,1
80.00,310.73,1
294.00,304.09,1
127.00,295.55,1
86.00,284.50,1
330.00,271.85,1
182.00,260.93,1
203.00,251.42,1
82.00,241.40,1
236.00,230.80,1
115.00,220.63,1
111.00,210.37,1
96.00,199.18,1
63.00,187.07,1
104.00,174.37,1
110.00,162.10,1
88.00,150.80,1
385.00,142.76,1
281.00,141.33,1
107.00,144.29,1
199.00,147.51,1
91.00,150.00,1
36.00,150.37,1
110.00,147.91,1
90.00,143.99,1
95.00,139.43,1
100.00,134.49,1
83.00,129.41,1
142.00,124.64,1
119.00,120.92,1
54.00,117.68,1
64.00,113.74,1
208.00,110.21,1
265.00,110.08,1
282.00,114.76,1
109.00,122.29,1
51.00,128.52,1
46.00,131.11,1
104.00,130.76,1
125.00,129.29,1
73.00,127.42,1
72.00,124.62,1
73.00,120.76,1
124.00,116.66,1
298.00,114.81,1
130.00,116.64,1
136.00,119.92,1
46.00,122.15,1
94.00,122.45,1
193.00,122.16,1
115.00,122.82,1
82.00,123.44,1
46.00,122.50,1
87.00,119.89,1
76.00,116.38,1
208.00,113.57,1
51.00,112.16,1
41.00,110.28,1
64.00,106.81,1
84.00,102.72,1
80.00,98.80,1
321.00,97.24,1
41.00,99.17,1
36.00,100.99,1
158.00,101.27,1
155.00,102.33,1
163.00,104.99,1
58.00,108.00,1
186.00,110.56,1
153.00,113.68,1
37.00,116.66,1
58.00,117.44,1
263.00,117.58,1
46.00,119.01,1
166.00,120.47,1
131.00,121.81,1
100.00,123.17,1
149.00,124.09,1
91.00,124.73,1
211.00,125.57,1
60.00,126.80,1
110.00,127.18,1
80.00,126.24,1
149.00,124.81,1
55.00,123.17,1
96.00,120.79,1
40.00,117.33,1
127.00,113.33,1
96.00,109.76,1
111.00,106.98,1
157.00,105.25,1
73.00,104.58,1
56.00,103.57,1
97.00,101.71,1
74.00,99.61,1
264.00,98.92,1
35.00,100.39,1
333.00,103.70,1
135.00,109.73,1
51.00,116.09,1
66.00,119.58,1
74.00,120.40,1
70.00,119.37,1
104.00,117.26,1
132.00,115.16,1
107.00,113.68,1
221.00,113.51,1
48.00,114.57,1
91.00,114.96,1
121.00,114.35,1
102.00,113.69,1
113.00,113.06,1
64.00,112.08,1
69.00,110.18,1
90.00,107.52,1
108.00,104.89,1
67.00,102.50,1
58.00,99.78,1
66.00,96.46,1
61.00,92.81,1
63.00,89.04,1
99.00,85.60,1
191.00,83.91,1
119.00,84.80,1
104.00,87.08,1
41.00,88.98,1
45.00,89.39,1
181.00,89.31,1
72.00,90.27,1
89.00,91.44,1
180.00,92.86,1
80.00,95.24,1
210.00,98.44,1
84.00,102.44,1
35.00,105.50,1
129.00,106.65,1
66.00,106.97,1
85.00,106.54,1
156.00,105.92,1
183.00,106.73,1
64.00,108.66,1
171.00,110.52,1
98.00,112.45,1
36.00,113.52,1
146.00,113.19,1
46.00,112.29,1
130.00,110.93,1
140.00,109.92,1
190.00,110.50,1
39.00,111.91,1
62.00,112.01,1
163.00,111.06,1
130.00,110.96,1
143.00,111.89,1
49.00,112.74,1
109.00,112.54,1
47.00,111.27,1
85.00,109.00,1
108.00,106.35,1
68.00,103.88,1
166.00,101.95,1
71.00,101.01,1
80.00,100.17,1
169.00,99.52,1
204.00,100.89,1
57.00,103.88,1
186.00,106.88,1
96.00,109.97,1
153.00,113.07,1
37.00,115.32,1
51.00,115.50,1
45.00,113.31,1
191.00,110.65,1
44.00,108.87,1
169.00,107.62,1
68.00,106.83,1
109.00,106.13,1
94.00,105.22,1
46.00,103.88,1
263.00,103.14,1
252.00,105.97,1
183.00,112.50,1
139.00,120.00,1
75.00,126.16,1
138.00,130.19,1
49.00,132.25,1
59.00,131.89,1
146.00,129.82,1
85.00,127.56,1
123.00,125.25,1
94.00,122.87,1
36.00,119.86,1
56.00,115.44,1
52.00,109.92,1
69.00,103.97,1
133.00,98.68,1
40.00,94.50,1
127.00,91.01,1
94.00,88.56,1
39.00,86.69,1
176.00,85.28,1
102.00,85.48,1
36.00,86.25,1
70.00,86.00,1
52.00,84.85,1
112.00,83.53,1
194.00,83.66,1
256.00,87.30,1
223.00,94.83,1
94.00,104.01,1
59.00,111.42,1
36.00,115.40,1
63.00,116.21,1
45.00,114.67,1
40.00,111.29,1
99.00,106.90,1
36.00,102.29,1
66.00,97.35,1
243.00,93.78,1
60.00,93.03,1
78.00,93.04,1
64.00,92.28,1
44.00,90.71,1
57.00,88.24,1
182.00,86.26,1
171.00,86.80,1
286.00,91.00,1
87.00,98.07,1
100.00,104.83,1
129.00,109.95,1
203.00,114.85,1
41.00,119.53,1
84.00,122.18,1
155.00,123.15,1
35.00,123.36,1
56.00,121.76,1
112.00,118.64,1
55.00,115.11,1
126.00,111.51,1
35.00,107.90,1
54.00,103.65,1
120.00,99.17,1
53.00,95.36,1
68.00,91.73,1
109.00,88.40,1
44.00,85.68,1
49.00,82.80,1
40.00,79.38,1
100.00,76.05,1
130.00,74.07,1
66.00,73.64,1
69.00,73.62,1
175.00,74.31,1
51.00,76.26,1
208.00,79.24,1
102.00,83.61,1
50.00,87.99,1
48.00,90.47,1
31.00,90.80,1
52.00,89.39,1
43.00,86.83,1
99.00,83.97,1
93.00,81.79,1
38.00,80.10,1
106.00,78.43,1
73.00,77.25,1
62.00,76.40,1
52.00,75.28,1
97.00,74.11,1
60.00,73.31,1
72.00,72.66,1
80.00,72.11,1
78.00,71.88,1
40.00,71.60,1
71.00,70.91,1
102.00,70.39,1
40.00,70.28,1
57.00,69.83,1
96.00,69.26,1
48.00,68.98,1
78.00,68.73,1
81.00,68.62,1
118.00,69.22,1
80.00,70.69,1
40.00,72.09,1
153.00,73.36,1
51.00,75.18,1
64.00,76.71,1
62.00,77.33,1
107.00,77.68,1
35.00,77.95,1
66.00,77.58,1
105.00,76.98,1
36.00,76.56,1
67.00,75.73,1
64.00,74.53,1
50.00,73.17,1
198.00,72.70,1
59.00,74.14,1
86.00,76.09,1
62.00,77.49,1
48.00,78.12,1
114.00,78.26,1
70.00,78.64,1
52.00,78.86,1
37.00,78.16,1
64.00,76.60,1
241.00,76.24,1
97.00,78.78,1
69.00,82.29,1
36.00,84.48,1
85.00,85.22,1
67.00,85.22,1
85.00,84.90,1
62.00,84.33,1
38.00,83.15,1
64.00,81.15,1
51.00,78.74,1
36.00,75.97,1
146.00,73.58,1
77.00,72.68,1
34.00,72.36,1
102.00,71.76,1
69.00,71.47,1
39.00,71.20,1
88.00,70.58,1
43.00,69.90,1
43.00,68.87,1
107.00,67.76,1
61.00,67.32,1
100.00,67.47,1
151.00,68.75,1
36.00,71.09,1
38.00,72.67,1
64.00,72.92,1
45.00,72.44,1
120.00,71.95,1
56.00,72.02,1
51.00,72.03,1
88.00,71.69,1
46.00,71.32,1
44.00,70.52,1
60.00,69.20,1
45.00,67.63,1
119.00,66.43,1
121.00,66.67,1
77.00,68.27,1
44.00,69.87,1
120.00,71.13,1
100.00,72.90,1
60.00,74.98,1
63.00,76.43,1
190.00,78.11,1
88.00,81.20,1
50.00,84.30,1
36.00,85.71,1
58.00,85.43,1
39.00,83.95,1
54.00,81.61,1
76.00,78.97,1
116.00,77.02,1
187.00,77.09,1
46.00,79.04,1
86.00,80.92,1
48.00,81.86,1
60.00,81.87,1
217.00,82.36,1
105.00,84.96,1
130.00,88.75,1
49.00,92.12,1
36.00,93.79,1
100.00,93.79,1
85.00,93.33,1
107.00,93.02,1
94.00,92.96,1
122.00,93.28,1
103.00,94.09,1
70.00,94.89,1
45.00,94.74,1
64.00,93.34,1
68.00,91.16,1
95.00,88.94,1
133.00,87.54,1
99.00,87.40,1
47.00,87.52,1
66.00,86.86,1
68.00,85.52,1
66.00,83.89,1
74.00,82.14,1
58.00,80.34,1
54.00,78.33,1
64.00,76.11,1
111.00,74.34,1
61.00,73.40,1
97.00,73.00,1
94.00,73.16,1
100.00,74.06,1
54.00,75.17,1
73.00,75.85,1
87.00,76.22,1
44.00,76.39,1
82.00,76.12,1
205.00,76.81,1
93.00,79.65,1
44.00,82.77,1
171.00,85.31,1
40.00,87.94,1
44.00,89.48,1
54.00,89.17,1
168.00,88.62,1
75.00,89.13,1
95.00,89.98,1
40.00,90.18,1
59.00,89.28,1
57.00,87.41,1
38.00,84.84,1
41.00,81.51,1
140.00,78.44,1
60.00,76.67,1
54.00,75.38,1
114.00,74.25,1
63.00,73.79,1
74.00,73.59,1
38.00,73.07,1
210.00,73.24,1
42.00,75.09,1
47.00,76.83,1
84.00,77.44,1
91.00,77.87,1
61.00,78.32,1
38.00,78.15,1
210.00,78.31,1
60.00,80.12,1
98.00,82.39,1
60.00,84.00,1
104.00,85.11,1
107.00,86.24,1
38.00,87.19,1
86.00,87.25,1
138.00,87.29,1
68.00,87.99,1
121.00,88.88,1
194.00,90.80,1
106.00,94.35,1
49.00,97.70,1
80.00,99.35,1
42.00,99.38,1
141.00,98.65,1
89.00,98.24,1
114.00,98.25,1
58.00,98.12,1
95.00,97.45,1
64.00,96.31,1
77.00,94.72,1
55.00,92.65,1
40.00,89.88,1
35.00,86.19,1
48.00,81.83,1
40.00,77.21,1
61.00,72.71,1
38.00,68.55,1
85.00,64.95,1
55.00,62.24,1
54.00,60.19,1
49.00,58.39,1
49.00,56.75,1
57.00,55.32,1
81.00,54.42,1
122.00,54.76,1
69.00,56.49,1
39.00,58.41,1
78.00,59.80,1
62.00,61.00,1
106.00,62.45,1
46.00,64.12,1
88.00,65.64,1
120.00,67.45,1
70.00,69.90,1
38.00,71.91,1
60.00,72.76,1
46.00,72.69,1
104.00,72.34,1
39.00,72.11,1
61.00,71.56,1
72.00,70.69,1
101.00,70.23,1
73.00,70.43,1
94.00,71.06,1
59.00,71.85,1
96.00,72.61,1
73.00,73.47,1
39.00,74.01,1
76.00,73.85,1
76.00,73.49,1
58.00,73.15,1
53.00,72.50,1
43.00,71.31,1
38.00,69.50,1
139.00,67.96,1
104.00,68.02,1
77.00,69.34,1
76.00,70.81,1
96.00,72.27,1
47.00,73.60,1
70.00,74.32,1
131.00,75.04,1
116.00,76.80,1
93.00,79.39,1
60.00,81.72,1
66.00,83.10,1
64.00,83.50,1
69.00,83.23,1
86.00,82.65,1
65.00,82.00,1
55.00,81.04,1
61.00,79.58,1
34.00,77.57,1
86.00,75.25,1
108.00,73.59,1
110.00,73.31,1
118.00,74.38,1
110.00,76.51,1
98.00,79.21,1
68.00,81.73,1
38.00,83.19,1
148.00,83.96,1
103.00,85.39,1
67.00,87.13,1
44.00,87.90,1
40.00,87.17,1
37.00,85.05,1
120.00,82.57,1
50.00,80.66,1
54.00,78.80,1
85.00,76.80,1
69.00,75.16,1
56.00,73.73,1
96.00,72.50,1
194.00,72.83,1
39.00,75.01,1
38.00,76.75,1
45.00,76.85,1
98.00,76.25,1
130.00,76.34,1
68.00,77.41,1
89.00,78.59,1
43.00,79.29,1
58.00,79.12,1
158.00,78.99,1
115.00,80.35,1
43.00,82.28,1
137.00,83.83,1
102.00,85.70,1
65.00,87.64,1
54.00,88.59,1
144.00,89.01,1
83.00,89.89,1
127.00,91.21,1
45.00,92.35,1
44.00,92.31,1
72.00,90.92,1
109.00,89.32,1
98.00,88.36,1
36.00,87.53,1
75.00,86.02,1
68.00,84.12,1
40.00,81.96,1
98.00,79.65,1
63.00,77.74,1
75.00,76.18,1
68.00,74.80,1
81.00,73.70,1
44.00,72.68,1
107.00,71.79,1
40.00,71.20,1
43.00,70.30,1
78.00,68.98,1
62.00,67.85,1
70.00,66.99,1
139.00,66.95,1
41.00,67.92,1
71.00,68.83,1
109.00,69.66,1
89.00,71.11,1
38.00,72.55,1
180.00,74.10,1
43.00,76.49,1
40.00,78.30,1
80.00,78.74,1
35.00,78.42,1
135.00,77.93,1
87.00,78.23,1
62.00,78.94,1
64.00,79.14,1
59.00,78.74,1
101.00,78.18,1
52.00,77.75,1
81.00,77.21,1
62.00,76.53,1
56.00,75.64,1
142.00,75.08,1
62.00,75.50,1
79.00,76.17,1
39.00,76.30,1
135.00,76.29,1
61.00,76.81,1
55.00,77.25,1
148.00,77.67,1
140.00,79.49,1
76.00,82.42,1
110.00,85.24,1
88.00,87.75,1
149.00,90.35,1
201.00,94.20,1
191.00,100.18,1
59.00,106.72,1
72.00,111.31,1
87.00,113.51,1
57.00,113.93,1
92.00,112.91,1
77.00,111.02,1
176.00,109.41,1
45.00,108.49,1
88.00,107.12,1
71.00,104.95,1
70.00,102.31,1
48.00,99.06,1
55.00,95.13,1
38.00,90.61,1
115.00,86.21,1
108.00,83.14,1
72.00,81.38,1
56.00,79.89,1
45.00,78.02,1
149.00,76.45,1
57.00,76.04,1
63.00,75.91,1
94.00,75.58,1
78.00,75.56,1
35.00,75.40,1
54.00,74.44,1
48.00,72.83,1
91.00,71.18,1
74.00,70.10,1
68.00,69.50,1
84.00,69.17,1
164.00,69.96,1
112.00,72.60,1
167.00,76.80,1
100.00,81.99,1
52.00,86.68,1
52.00,89.49,1
111.00,90.86,1
38.00,91.47,1
120.00,91.45,1
81.00,91.38,1
38.00,90.94,1
83.00,89.59,1
168.00,88.68,1
40.00,88.86,1
177.00,89.57,1
63.00,90.92,1
82.00,92.13,1
87.00,92.59,1
127.00,93.05,1
56.00,93.60,1
108.00,93.80,1
215.00,94.87,1
40.00,97.35,1
54.00,98.91,1
63.00,98.57,1
96.00,97.34,1
46.00,95.67,1
40.00,93.12,1
77.00,89.77,1
105.00,86.73,1
80.00,84.58,1
39.00,82.67,1
122.00,80.79,1
65.00,79.57,1
37.00,78.40,1
157.00,77.36,1
100.00,77.75,1
123.00,79.43,1
82.00,81.62,1
171.00,84.38,1
72.00,87.80,1
99.00,90.91,1
44.00,92.85,1
80.00,93.46,1
51.00,92.92,1
58.00,91.42,1
86.00,89.34,1
100.00,87.54,1
100.00,86.47,1
216.00,87.07,1
83.00,89.75,1
79.00,92.63,1
71.00,94.34,1
88.00,95.07,1
109.00,95.41,1
63.00,95.57,1
191.00,96.06,1
116.00,97.90,1
50.00,99.98,1
42.00,100.38,1
130.00,99.54,1
133.00,99.21,1
79.00,99.61,1
65.00,99.56,1
48.00,98.35,1
46.00,95.89,1
95.00,92.79,1
60.00,89.81,1
135.00,87.48,1
185.00,87.07,1
92.00,88.85,1
65.00,90.85,1
144.00,92.39,1
59.00,93.91,1
44.00,94.49,1
36.00,93.30,1
58.00,90.74,1
100.00,87.88,1
58.00,85.41,1
68.00,83.05,1
97.00,80.92,1
51.00,79.21,1
51.00,77.36,1
99.00,75.47,1
195.00,75.22,1
81.00,77.29,1
51.00,79.68,1
121.00,81.37,1
46.00,82.77,1
42.00,83.21,1
116.00,82.83,1
42.00,82.41,1
38.00,81.32,1
124.00,79.81,1
67.00,78.93,1
59.00,78.28,1
68.00,77.29,1
42.00,75.94,1
74.00,74.26,1
40.00,72.44,1
38.00,70.24,1
197.00,68.83,1
49.00,69.49,1
46.00,70.52,1
64.00,70.66,1
72.00,70.46,1
42.00,70.04,1
49.00,69.11,1
60.00,67.76,1
74.00,66.51,1
72.00,65.67,1
55.00,65.13,1
122.00,65.07,1
40.00,65.68,1
81.00,66.31,1
79.00,66.91,1
69.00,67.71,1
70.00,68.45,1
194.00,70.08,1
288.00,75.19,1
52.00,83.40,1
127.00,91.17,1
157.00,97.88,1
286.00,105.77,1
84.00,115.00,1
86.00,122.66,1
40.00,126.87,1
61.00,127.76,1
82.00,126.20,1
106.00,123.57,1
70.00,120.49,1
206.00,117.91,1
77.00,116.68,1
126.00,115.90,1
153.00,115.47,1
70.00,115.48,1
45.00,114.45,1
122.00,112.21,1
77.00,109.82,1
53.00,107.09,1
74.00,103.59,1
42.00,99.51,1
67.00,94.97,1
127.00,90.88,1
37.00,87.74,1
107.00,84.99,1
120.00,83.17,1
104.00,82.75,1
94.00,83.20,1
50.00,83.61,1
58.00,83.24,1
55.00,82.03,1
120.00,80.78,1
81.00,80.26,1
40.00,79.88,1
97.00,79.08,1
114.00,78.73,1
92.00,79.33,1
68.00,80.18,1
38.00,80.38,1
96.00,79.85,1
41.00,79.05,1
41.00,77.63,1
76.00,75.64,1
36.00,73.51,1
77.00,71.33,1
136.00,70.01,1
55.00,70.05,1
77.00,70.43,1
39.00,70.44,1
174.00,70.84,1
46.00,72.38,1
109.00,74.26,1
183.00,76.92,1
119.00,81.35,1
180.00,86.99,1
98.00,93.19,1
65.00,98.46,1
49.00,101.51,1
214.00,103.59,1
72.00,106.29,1
70.00,108.37,1
40.00,108.43,1
63.00,106.64,1
55.00,103.57,1
84.00,99.95,1
69.00,96.30,1
65.00,92.71,1
86.00,89.27,1
38.00,85.98,1
40.00,82.29,1
65.00,78.29,1
168.00,75.45,1
82.00,74.81,1
101.00,75.43,1
52.00,76.18,1
68.00,76.49,1
41.00,76.08,1
51.00,74.91,1
56.00,73.18,1
118.00,71.77,1
106.00,71.62,1
95.00,72.66,1
137.00,74.63,1
67.00,77.27,1
146.00,80.16,1
100.00,83.51,1
37.00,86.47,1
50.00,87.70,1
94.00,87.64,1
60.00,87.15,1
146.00,86.87,1
67.00,87.26,1
58.00,87.47,1
42.00,86.59,1
108.00,85.11,1
87.00,84.03,1
84.00,83.44,1
49.00,82.75,1
107.00,81.88,1
58.00,81.16,1
59.00,80.26,1
88.00,79.11,1
38.00,77.87,1
99.00,76.52,1
53.00,75.36,1
57.00,74.15,1
43.00,72.51,1
78.00,70.69,1
62.00,69.13,1
86.00,68.03,1
62.00,67.40,1
78.00,67.08,1
73.00,67.02,1
71.00,67.20,1
62.00,67.41,1
101.00,67.79,1
63.00,68.54,1
145.00,69.92,1
59.00,72.07,1
54.00,73.94,1
110.00,75.20,1
181.00,77.44,1
44.00,80.88,1
40.00,83.37,1
188.00,85.08,1
72.00,87.63,1
120.00,90.41,1
70.00,92.69,1
84.00,94.19,1
66.00,94.73,1
50.00,94.21,1
83.00,92.75,1
40.00,90.70,1
73.00,88.08,1
35.00,85.01,1
67.00,81.58,1
110.00,78.59,1
71.00,76.68,1
138.00,75.94,1
56.00,76.20,1
48.00,76.35,1
55.00,75.64,1
75.00,74.53,1
57.00,73.38,1
70.00,72.22,1
108.00,71.48,1
43.00,71.27,1
99.00,71.18,1
89.00,71.48,1
57.00,72.12,1
114.00,72.83,1
99.00,74.15,1
89.00,76.01,1
53.00,77.64,1
54.00,78.37,1
44.00,78.02,1
84.00,77.03,1
99.00,76.31,1
74.00,76.18,1
40.00,75.93,1
53.00,74.94,1
43.00,73.26,1
178.00,72.19,1
102.00,73.13,1
58.00,75.06,1
79.00,76.51,1
87.00,77.58,1
57.00,78.39,1
196.00,79.70,1
158.00,83.08,1
163.00,88.50,1
128.00,94.75,1
148.00,101.06,1
274.00,108.28,1
153.00,117.22,1
157.00,126.23,1
60.00,133.24,1
135.00,137.57,1
52.00,139.45,1
62.00,138.72,1
64.00,135.55,1
72.00,130.85,1
157.00,125.97,1
95.00,122.07,1
136.00,119.07,1
64.00,116.42,1
109.00,113.63,1
101.00,110.92,1
104.00,108.62,1
86.00,106.54,1
52.00,104.15,1
43.00,100.82,1
134.00,97.20,1
37.00,94.11,1
143.00,91.56,1
45.00,89.63,1
110.00,88.03,1
130.00,87.18,1
40.00,87.04,1
67.00,86.35,1
142.00,85.57,1
114.00,86.01,1
39.00,86.89,1
87.00,86.98,1
84.00,86.63,1
63.00,86.12,1
94.00,85.40,1
54.00,84.55,1
38.00,83.07,1
43.00,80.63,1
51.00,77.55,1
128.00,74.90,1
59.00,73.43,1
58.00,72.41,1
101.00,71.51,1
50.00,71.03,1
36.00,70.28,1
46.00,68.76,1
112.00,67.31,1
147.00,67.44,1
60.00,69.18,1
40.00,70.75,1
36.00,71.06,1
155.00,71.15,1
54.00,72.18,1
88.00,73.47,1
166.00,75.30,1
106.00,78.56,1
51.00,82.00,1
70.00,84.19,1
94.00,85.43,1
71.00,86.26,1
76.00,86.62,1
41.00,86.21,1
48.00,84.75,1
82.00,82.63,1
84.00,80.74,1
89.00,79.44,1
59.00,78.47,1
37.00,77.17,1
90.00,75.46,1
45.00,73.84,1
43.00,72.01,1
40.00,69.64,1
72.00,67.14,1
39.00,64.87,1
69.00,62.81,1
125.00,61.67,1
104.00,62.28,1
47.00,63.82,1
48.00,64.90,1
37.00,65.07,1
94.00,64.83,1
58.00,64.84,1
122.00,65.46,1
72.00,66.86,1
91.00,68.66,1
93.00,70.64,1
126.00,73.14,1
40.00,75.81,1
39.00,77.34,1
34.00,77.19,1
86.00,76.12,1
49.00,74.89,1
49.00,73.41,1
138.00,72.21,1
61.00,72.11,1
67.00,72.35,1
103.00,72.60,1
67.00,73.20,1
67.00,73.76,1
197.00,75.02,1
45.00,77.70,1
130.00,80.61,1
54.00,83.13,1
81.00,84.93,1
143.00,86.46,1
126.00,88.85,1
126.00,92.02,1
67.00,95.07,1
59.00,96.88,1
133.00,97.67,1
125.00,98.76,1
36.00,99.78,1
33.00,99.16,1
92.00,97.02,1
86.00,94.68,1
48.00,92.36,1
117.00,90.01,1
160.00,88.91,1
118.00,89.73,1
38.00,90.98,1
41.00,90.84,1
127.00,89.77,1
74.00,89.04,1
36.00,88.11,1
51.00,86.11,1
46.00,83.27,1
55.00,79.97,1
44.00,76.48,1
61.00,72.99,1
144.00,70.48,1
61.00,69.65,1
40.00,69.26,1
56.00,68.29,1
44.00,66.91,1
37.00,65.15,1
44.00,62.99,1
77.00,60.93,1
111.00,59.91,1
88.00,60.36,1
78.00,61.75,1
47.00,63.17,1
68.00,64.13,1
48.00,64.65,1
74.00,64.88,1
74.00,65.13,1
37.00,65.32,1
38.00,64.82,1
42.00,63.57,1
37.00,61.83,1
54.00,59.87,1
83.00,58.28,1
42.00,57.32,1
146.00,57.28,1
135.00,59.26,1
39.00,62.58,1
65.00,65.33,1
79.00,67.31,1
40.00,68.76,1
58.00,69.39,1
199.00,70.51,1
106.00,73.72,1
48.00,77.52,1
50.00,79.93,1
98.00,81.14,1
104.00,82.27,1
38.00,83.25,1
66.00,83.27,1
59.00,82.44,1
63.00,81.12,1
63.00,79.48,1
40.00,77.49,1
38.00,74.91,1
79.00,72.08,1
36.00,69.46,1
118.00,67.39,1
60.00,66.35,1
143.00,66.52,1
115.00,68.27,1
148.00,71.67,1
69.00,75.87,1
78.00,79.56,1
67.00,82.14,1
72.00,83.73,1
85.00,84.61,1
50.00,84.89,1
113.00,84.76,1
40.00,84.47,1
60.00,83.55,1
49.00,81.79,1
64.00,79.58,1
75.00,77.35,1
46.00,75.25,1
262.00,74.71,1
106.00,77.40,1
91.00,81.58,1
42.00,84.78,1
104.00,86.71,1
50.00,87.78,1
78.00,88.02,1
38.00,87.30,1
55.00,85.57,1
182.00,84.16,1
69.00,84.36,1
57.00,84.84,1
36.00,84.20,1
54.00,82.44,1
66.00,80.11,1
90.00,77.97,1
48.00,76.19,1
67.00,74.41,1
125.00,73.14,1
59.00,72.87,1
91.00,73.02,1
210.00,74.46,1
75.00,77.94,1
150.00,82.25,1
56.00,86.37,1
64.00,89.34,1
92.00,90.92,1
88.00,91.88,1
42.00,92.14,1
52.00,91.13,1
36.00,88.86,1
62.00,85.74,1
85.00,82.56,1
43.00,79.68,1
102.00,77.12,1
85.00,75.37,1
35.00,74.09,1
65.00,72.49,1
73.00,70.84,1
90.00,69.73,1
37.00,68.98,1
43.00,67.84,1
56.00,66.20,1
40.00,64.38,1
40.00,62.32,1
76.00,60.31,1
74.00,59.00,1
162.00,59.25,1
89.00,61.49,1
41.00,64.32,1
62.00,66.27,1
86.00,67.63,1
114.00,69.31,1
59.00,71.39,1
55.00,72.98,1
102.00,74.01,1
65.00,75.03,1
138.00,76.38,1
39.00,78.03,1
79.00,79.13,1
93.00,79.75,1
63.00,80.30,1
39.00,80.18,1
127.00,79.66,1
82.00,79.73,1
150.00,80.79,1
68.00,82.66,1
49.00,84.11,1
47.00,84.16,1
92.00,83.36,1
82.00,82.59,1
59.00,81.87,1
151.00,81.52,1
44.00,81.92,1
152.00,82.74,1
60.00,84.01,1
58.00,84.92,1
88.00,84.99,1
83.00,84.85,1
118.00,85.01,1
64.00,85.49,1
43.00,85.41,1
37.00,84.07,1
76.00,81.87,1
65.00,79.60,1
102.00,77.78,1
210.00,77.80,1
47.00,79.95,1
49.00,81.87,1
60.00,82.31,1
36.00,81.61,1
55.00,79.92,1
60.00,77.69,1
91.00,75.63,1
40.00,73.90,1
137.00,72.68,1
79.00,72.61,1
60.00,73.10,1
36.00,72.99,1
76.00,72.21,1
181.00,72.29,1
36.00,73.89,1
49.00,75.16,1
142.00,75.92,1
61.00,77.26,1
100.00,78.73,1
63.00,79.92,1
124.00,81.08,1
56.00,82.31,1
58.00,82.96,1
138.00,83.27,1
162.00,84.86,1
145.00,88.28,1
118.00,92.68,1
75.00,96.73,1
61.00,99.33,1
35.00,99.94,1
77.00,98.80,1
88.00,96.96,1
59.00,94.93,1
144.00,93.15,1
169.00,92.97,1
38.00,94.06,1
150.00,95.05,1
118.00,96.43,1
123.00,98.50,1
46.00,100.21,1
141.00,101.14,1
63.00,101.72,1
75.00,101.63,1
122.00,100.96,1
41.00,100.08,1
143.00,98.97,1
88.00,98.29,1
141.00,98.33,1
141.00,99.33,1
60.00,100.80,1
130.00,101.82,1
182.00,103.38,1
102.00,106.08,1
47.00,108.21,1
207.00,109.58,1
50.00,111.23,1
117.00,112.31,1
114.00,112.70,1
112.00,113.05,1
36.00,112.67,1
43.00,110.52,1
42.00,106.54,1
80.00,101.69,1
49.00,96.72,1
47.00,91.58,1
127.00,86.88,1
68.00,83.49,1
81.00,81.00,1
140.00,79.50,1
39.00,79.04,1
98.00,78.69,1
90.00,78.51,1
40.00,78.40,1
58.00,77.61,1
95.00,76.51,1
111.00,76.12,1
78.00,76.57,1
179.00,78.08,1
210.00,81.98,1
40.00,87.52,1
87.00,91.95,1
58.00,94.52,1
71.00,95.61,1
70.00,95.50,1
44.00,94.35,1
77.00,92.30,1
83.00,90.00,1
38.00,87.60,1
63.00,84.72,1
56.00,81.54,1
60.00,78.37,1
100.00,75.65,1
61.00,73.73,1
44.00,72.04,1
66.00,70.14,1
98.00,68.65,1
157.00,68.73,1
102.00,70.77,1
56.00,73.43,1
73.00,75.39,1
42.00,76.41,1
131.00,77.03,1
85.00,78.19,1
59.00,79.46,1
43.00,79.82,1
76.00,79.28,1
44.00,78.22,1
38.00,76.49,1
127.00,74.68,1
37.00,73.56,1
60.00,72.44,1
67.00,71.03,1
63.00,69.73,1
62.00,68.55,1
120.00,67.93,1
173.00,69.14,1
138.00,72.77,1
64.00,77.40,1
82.00,81.23,1
61.00,83.85,1
43.00,85.09,1
73.00,85.04,1
36.00,84.05,1
50.00,82.12,1
44.00,79.42,1
72.00,76.48,1
127.00,74.32,1
62.00,73.43,1
149.00,73.63,1
90.00,75.07,1
53.00,76.85,1
125.00,78.31,1
38.00,79.66,1
42.00,80.03,1
111.00,79.60,1
70.00,79.40,1
65.00,79.23,1
37.00,78.44,1
124.00,77.42,1
44.00,76.81,1
67.00,76.11,1
60.00,75.03,1
53.00,73.71,1
36.00,71.94,1
171.00,70.65,1
123.00,71.50,1
38.00,73.55,1
37.00,74.63,1
106.00,74.78,1
143.00,75.67,1
58.00,77.57,1
33.00,78.86,1
67.00,78.79,1
75.00,78.12,1
77.00,77.46,1
36.00,76.59,1
66.00,75.16,1
146.00,74.19,1
76.00,74.60,1
65.00,75.45,1
170.00,76.71,1
65.00,79.04,1
63.00,81.20,1
158.00,83.03,1
46.00,85.20,1
67.00,86.65,1
67.00,86.93,1
78.00,86.56,1
105.00,86.13,1
37.00,85.64,1
71.00,84.50,1
68.00,82.87,1
86.00,81.32,1
124.00,80.46,1
37.00,80.22,1
137.00,80.16,1
220.00,81.85,1
104.00,86.10,1
84.00,90.72,1
42.00,93.82,1
103.00,95.31,1
46.00,95.71,1
89.00,95.20,1
39.00,93.83,1
73.00,91.67,1
76.00,89.15,1
161.00,87.48,1
59.00,87.10,1
127.00,87.30,1
66.00,87.69,1
54.00,87.68,1
183.00,87.72,1
74.00,88.94,1
136.00,90.78,1
66.00,92.59,1
74.00,93.73,1
50.00,93.68,1
45.00,92.35,1
93.00,90.21,1
49.00,87.92,1
96.00,85.64,1
42.00,83.41,1
58.00,80.92,1
111.00,78.58,1
58.00,77.00,1
40.00,75.45,1
88.00,73.65,1
164.00,72.98,1
206.00,75.20,1
103.00,80.02,1
75.00,85.07,1
117.00,89.15,1
52.00,92.28,1
152.00,94.69,1
60.00,96.83,1
80.00,98.16,1
34.00,98.01,1
58.00,96.34,1
75.00,93.76,1
212.00,92.17,1
51.00,92.47,1
90.00,92.98,1
76.00,92.82,1
60.00,92.13,1
71.00,90.77,1
49.00,88.80,1
72.00,86.35,1
37.00,83.53,1
52.00,80.26,1
93.00,77.06,1
91.00,74.79,1
53.00,73.32,1
46.00,71.78,1
134.00,70.54,1
51.00,70.29,1
37.00,70.03,1
49.00,68.95,1
61.00,67.47,1
66.00,66.08,1
140.00,65.58,1
102.00,66.74,1
57.00,68.75,1
136.00,70.91,1
69.00,73.49,1
83.00,75.98,1
55.00,77.74,1
127.00,79.16,1
56.00,80.64,1
78.00,81.72,1
77.00,82.22,1
50.00,82.21,1
80.00,81.61,1
93.00,80.96,1
59.00,80.47,1
39.00,79.50,1
80.00,77.92,1
119.00,76.77,1
36.00,76.29,1
37.00,75.28,1
46.00,73.31,1
43.00,70.81,1
88.00,68.38,1
47.00,66.47,1
52.00,64.76,1
71.00,63.15,1
153.00,62.71,1
62.00,63.94,1
97.00,65.86,1
47.00,67.64,1
78.00,68.99,1
80.00,70.07,1
53.00,70.98,1
97.00,71.66,1
72.00,72.45,1
50.00,73.06,1
53.00,72.96,1
53.00,72.19,1
43.00,70.89,1
36.00,69.01,1
39.00,66.56,1
36.00,63.73,1
76.00,61.01,1
46.00,58.87,1
90.00,57.43,1
66.00,56.85,1
127.00,57.42,1
92.00,59.38,1
86.00,62.18,1
108.00,65.33,1
100.00,68.89,1
99.00,72.69,1
71.00,76.22,1
113.00,79.31,1
84.00,82.19,1
97.00,84.79,1
96.00,87.05,1
37.00,88.58,1
39.00,88.53,1
103.00,87.37,1
58.00,86.10,1
68.00,84.65,1
63.00,82.88,1
118.00,81.37,1
52.00,80.44,1
53.00,79.34,1
72.00,77.79,1
40.00,75.99,1
46.00,73.74,1
103.00,71.55,1
36.00,69.90,1
82.00,68.46,1
66.00,67.30,1
56.00,66.43,1
46.00,65.42,1
131.00,64.79,1
65.00,65.26,1
60.00,66.11,1
62.00,66.61,1
43.00,66.67,1
94.00,66.50,1
47.00,66.48,1
83.00,66.51,1
44.00,66.45,1
133.00,66.72,1
40.00,67.62,1
81.00,68.50,1
90.00,69.32,1
86.00,70.52,1
91.00,72.03,1
53.00,73.45,1
100.00,74.55,1
75.00,75.64,1
102.00,76.87,1
47.00,77.96,1
66.00,78.38,1
35.00,77.87,1
73.00,76.64,1
60.00,75.16,1
48.00,73.54,1
91.00,71.92,1
59.00,70.70,1
109.00,70.07,1
55.00,70.02,1
82.00,70.15,1
127.00,70.80,1
47.00,72.13,1
80.00,73.23,1
60.00,73.85,1
68.00,74.10,1
53.00,73.89,1
76.00,73.35,1
52.00,72.64,1
122.00,72.20,1
60.00,72.42,1
38.00,72.51,1
68.00,71.86,1
245.00,72.48,1
67.00,75.73,1
121.00,79.83,1
58.00,83.34,1
48.00,85.60,1
93.00,86.54,1
50.00,86.73,1
107.00,86.48,1
82.00,86.29,1
74.00,86.15,1
135.00,86.21,1
49.00,86.66,1
57.00,86.53,1
101.00,85.74,1
44.00,84.81,1
107.00,83.75,1
68.00,82.87,1
38.00,81.78,1
60.00,79.93,1
51.00,77.61,1
49.00,75.03,1
142.00,72.99,1
38.00,72.09,1
173.00,72.27,1
70.00,73.76,1
95.00,75.83,1
187.00,78.62,1
138.00,83.14,1
57.00,88.14,1
72.00,91.69,1
130.00,94.10,1
118.00,96.53,1
69.00,98.79,1
46.00,99.73,1
125.00,99.51,1
66.00,99.03,1
124.00,98.55,1
54.00,97.96,1
70.00,96.77,1
70.00,94.85,1
55.00,92.44,1
115.00,89.98,1
55.00,87.95,1
59.00,85.85,1
51.00,83.26,1
81.00,80.54,1
82.00,78.24,1
88.00,76.68,1
91.00,75.84,1
85.00,75.63,1
98.00,75.96,1
66.00,76.56,1
88.00,77.12,1
60.00,77.49,1
36.00,77.21,1
50.00,75.95,1
56.00,74.06,1
37.00,71.81,1
45.00,69.18,1
48.00,66.32,1
45.00,63.50,1
84.00,61.09,1
36.00,59.30,1
108.00,58.17,1
91.00,58.22,1
240.00,60.76,1
38.00,65.72,1
43.00,70.28,1
71.00,73.01,1
66.00,74.74,1
90.00,76.01,1
65.00,77.04,1
65.00,77.62,1
38.00,77.42,1
82.00,76.54,1
174.00,76.45,1
50.00,77.82,1
65.00,79.09,1
105.00,79.79,1
63.00,80.48,1
76.00,80.88,1
49.00,80.68,1
53.00,79.74,1
118.00,78.64,1
58.00,78.08,1
37.00,77.31,1
62.00,75.77,1
42.00,73.77,1
39.00,71.34,1
44.00,68.48,1
71.00,65.68,1
96.00,63.72,1
35.00,62.59,1
122.00,62.04,1
60.00,62.38,1
41.00,62.92,1
40.00,62.75,1
47.00,61.93,1
90.00,61.11,1
119.00,61.32,1
45.00,62.56,1
122.00,64.17,1
67.00,66.22,1
168.00,69.10,1
137.00,73.47,1
93.00,78.79,1
42.00,83.24,1
44.00,85.69,1
102.00,86.63,1
57.00,87.00,1
82.00,86.87,1
73.00,86.33,1
42.00,85.28,1
81.00,83.63,1
74.00,81.91,1
50.00,80.20,1
93.00,78.45,1
41.00,76.82,1
82.00,75.16,1
117.00,74.09,1
74.00,74.04,1
37.00,74.06,1
96.00,73.64,1
92.00,73.54,1
36.00,73.65,1
40.00,72.98,1
181.00,72.51,1
60.00,73.58,1
48.00,74.85,1
106.00,75.49,1
122.00,76.64,1
74.00,78.49,1
54.00,79.98,1
85.00,80.66,1
138.00,81.51,1
113.00,83.39,1
42.00,85.42,1
52.00,86.19,1
81.00,85.81,1
55.00,84.90,1
47.00,83.36,1
136.00,81.80,1
44.00,80.90,1
42.00,79.75,1
43.00,77.64,1
91.00,75.27,1
121.00,73.85,1
52.00,73.51,1
63.00,73.20,1
104.00,72.88,1
66.00,73.01,1
78.00,73.30,1
63.00,73.45,1
97.00,73.62,1
50.00,73.86,1
127.00,74.27,1
98.00,75.47,1
68.00,77.12,1
127.00,78.80,1
120.00,81.14,1
61.00,83.77,1
103.00,85.84,1
89.00,87.53,1
65.00,88.77,1
90.00,89.33,1
42.00,89.16,1
50.00,87.93,1
68.00,85.81,1
86.00,83.62,1
42.00,81.51,1
82.00,79.30,1
56.00,77.16,1
67.00,75.14,1
51.00,73.11,1
56.00,71.01,1
39.00,68.74,1
48.00,66.24,1
64.00,63.79,1
123.00,62.29,1
52.00,62.08,1
161.00,63.09,1
96.00,65.66,1
86.00,69.08,1
48.00,72.01,1
102.00,74.20,1
130.00,76.57,1
50.00,79.25,1
42.00,80.91,1
58.00,81.10,1
135.00,80.97,1
68.00,81.47,1
153.00,82.67,1
39.00,84.28,1
48.00,85.01,1
37.00,84.18,1
65.00,82.30,1
34.00,79.81,1
37.00,76.68,1
85.00,73.37,1
86.00,70.85,1
56.00,69.19,1
56.00,67.74,1
37.00,66.08,1
77.00,64.35,1
78.00,63.13,1
48.00,62.44,1
146.00,62.51,1
92.00,64.06,1
57.00,66.34,1
96.00,68.37,1
134.00,70.83,1
94.00,74.15,1
54.00,77.33,1
79.00,79.51,1
102.00,81.14,1
51.00,82.46,1
127.00,83.47,1
69.00,84.57,1
52.00,85.23,1
73.00,84.95,1
109.00,84.46,1
70.00,84.29,1
52.00,83.85,1
38.00,82.50,1
75.00,80.42,1
38.00,78.06,1
61.00,75.42,1
59.00,72.74,1
80.00,70.44,1
116.00,69.12,1
38.00,68.74,1
60.00,68.26,1
76.00,67.57,1
91.00,67.32,1
77.00,67.68,1
214.00,69.51,1
56.00,73.24,1
98.00,77.16,1
118.00,80.65,1
42.00,83.75,1
67.00,85.55,1
94.00,86.31,1
41.00,86.48,1
97.00,86.01,1
44.00,85.11,1
45.00,83.51,1
64.00,81.16,1
44.00,78.47,1
68.00,75.65,1
144.00,73.69,1
134.00,73.84,1
56.00,75.37,1
100.00,76.90,1
122.00,78.66,1
51.00,80.66,1
74.00,81.97,1
71.00,82.48,1
45.00,82.29,1
49.00,81.16,1
62.00,79.30,1
44.00,77.05,1
53.00,74.47,1
83.00,71.97,1
94.00,70.28,1
148.00,70.14,1
37.00,71.27,1
52.00,72.04,1
77.00,72.04,1
105.00,72.23,1
69.00,72.94,1
100.00,73.90,1
121.00,75.42,1
87.00,77.64,1
90.00,79.94,1
119.00,82.24,1
51.00,84.41,1
71.00,85.67,1
95.00,86.17,1
59.00,86.34,1
38.00,85.69,1
117.00,84.43,1
74.00,83.55,1
186.00,83.85,1
217.00,86.83,1
321.00,94.03,1
68.00,104.05,1
117.00,112.97,1
100.00,119.33,1
46.00,123.21,1
144.00,124.84,1
69.00,125.27,1
143.00,124.97,1
47.00,123.91,1
52.00,121.41,1
37.00,117.04,1
301.00,113.38,1
137.00,113.32,1
151.00,115.55,1
75.00,117.68,1
46.00,118.25,1
55.00,116.58,1
196.00,114.35,1
56.00,113.04,1
126.00,111.90,1
57.00,110.33,1
79.00,108.12,1
120.00,105.64,1
67.00,103.44,1
39.00,100.77,1
154.00,97.88,1
34.00,95.61,1
74.00,93.16,1
43.00,90.07,1
48.00,86.47,1
110.00,82.92,1
46.00,80.09,1
157.00,78.26,1
128.00,78.32,1
288.00,81.58,1
40.00,87.54,1
154.00,93.50,1
49.00,98.23,1
187.00,102.20,1
65.00,105.88,1
103.00,108.64,1
89.00,110.13,1
35.00,110.22,1
37.00,108.24,1
63.00,104.57,1
120.00,100.67,1
47.00,97.26,1
68.00,93.80,1
52.00,90.00,1
54.00,86.01,1
114.00,82.40,1
91.00,80.02,1
35.00,78.30,1
86.00,76.45,1
127.00,75.28,1
51.00,75.13,1
45.00,74.80,1
37.00,73.54,1
74.00,71.74,1
103.00,70.39,1
58.00,69.83,1
119.00,69.88,1
55.00,70.52,1
125.00,71.61,1
55.00,73.04,1
60.00,74.15,1
61.00,74.49,1
252.00,75.87,1
62.00,79.60,1
90.00,83.67,1
40.00,86.33,1
176.00,88.35,1
54.00,90.66,1
184.00,93.28,1
75.00,96.30,1
49.00,98.58,1
37.00,98.79,1
58.00,97.17,1
37.00,94.28,1
142.00,91.23,1
334.00,91.32,1
150.00,96.35,1
116.00,103.19,1
71.00,108.72,1
46.00,111.83,1
128.00,112.90,1
86.00,113.19,1
103.00,113.00,1
172.00,112.95,1
199.00,114.52,1
80.00,117.30,1
190.00,120.07,1
102.00,122.86,1
232.00,126.09,1
55.00,129.51,1
82.00,131.32,1
44.00,130.52,1
58.00,127.48,1
85.00,122.94,1
48.00,117.71,1
114.00,112.28,1
48.00,107.11,1
80.00,102.04,1
128.00,97.59,1
94.00,94.55,1
103.00,92.58,1
87.00,91.23,1
56.00,89.93,1
58.00,88.10,1
191.00,86.80,1
153.00,87.85,1
234.00,91.78,1
47.00,97.27,1
127.00,101.98,1
122.00,105.68,1
94.00,108.83,1
114.00,111.14,1
36.00,112.15,1
95.00,111.54,1
149.00,110.48,1
57.00,109.75,1
48.00,108.13,1
127.00,105.63,1
79.00,103.39,1
132.00,101.71,1
91.00,100.66,1
39.00,99.45,1
49.00,97.04,1
104.00,93.99,1
42.00,91.03,1
155.00,88.61,1
168.00,88.15,1
86.00,89.65,1
49.00,91.05,1
59.00,91.09,1
160.00,90.81,1
41.00,91.08,1
71.00,90.86,1
147.00,90.41,1
90.00,90.85,1
48.00,91.28,1
56.00,90.58,1
78.00,89.01,1
49.00,87.03,1
99.00,84.92,1
83.00,83.24,1
152.00,82.66,1
70.00,83.26,1
132.00,84.47,1
61.00,85.87,1
43.00,86.54,1
103.00,86.25,1
44.00,85.60,1
94.00,84.63,1
49.00,83.41,1
62.00,81.82,1
46.00,79.72,1
39.00,77.07,1
71.00,74.12,1
156.00,72.21,1
144.00,72.73,1
98.00,75.23,1
73.00,78.06,1
172.00,81.06,1
67.00,84.68,1
56.00,87.63,1
63.00,88.97,1
71.00,89.13,1
139.00,89.16,1
60.00,89.60,1
170.00,90.53,1
150.00,92.79,1
228.00,97.23,1
79.00,103.06,1
69.00,107.85,1
50.00,110.13,1
48.00,110.02,1
140.00,108.66,1
53.00,107.18,1
44.00,104.90,1
96.00,101.66,1
60.00,98.28,1
42.00,94.59,1
49.00,90.24,1
63.00,85.62,1
82.00,81.41,1
48.00,77.79,1
47.00,74.33,1
194.00,72.01,1
47.00,71.86,1
94.00,72.52,1
122.00,73.58,1
173.00,76.19,1
159.00,80.84,1
138.00,86.92,1
163.00,93.62,1
68.00,100.01,1
54.00,104.47,1
88.00,106.57,1
108.00,107.45,1
38.00,107.37,1
37.00,105.58,1
56.00,102.12,1
131.00,98.42,1
76.00,95.61,1
132.00,93.75,1
157.00,93.37,1
70.00,94.26,1
71.00,94.86,1
44.00,94.28,1
135.00,93.15,1
55.00,92.27,1
95.00,91.35,1
128.00,90.72,1
46.00,90.53,1
60.00,89.70,1
40.00,87.81,1
114.00,85.57,1
204.00,84.94,1
71.00,86.60,1
168.00,89.24,1
136.00,92.80,1
201.00,97.75,1
81.00,103.40,1
68.00,107.83,1
46.00,109.78,1
57.00,109.43,1
146.00,108.07,1
141.00,107.51,1
191.00,108.66,1
102.00,111.11,1
78.00,113.21,1
189.00,114.76,1
48.00,116.30,1
114.00,116.93,1
144.00,117.01,1
98.00,117.33,1
147.00,117.73,1
190.00,118.96,1
91.00,121.06,1
134.00,122.83,1
119.00,124.07,1
140.00,125.14,1
59.00,125.59,1
79.00,124.58,1
178.00,122.95,1
156.00,122.53,1
105.00,123.07,1
138.00,123.59,1
126.00,124.08,1
43.00,123.93,1
65.00,121.98,1
36.00,118.18,1
155.00,113.80,1
190.00,111.14,1
45.00,110.25,1
85.00,108.94,1
39.00,106.42,1
123.00,103.35,1
135.00,101.07,1
42.00,99.61,1
41.00,97.34,1
57.00,93.90,1
45.00,89.80,1
80.00,85.59,1
209.00,83.00,1
170.00,83.87,1
69.00,86.86,1
136.00,89.93,1
81.00,92.78,1
47.00,94.73,1
99.00,95.34,1
88.00,95.39,1
101.00,95.39,1
49.00,95.03,1
120.00,94.25,1
57.00,93.39,1
72.00,92.19,1
63.00,90.41,1
72.00,88.29,1
138.00,86.62,1
81.00,86.03,1
76.00,85.85,1
197.00,86.43,1
61.00,88.41,1
100.00,90.46,1
80.00,91.85,1
145.00,93.21,1
118.00,95.22,1
80.00,97.41,1
37.00,98.46,1
74.00,97.87,1
72.00,96.30,1
122.00,94.74,1
59.00,93.52,1
172.00,92.91,1
78.00,93.36,1
55.00,93.77,1
195.00,94.15,1
78.00,95.66,1
49.00,96.95,1
40.00,96.49,1
100.00,94.85,1
78.00,93.10,1
94.00,91.58,1
127.00,90.65,1
70.00,90.40,1
146.00,90.64,1
55.00,91.28,1
54.00,91.30,1
123.00,90.67,1
65.00,90.20,1
47.00,89.35,1
75.00,87.67,1
56.00,85.58,1
41.00,83.05,1
35.00,79.81,1
122.00,76.63,1
54.00,74.44,1
79.00,72.87,1
49.00,71.43,1
50.00,69.84,1
101.00,68.39,1
104.00,67.97,1
59.00,68.47,1
64.00,68.94,1
50.00,68.98,1
74.00,68.69,1
177.00,69.31,1
58.00,71.49,1
83.00,73.90,1
151.00,76.39,1
45.00,79.31,1
165.00,82.27,1
127.00,85.95,1
106.00,90.24,1
55.00,93.76,1
62.00,95.63,1
56.00,95.82,1
131.00,95.30,1
64.00,94.92,1
88.00,94.36,1
181.00,94.31,1
61.00,95.37,1
69.00,96.10,1
51.00,95.54,1
75.00,93.98,1
58.00,91.83,1
208.00,90.46,1
114.00,91.33,1
41.00,92.91,1
125.00,93.70,1
75.00,94.22,1
45.00,94.14,1
36.00,92.61,1
54.00,89.79,1
176.00,87.33,1
134.00,87.04,1
62.00,88.14,1
93.00,88.96,1
50.00,89.10,1
98.00,88.67,1
39.00,87.76,1
59.00,86.10,1
84.00,83.97,1
106.00,82.33,1
93.00,81.57,1
127.00,81.78,1
60.00,82.60,1
127.00,83.58,1
203.00,85.85,1
64.00,89.67,1
136.00,93.48,1
58.00,96.54,1
110.00,98.66,1
248.00,101.35,1
123.00,106.08,1
39.00,110.58,1
79.00,112.65,1
78.00,112.76,1
70.00,111.63,1
34.00,109.15,1
152.00,106.05,1
127.00,104.04,1
134.00,103.54,1
75.00,103.62,1
37.00,102.90,1
112.00,101.08,1
46.00,98.89,1
67.00,96.19,1
52.00,92.87,1
113.00,89.62,1
42.00,86.83,1
99.00,84.28,1
143.00,82.73,1
88.00,82.73,1
72.00,83.22,1
94.00,83.55,1
114.00,84.12,1
118.00,85.42,1
101.00,87.31,1
43.00,88.87,1
173.00,90.08,1
73.00,91.85,1
127.00,93.84,1
177.00,96.41,1
220.00,100.99,1
62.00,106.74,1
40.00,110.75,1
55.00,111.74,1
50.00,110.44,1
46.00,107.48,1
44.00,103.17,1
84.00,98.28,1
141.00,94.23,1
222.00,92.88,1
59.00,94.10,1
43.00,95.09,1
108.00,94.78,1
76.00,94.17,1
54.00,93.19,1
62.00,91.40,1
43.00,88.82,1
98.00,85.96,1
130.00,83.99,1
116.00,83.66,1
39.00,83.96,1
155.00,84.29,1
112.00,85.57,1
52.00,87.28,1
86.00,88.19,1
108.00,88.71,1
53.00,89.11,1
118.00,89.21,1
60.00,89.22,1
69.00,88.81,1
122.00,88.21,1
40.00,87.75,1
67.00,86.72,1
212.00,86.26,1
52.00,87.55,1
54.00,88.70,1
68.00,88.51,1
128.00,88.07,1
71.00,88.09,1
103.00,88.27,1
198.00,89.43,1
105.00,92.34,1
73.00,95.48,1
176.00,98.24,1
85.00,101.30,1
39.00,103.46,1
109.00,103.94,1
52.00,103.41,1
67.00,101.91,1
216.00,100.71,1
37.00,100.91,1
108.00,101.02,1
55.00,100.30,1
147.00,99.45,1
50.00,98.82,1
111.00,98.02,1
91.00,97.18,1
35.00,96.04,1
91.00,94.07,1
58.00,91.73,1
105.00,89.50,1
47.00,87.45,1
90.00,85.39,1
56.00,83.34,1
61.00,81.20,1
89.00,79.09,1
76.00,77.48,1
76.00,76.31,1
50.00,75.20,1
56.00,73.78,1
40.00,71.93,1
96.00,70.07,1
133.00,69.35,1
213.00,71.28,1
87.00,75.75,1
123.00,80.87,1
49.00,85.25,1
91.00,88.34,1
182.00,91.18,1
149.00,95.32,1
48.00,99.69,1
40.00,102.05,1
57.00,101.98,1
35.00,100.11,1
62.00,96.91,1
91.00,93.35,1
115.00,90.52,1
128.00,89.11,1
146.00,89.35,1
182.00,91.55,1
42.00,94.76,1
59.00,96.73,1
74.00,96.96,1
172.00,97.06,1
109.00,98.29,1
87.00,99.91,1
69.00,100.75,1
89.00,100.64,1
38.00,99.59,1
78.00,97.51,1
71.00,94.88,1
62.00,92.07,1
114.00,89.45,1
38.00,87.21,1
49.00,84.59,1
61.00,81.43,1
44.00,78.11,1
174.00,75.67,1
130.00,75.65,1
142.00,77.91,1
59.00,80.96,1
70.00,83.33,1
44.00,84.39,1
52.00,84.11,1
39.00,82.66,1
180.00,81.38,1
113.00,81.98,1
85.00,83.79,1
72.00,85.33,1
38.00,85.87,1
108.00,85.56,1
55.00,85.05,1
77.00,84.28,1
89.00,83.37,1
47.00,82.42,1
109.00,81.39,1
56.00,80.56,1
98.00,79.91,1
37.00,79.16,1
48.00,77.79,1
50.00,75.68,1
39.00,73.11,1
64.00,70.33,1
144.00,68.45,1
193.00,69.30,1
56.00,72.53,1
48.00,75.51,1
155.00,77.81,1
50.00,80.37,1
52.00,82.20,1
108.00,83.02,1
40.00,83.45,1
55.00,83.02,1
38.00,81.49,1
77.00,79.35,1
66.00,77.23,1
107.00,75.68,1
39.00,74.64,1
50.00,73.32,1
45.00,71.41,1
83.00,69.45,1
42.00,67.75,1
112.00,66.53,1
89.00,66.33,1
87.00,67.11,1
131.00,68.74,1
134.00,71.70,1
52.00,75.32,1
131.00,78.64,1
210.00,82.88,1
100.00,88.77,1
74.00,94.31,1
79.00,98.10,1
109.00,100.56,1
58.00,102.03,1
117.00,102.60,1
41.00,102.39,1
44.00,100.85,1
45.00,97.78,1
35.00,93.62,1
86.00,89.00,1
120.00,85.26,1
110.00,83.20,1
53.00,82.14,1
84.00,81.10,1
45.00,79.82,1
221.00,79.48,1
44.00,81.01,1
63.00,82.57,1
43.00,82.78,1
65.00,81.96,1
77.00,80.69,1
86.00,79.58,1
68.00,78.72,1
55.00,77.76,1
75.00,76.54,1
76.00,75.41,1
194.00,75.55,1
95.00,77.78,1
99.00,80.91,1
67.00,83.59,1
97.00,85.59,1
258.00,88.60,1
90.00,93.78,1
41.00,98.57,1
75.00,101.01,1
37.00,101.39,1
61.00,100.05,1
41.00,97.36,1
36.00,93.55,1
57.00,88.97,1
38.00,84.10,1
42.00,79.06,1
64.00,74.15,1
51.00,69.80,1
90.00,66.30,1
62.00,63.87,1
36.00,61.98,1
129.00,60.66,1
68.00,60.64,1
121.00,61.82,1
120.00,64.22,1
69.00,67.50,1
85.00,70.60,1
120.00,73.58,1
80.00,76.77,1
64.00,79.50,1
62.00,81.18,1
108.00,82.21,1
99.00,83.39,1
81.00,84.73,1
45.00,85.47,1
72.00,85.22,1
98.00,84.58,1
42.00,83.86,1
34.00,82.32,1
81.00,80.01,1
40.00,77.55,1
42.00,74.80,1
274.00,73.51,1
34.00,75.26,1
70.00,77.52,1
52.00,78.55,1
124.00,79.19,1
48.00,79.93,1
114.00,80.62,1
106.00,81.63,1
103.00,83.24,1
107.00,85.18,1
41.00,86.80,1
84.00,87.42,1
64.00,87.25,1
42.00,86.33,1
102.00,84.86,1
124.00,83.99,1
111.00,84.36,1
130.00,85.78,1
103.00,87.94,1
75.00,90.07,1
133.00,91.90,1
72.00,93.67,1
183.00,95.72,1
150.00,98.99,1
92.00,102.96,1
42.00,105.67,1
52.00,106.10,1
82.00,104.81,1
60.00,102.65,1
50.00,99.68,1
38.00,95.77,1
56.00,91.13,1
132.00,86.92,1
40.00,83.84,1
56.00,80.94,1
107.00,78.20,1
67.00,76.33,1
100.00,75.20,1
43.00,74.42,1
94.00,73.68,1
62.00,73.11,1
47.00,72.44,1
59.00,71.31,1
83.00,70.14,1
38.00,69.11,1
51.00,67.77,1
87.00,66.38,1
122.00,66.01,1
35.00,66.58,1
125.00,67.44,1
127.00,69.28,1
59.00,72.02,1
48.00,74.14,1
45.00,74.95,1
73.00,74.82,1
58.00,74.31,1
80.00,73.69,1
39.00,72.90,1
46.00,71.57,1
151.00,70.53,1
37.00,70.59,1
43.00,70.51,1
99.00,69.96,1
58.00,69.70,1
98.00,69.80,1
48.00,70.05,1
81.00,70.20,1
38.00,70.04,1
261.00,71.06,1
67.00,74.64,1
41.00,78.51,1
87.00,80.80,1
72.00,82.24,1
104.00,83.38,1
41.00,84.14,1
93.00,84.24,1
40.00,83.74,1
142.00,83.19,1
47.00,83.09,1
42.00,82.56,1
68.00,81.06,1
158.00,80.02,1
94.00,80.53,1
83.00,81.81,1
120.00,83.22,1
50.00,84.62,1
130.00,85.78,1
122.00,87.41,1
61.00,89.35,1
98.00,90.69,1
88.00,91.56,1
120.00,92.45,1
39.00,93.11,1
145.00,93.36,1
136.00,94.30,1
235.00,97.29,1
39.00,101.70,1
51.00,104.69,1
50.00,105.08,1
40.00,103.47,1
43.00,100.25,1
47.00,95.92,1
50.00,90.98,1
101.00,86.27,1
72.00,82.52,1
116.00,79.93,1
62.00,78.35,1
92.00,77.31,1
40.00,76.32,1
76.00,75.09,1
49.00,73.67,1
83.00,72.27,1
47.00,70.98,1
88.00,69.85,1
42.00,68.87,1
117.00,68.24,1
110.00,68.70,1
77.00,70.21,1
143.00,72.41,1
54.00,75.15,1
135.00,77.93,1
95.00,80.94,1
77.00,83.87,1
94.00,86.16,1
72.00,87.83,1
131.00,89.25,1
69.00,90.71,1
40.00,91.36,1
47.00,90.45,1
143.00,89.06,1
54.00,88.26,1
46.00,87.18,1
65.00,85.22,1
58.00,82.84,1
88.00,80.52,1
43.00,78.38,1
128.00,76.66,1
40.00,75.63,1
59.00,74.54,1
68.00,73.12,1
56.00,71.70,1
55.00,70.19,1
37.00,68.39,1
51.00,66.25,1
69.00,64.14,1
146.00,63.20,1
51.00,63.81,1
69.00,64.78,1
123.00,65.96,1
47.00,67.68,1
76.00,69.16,1
62.00,70.16,1
111.00,71.18,1
153.00,73.21,1
97.00,76.60,1
63.00,80.04,1
91.00,82.60,1
102.00,84.69,1
40.00,86.23,1
58.00,86.55,1
116.00,86.18,1
41.00,85.79,1
55.00,84.73,1
55.00,82.83,1
59.00,80.50,1
48.00,77.88,1
36.00,74.89,1
78.00,71.77,1
41.00,68.96,1
128.00,66.93,1
55.00,66.08,1
88.00,65.95,1
143.00,66.77,1
74.00,68.88,1
74.00,71.24,1
57.00,72.97,1
238.00,75.41,1
62.00,79.70,1
81.00,84.00,1
72.00,86.92,1
176.00,89.58,1
60.00,92.65,1
194.00,95.96,1
45.00,99.39,1
93.00,101.82,1
65.00,102.75,1
148.00,103.11,1
37.00,103.27,1
124.00,102.83,1
66.00,102.00,1
85.00,100.81,1
71.00,99.10,1
56.00,96.87,1
41.00,93.81,1
96.00,90.32,1
77.00,87.24,1
84.00,84.78,1
46.00,82.51,1
45.00,79.88,1
101.00,77.21,1
84.00,75.36,1
74.00,74.31,1
143.00,74.16,1
64.00,75.11,1
76.00,76.21,1
73.00,76.92,1
148.00,77.98,1
76.00,79.89,1
66.00,81.73,1
69.00,82.71,1
165.00,83.78,1
164.00,86.47,1
57.00,90.22,1
85.00,93.08,1
317.00,96.67,1
38.00,102.52,1
99.00,107.64,1
70.00,110.50,1
42.00,111.33,1
74.00,110.15,1
102.00,108.02,1
72.00,105.73,1
71.00,103.11,1
37.00,99.78,1
38.00,95.46,1
62.00,90.45,1
129.00,86.07,1
202.00,84.22,1
72.00,85.08,1
53.00,86.22,1
71.00,86.29,1
44.00,85.47,1
40.00,83.65,1
96.00,81.33,1
269.00,81.05,1
159.00,84.71,1
57.00,90.01,1
81.00,93.98,1
129.00,96.76,1
55.00,98.93,1
157.00,100.58,1
138.00,102.70,1
67.00,105.06,1
46.00,105.99,1
186.00,106.05,1
69.00,106.61,1
118.00,107.17,1
52.00,107.01,1
43.00,105.52,1
151.00,103.29,1
47.00,101.42,1
96.00,99.46,1
63.00,97.18,1
162.00,95.41,1
66.00,94.66,1
131.00,94.47,1
134.00,95.03,1
71.00,96.20,1
43.00,96.55,1
110.00,95.82,1
144.00,95.46,1
39.00,95.65,1
171.00,95.88,1
61.00,96.54,1
95.00,97.05,1
75.00,96.93,1
148.00,96.88,1
191.00,98.29,1
64.00,101.02,1
70.00,102.97,1
85.00,103.43,1
254.00,104.44,1
136.00,107.78,1
164.00,112.50,1
60.00,116.70,1
48.00,118.78,1
87.00,118.41,1
85.00,116.75,1
132.00,114.84,1
34.00,112.75,1
61.00,109.59,1
61.00,105.36,1
85.00,100.87,1
64.00,96.55,1
70.00,92.42,1
97.00,88.70,1
80.00,85.80,1
121.00,83.89,1
68.00,82.88,1
68.00,82.07,1
84.00,81.11,1
86.00,80.37,1
104.00,80.13,1
44.00,80.09,1
71.00,79.58,1
38.00,78.40,1
78.00,76.77,1
40.00,74.93,1
41.00,72.68,1
67.00,70.13,1
66.00,67.87,1
69.00,66.12,1
123.00,65.32,1
145.00,66.36,1
48.00,68.79,1
39.00,70.68,1
46.00,71.19,1
41.00,70.63,1
38.00,69.23,1
102.00,67.68,1
91.00,67.04,1
101.00,67.52,1
535.00,72.51,1
90.00,84.49,1
123.00,97.74,1
162.00,108.70,1
59.00,117.60,1
49.00,123.19,1
127.00,125.69,1
73.00,126.52,1
75.00,125.83,1
249.00,125.04,1
89.00,125.78,1
99.00,126.53,1
85.00,125.97,1
104.00,124.46,1
329.00,124.34,1
55.00,126.91,1
175.00,129.76,1
450.00,134.71,1
81.00,143.66,1
269.00,153.01,1
66.00,160.72,1
80.00,165.22,1
174.00,166.46,1
96.00,166.22,1
38.00,163.85,1
298.00,160.50,1
478.00,161.88,1
52.00,168.45,1
195.00,174.29,1
242.00,178.61,1
238.00,183.57,1
212.00,188.97,1
113.00,193.23,1
160.00,194.99,1
43.00,193.81,1
583.00,193.36,1
59.00,197.10,1
384.00,202.43,1
311.00,209.20,1
249.00,217.80,1
88.00,224.53,1
314.00,228.32,1
63.00,230.08,1
63.00,227.92,1
254.00,222.41,1
171.00,216.99,1
436.00,214.24,1
179.00,215.16,1
68.00,215.86,1
186.00,213.36,1
47.00,208.42,1
110.00,200.97,1
197.00,192.47,1
373.00,186.88,1
65.00,184.79,1
360.00,184.22,1
65.00,184.74,1
49.00,183.47,1
93.00,178.56,1
36.00,171.14,1
45.00,161.60,1
55.00,150.52,1
210.00,140.14,1
296.00,133.99,1
172.00,132.90,1
75.00,133.59,1
70.00,132.93,1
171.00,131.22,1
43.00,129.34,1
142.00,126.93,1
107.00,124.48,1
215.00,123.23,1
393.00,125.88,1
245.00,134.03,1
76.00,143.76,1
68.00,150.22,1
255.00,154.00,1
40.00,156.90,1
139.00,157.82,1
84.00,156.60,1
148.00,154.24,1
172.00,151.91,1
98.00,149.99,1
270.00,148.86,1
264.00,150.53,1
162.00,154.80,1
152.00,159.04,1
75.00,161.46,1
100.00,161.28,1
314.00,160.68,1
184.00,162.46,1
115.00,165.04,1
190.00,166.53,1
141.00,167.41,1
74.00,167.05,1
154.00,164.90,1
86.00,161.69,1
116.00,157.55,1
358.00,154.79,1
37.00,154.75,1
88.00,153.91,1
43.00,150.26,1
518.00,148.25,1
65.00,151.28,1
80.00,154.61,1
44.00,154.24,1
69.00,150.79,1
55.00,145.11,1
353.00,140.39,1
82.00,139.14,1
320.00,140.53,1
123.00,143.94,1
42.00,146.79,1
149.00,147.02,1
236.00,147.10,1
56.00,147.89,1
44.00,146.85,1
318.00,145.00,1
46.00,144.81,1
120.00,144.26,1
302.00,143.93,1
104.00,145.77,1
63.00,147.09,1
61.00,145.59,1
75.00,141.77,1
57.00,136.40,1
40.00,129.68,1
192.00,122.99,1
85.00,118.06,1
105.00,114.27,1
58.00,110.54,1
163.00,107.22,1
59.00,104.82,1
48.00,102.25,1
39.00,98.50,1
267.00,95.64,1
120.00,96.06,1
230.00,99.30,1
78.00,103.94,1
86.00,107.92,1
189.00,111.01,1
126.00,114.56,1
98.00,117.93,1
150.00,120.49,1
66.00,122.29,1
56.00,122.39,1
64.00,120.41,1
144.00,117.64,1
127.00,115.60,1
112.00,114.44,1
79.00,113.34,1
107.00,111.86,1
61.00,109.96,1
174.00,108.22,1
134.00,107.81,1
330.00,110.34,1
132.00,116.30,1
125.00,122.93,1
136.00,128.17,1
127.00,132.25,1
199.00,135.84,1
256.00,140.56,1
65.00,145.92,1
176.00,149.82,1
47.00,151.66,1
63.00,150.77,1
176.00,147.98,1
189.00,145.97,1
106.00,145.08,1
128.00,143.97,1
52.00,141.80,1
87.00,138.07,1
67.00,133.10,1
171.00,128.15,1
63.00,124.06,1
170.00,120.71,1
97.00,118.31,1
62.00,116.09,1
97.00,113.18,1
38.00,109.67,1
165.00,106.17,1
200.00,104.71,1
639.00,110.11,1
68.00,123.32,1
128.00,136.78,1
483.00,149.15,1
124.00,163.71,1
436.00,179.04,1
539.00,197.43,1
142.00,218.59,1
248.00,236.29,1
81.00,247.88,1
155.00,253.12,1
205.00,253.63,1
49.00,250.71,1
196.00,244.29,1
481.00,238.95,1
127.00,237.67,1
282.00,237.24,1
170.00,236.18,1
70.00,233.26,1
93.00,226.69,1
63.00,216.85,1
242.00,206.01,1
227.00,197.36,1
99.00,190.84,1
347.00,185.96,1
307.00,185.23,1
68.00,187.06,1
146.00,187.13,1
413.00,187.39,1
59.00,189.91,1
98.00,190.73,1
221.00,188.95,1
67.00,186.37,1
126.00,182.20,1
61.00,176.14,1
275.00,170.03,1
110.00,165.73,1
50.00,161.48,1
44.00,154.98,1
353.00,148.97,1
221.00,147.60,1
86.00,148.99,1
574.00,153.13,1
160.00,162.86,1
127.00,173.31,1
155.00,180.23,1
73.00,183.69,1
116.00,183.71,1
278.00,182.47,1
82.00,181.73,1
284.00,181.17,1
187.00,181.67,1
68.00,182.05,1
63.00,179.48,1
338.00,175.97,1
150.00,174.88,1
452.00,177.31,1
60.00,182.51,1
82.00,185.81,1
453.00,187.77,1
236.00,193.19,1
159.00,199.93,1
230.00,204.92,1
288.00,209.43,1
86.00,213.31,1
190.00,214.58,1
188.00,213.86,1
58.00,211.38,1
151.00,206.28,1
70.00,199.11,1
102.00,190.33,1
362.00,182.62,1
202.00,179.22,1
65.00,177.57,1
49.00,173.59,1
169.00,167.55,1
66.00,161.17,1
58.00,153.94,1
331.00,147.59,1
132.00,144.96,1
189.00,144.63,1
361.00,146.81,1
76.00,151.79,1
473.00,158.70,1
268.00,169.45,1
1023.00,188.81,1
308.00,218.87,1
380.00,251.26,1
74.00,277.01,1
115.00,292.67,1
411.00,300.84,1
90.00,305.58,1
38.00,304.26,1
46.00,294.93,1
123.00,280.10,1
333.00,264.73,1
655.00,256.24,1
634.00,260.13,1
152.00,271.63,1
311.00,281.71,1
474.00,290.37,1
137.00,298.89,1
238.00,303.64,1
234.00,304.22,1
92.00,301.16,1
132.00,293.39,1
179.00,282.23,1
236.00,270.40,1
394.00,261.12,1
288.00,256.25,1
63.00,252.62,1
163.00,246.27,1
269.00,238.72,1
125.00,231.91,1
272.00,225.61,1
282.00,221.22,1
119.00,218.48,1
263.00,215.64,1
156.00,212.97,1
44.00,209.01,1
55.00,201.52,1
478.00,194.39,1
425.00,194.41,1
299.00,201.44,1
198.00,210.24,1
79.00,216.37,1
97.00,217.61,1
36.00,213.88,1
70.00,205.96,1
279.00,196.87,1
170.00,190.06,1
273.00,185.98,1
937.00,190.41,1
85.00,206.00,1
76.00,220.82,1
210.00,228.42,1
208.00,232.47,1
692.00,238.78,1
290.00,251.28,1
453.00,266.72,1
89.00,280.27,1
190.00,288.08,1
247.00,290.43,1
206.00,289.94,1
109.00,286.32,1
145.00,278.79,1
62.00,267.56,1
56.00,252.90,1
88.00,235.55,1
398.00,219.80,1
84.00,208.56,1
296.00,200.24,1
195.00,194.50,1
117.00,190.34,1
383.00,187.61,1
76.00,187.26,1
76.00,185.86,1
429.00,184.08,1
325.00,187.07,1
109.00,192.96,1
221.00,197.37,1
220.00,200.56,1
81.00,202.48,1
107.00,201.27,1
88.00,196.84,1
49.00,189.70,1
124.00,180.52,1
151.00,171.28,1
91.00,162.87,1
104.00,154.69,1
79.00,146.48,1
65.00,138.11,1
144.00,130.09,1
150.00,123.85,1
51.00,119.11,1
38.00,113.96,1
40.00,107.65,1
144.00,101.46,1
74.00,96.72,1
43.00,92.70,1
105.00,88.76,1
65.00,85.46,1
92.00,82.84,1
56.00,80.62,1
193.00,79.55,1
143.00,80.95,1
285.00,85.68,1
149.00,93.58,1
442.00,104.96,1
129.00,119.84,1
55.00,133.43,1
139.00,142.45,1
165.00,148.70,1
40.00,152.73,1
63.00,153.29,1
61.00,150.51,1
86.00,145.64,1
174.00,140.48,1
149.00,136.73,1
138.00,134.41,1
142.00,132.90,1
260.00,132.98,1
48.00,134.55,1
98.00,135.04,1
41.00,133.29,1
85.00,129.72,1
100.00,125.29,1
127.00,121.19,1
210.00,118.74,1
202.00,119.13,1
127.00,121.61,1
71.00,123.82,1
114.00,124.57,1
75.00,124.11,1
59.00,122.30,1
48.00,118.84,1
125.00,114.60,1
100.00,110.88,1
57.00,107.54,1
45.00,103.58,1
51.00,98.80,1
338.00,95.92,1
44.00,96.95,1
55.00,98.50,1
169.00,99.08,1
156.00,100.79,1
200.00,104.39,1
324.00,110.96,1
162.00,120.68,1
106.00,130.30,1
66.00,136.92,1
144.00,140.57,1
91.00,142.37,1
97.00,142.53,1
53.00,140.71,1
154.00,137.62,1
117.00,134.67,1
110.00,132.09,1
140.00,129.71,1
47.00,127.22,1
52.00,123.47,1
112.00,118.70,1
66.00,113.98,1
76.00,109.27,1
148.00,105.10,1
127.00,102.59,1
232.00,102.53,1
374.00,107.09,1
80.00,115.77,1
197.00,124.57,1
75.00,131.67,1
112.00,136.51,1
236.00,140.09,1
48.00,143.41,1
146.00,145.13,1
260.00,146.60,1
246.00,150.40,1
231.00,156.46,1
43.00,162.09,1
95.00,164.41,1
396.00,165.93,1
116.00,169.88,1
168.00,173.84,1
107.00,175.70,1
106.00,175.31,1
240.00,173.85,1
162.00,173.19,1
83.00,172.30,1
92.00,169.37,1
39.00,164.03,1
66.00,156.51,1
245.00,149.05,1
52.00,143.50,1
77.00,138.05,1
136.00,132.16,1
149.00,127.44,1
127.00,124.27,1
165.00,122.46,1
121.00,121.81,1
175.00,122.10,1
179.00,123.68,1
62.00,125.71,1
235.00,127.54,1
200.00,130.77,1
156.00,135.43,1
89.00,139.47,1
72.00,141.27,1
245.00,141.91,1
36.00,142.65,1
64.00,141.64,1
177.00,139.02,1
38.00,136.20,1
131.00,132.71,1
134.00,129.26,1
67.00,126.22,1
87.00,122.67,1
164.00,119.25,1
58.00,116.63,1
86.00,113.81,1
116.00,110.77,1
101.00,108.25,1
123.00,106.41,1
270.00,106.59,1
286.00,111.06,1
51.00,118.16,1
36.00,123.14,1
44.00,124.20,1
37.00,122.22,1
52.00,118.05,1
258.00,114.28,1
109.00,113.23,1
152.00,113.88,1
87.00,114.74,1
246.00,116.33,1
79.00,119.14,1
329.00,123.42,1
62.00,129.21,1
42.00,133.42,1
45.00,133.74,1
187.00,132.20,1
124.00,131.15,1
111.00,130.53,1
39.00,128.92,1
66.00,125.54,1
120.00,121.20,1
83.00,117.10,1
42.00,112.83,1
86.00,107.93,1
111.00,103.32,1
191.00,100.53,1
114.00,100.16,1
87.00,100.74,1
57.00,100.71,1
197.00,100.64,1
174.00,102.43,1
121.00,105.92,1
58.00,108.98,1
81.00,110.33,1
123.00,110.54,1
56.00,110.21,1
129.00,109.32,1
135.00,108.75,1
91.00,108.76,1
98.00,108.60,1
52.00,107.68,1
174.00,106.54,1
154.00,106.73,1
87.00,108.05,1
41.00,108.53,1
90.00,107.41,1
148.00,106.07,1
123.00,105.74,1
44.00,105.61,1
68.00,104.32,1
79.00,102.03,1
147.00,100.00,1
173.00,99.67,1
106.00,101.08,1
56.00,102.45,1
71.00,102.48,1
180.00,102.24,1
198.00,103.88,1
41.00,106.83,1
92.00,108.60,1
91.00,108.97,1
158.00,109.22,1
120.00,110.16,1
193.00,112.13,1
123.00,115.11,1
123.00,118.23,1
83.00,120.43,1
165.00,121.86,1
263.00,124.53,1
191.00,129.73,1
36.00,135.03,1
62.00,137.26,1
44.00,136.09,1
45.00,132.33,1
162.00,127.53,1
326.00,125.42,1
98.00,127.24,1
192.00,130.35,1
90.00,133.13,1
49.00,134.32,1
76.00,132.93,1
147.00,130.34,1
47.00,127.52,1
110.00,124.05,1
53.00,119.95,1
297.00,117.12,1
114.00,117.44,1
60.00,118.64,1
54.00,118.02,1
68.00,115.59,1
46.00,111.86,1
88.00,107.37,1
77.00,102.88,1
123.00,99.09,1
137.00,96.74,1
67.00,95.59,1
74.00,94.41,1
55.00,92.62,1
83.00,90.40,1
54.00,87.98,1
72.00,85.41,1
41.00,82.61,1
64.00,79.54,1
64.00,76.51,1
315.00,75.87,1
75.00,79.28,1
92.00,83.85,1
60.00,87.19,1
125.00,89.63,1
116.00,92.05,1
138.00,94.94,1
163.00,98.58,1
52.00,102.37,1
131.00,105.15,1
133.00,107.48,1
112.00,109.91,1
36.00,111.36,1
96.00,111.09,1
462.00,112.94,1
136.00,120.23,1
51.00,128.30,1
63.00,132.60,1
202.00,134.62,1
58.00,136.03,1
55.00,135.65,1
139.00,133.39,1
38.00,130.32,1
263.00,127.63,1
103.00,126.90,1
112.00,126.96,1
38.00,125.82,1
112.00,123.25,1
201.00,121.05,1
38.00,119.94,1
51.00,117.83,1
302.00,115.99,1
148.00,117.43,1
148.00,120.81,1
180.00,124.55,1
121.00,128.48,1
152.00,131.96,1
113.00,134.69,1
46.00,135.81,1
68.00,134.43,1
197.00,132.06,1
108.00,130.62,1
58.00,129.10,1
129.00,126.59,1
41.00,123.45,1
70.00,119.30,1
131.00,114.78,1
36.00,110.58,1
38.00,105.71,1
44.00,99.80,1
260.00,95.21,1
48.00,93.62,1
46.00,92.65,1
188.00,91.55,1
147.00,92.43,1
82.00,94.71,1
52.00,96.31,1
138.00,97.01,1
88.00,97.77,1
77.00,98.35,1
275.00,99.82,1
94.00,103.63,1
42.00,107.28,1
140.00,109.12,1
80.00,110.22,1
50.00,110.31,1
95.00,108.99,1
86.00,107.08,1
42.00,104.63,1
54.00,101.15,1
40.00,96.72,1
44.00,91.62,1
64.00,86.30,1
38.00,81.13,1
108.00,76.56,1
51.00,73.09,1
96.00,70.57,1
51.00,68.75,1
207.00,68.45,1
74.00,70.45,1
115.00,73.53,1
178.00,77.43,1
245.00,83.80,1
127.00,92.48,1
188.00,101.71,1
80.00,110.18,1
88.00,116.58,1
52.00,120.12,1
71.00,120.99,1
72.00,119.85,1
80.00,117.45,1
113.00,114.61,1
141.00,112.35,1
77.00,110.82,1
38.00,108.75,1
85.00,105.53,1
74.00,101.91,1
102.00,98.56,1
44.00,95.42,1
55.00,91.90,1
115.00,88.41,1
54.00,85.64,1
76.00,83.18,1
60.00,80.76,1
92.00,78.63,1
46.00,76.81,1
147.00,75.62,1
90.00,75.77,1
116.00,77.05,1
41.00,78.48,1
73.00,79.20,1
152.00,79.94,1
73.00,81.58,1
179.00,84.07,1
146.00,87.98,1
39.00,92.27,1
59.00,94.82,1
164.00,96.26,1
48.00,97.78,1
46.00,98.22,1
79.00,97.09,1
180.00,96.20,1
69.00,96.54,1
45.00,96.61,1
61.00,95.28,1
92.00,93.26,1
80.00,91.32,1
90.00,89.65,1
131.00,88.66,1
64.00,88.41,1
54.00,87.88,1
81.00,86.66,1
144.00,85.85,1
79.00,86.11,1
40.00,86.29,1
151.00,86.13,1
38.00,86.31,1
74.00,86.07,1
70.00,85.16,1
85.00,84.13,1
117.00,83.51,1
74.00,83.53,1
97.00,83.77,1
151.00,84.65,1
58.00,86.31,1
82.00,87.60,1
45.00,87.88,1
72.00,87.21,1
74.00,85.99,1
71.00,84.63,1
180.00,84.06,1
126.00,85.46,1
42.00,87.61,1
138.00,89.23,1
268.00,92.35,1
64.00,97.76,1
112.00,102.85,1
39.00,106.02,1
127.00,107.54,1
62.00,108.06,1
124.00,107.99,1
137.00,108.05,1
56.00,108.28,1
128.00,108.00,1
83.00,107.47,1
107.00,106.83,1
61.00,105.78,1
90.00,104.11,1
186.00,102.93,1
44.00,102.83,1
102.00,102.46,1
84.00,101.54,1
84.00,100.40,1
255.00,100.42,1
125.00,103.06,1
46.00,106.21,1
37.00,107.17,1
61.00,105.87,1
61.00,103.21,1
53.00,99.70,1
56.00,95.58,1
70.00,91.22,1
36.00,86.80,1
145.00,82.94,1
62.00,80.47,1
99.00,78.99,1
60.00,77.90,1
142.00,77.47,1
150.00,78.69,1
152.00,81.92,1
71.00,86.01,1
129.00,89.78,1
107.00,93.27,1
81.00,96.35,1
154.00,99.00,1
106.00,101.84,1
56.00,104.12,1
97.00,105.00,1
48.00,104.65,1
143.00,103.70,1
40.00,102.64,1
40.00,100.61,1
90.00,97.47,1
74.00,94.29,1
180.00,92.21,1
67.00,91.72,1
122.00,91.93,1
34.00,91.90,1
46.00,90.77,1
42.00,88.29,1
42.00,84.90,1
72.00,81.15,1
102.00,77.99,1
81.00,75.97,1
64.00,74.64,1
40.00,73.21,1
132.00,71.99,1
36.00,71.50,1
95.00,71.24,1
44.00,70.91,1
97.00,70.63,1
102.00,70.90,1
89.00,71.99,1
46.00,73.14,1
81.00,73.75,1
65.00,74.04,1
74.00,74.17,1
62.00,74.08,1
58.00,73.68,1
118.00,73.39,1
62.00,73.68,1
74.00,74.08,1
94.00,74.45,1
139.00,75.57,1
41.00,77.35,1
86.00,78.67,1
38.00,79.16,1
102.00,79.08,1
47.00,78.80,1
66.00,78.15,1
48.00,76.93,1
87.00,75.53,1
105.00,74.66,1
99.00,74.83,1
48.00,75.38,1
322.00,77.60,1
38.00,82.76,1
81.00,87.91,1
101.00,91.41,1
181.00,94.88,1
52.00,98.64,1
118.00,101.57,1
103.00,103.67,1
196.00,106.15,1
305.00,111.13,1
76.00,118.54,1
98.00,124.83,1
58.00,128.21,1
43.00,128.68,1
61.00,126.47,1
136.00,123.09,1
84.00,119.89,1
231.00,117.93,1
240.00,119.06,1
179.00,123.36,1
57.00,127.97,1
238.00,131.62,1
70.00,135.03,1
43.00,136.64,1
84.00,135.31,1
62.00,132.08,1
315.00,129.58,1
448.00,132.82,1
69.00,141.49,1
48.00,148.64,1
201.00,152.17,1
79.00,154.18,1
44.00,153.93,1
120.00,151.01,1
138.00,147.27,1
67.00,143.39,1
36.00,138.25,1
106.00,131.75,1
100.00,125.34,1
77.00,119.48,1
68.00,113.73,1
63.00,107.87,1
46.00,101.84,1
63.00,95.68,1
47.00,89.65,1
35.00,83.68,1
68.00,77.91,1
35.00,72.64,1
36.00,67.68,1
60.00,63.05,1
40.00,59.07,1
92.00,56.01,1
60.00,54.19,1
82.00,53.45,1
59.00,53.46,1
64.00,53.88,1
91.00,54.72,1
90.00,56.32,1
85.00,58.63,1
90.00,61.34,1
69.00,64.13,1
81.00,66.68,1
91.00,69.08,1
60.00,71.29,1
119.00,73.34,1
72.00,75.54,1
65.00,77.42,1
62.00,78.47,1
324.00,80.91,1
55.00,86.44,1
107.00,92.26,1
382.00,99.01,1
101.00,108.98,1
42.00,118.13,1
69.00,123.28,1
50.00,124.99,1
46.00,123.93,1
167.00,121.57,1
182.00,120.41,1
127.00,120.99,1
44.00,121.40,1
61.00,119.98,1
59.00,116.78,1
55.00,112.42,1
148.00,108.01,1
80.00,104.65,1
171.00,102.61,1
224.00,102.99,1
52.00,105.44,1
74.00,107.13,1
142.00,107.70,1
65.00,108.06,1
47.00,107.40,1
83.00,105.34,1
340.00,104.87,1
37.00,107.65,1
246.00,111.65,1
83.00,116.05,1
39.00,119.28,1
72.00,119.72,1
179.00,119.09,1
92.00,118.98,1
66.00,118.51,1
151.00,117.34,1
56.00,116.08,1
71.00,114.03,1
155.00,111.62,1
36.00,109.54,1
153.00,107.49,1
76.00,105.83,1
129.00,104.65,1
148.00,104.29,1
64.00,104.60,1
98.00,104.48,1
60.00,103.57,1
75.00,101.85,1
136.00,100.04,1
104.00,99.09,1
229.00,99.85,1
103.00,102.65,1
104.00,105.84,1
66.00,107.87,1
129.00,108.86,1
54.00,109.13,1
87.00,108.40,1
48.00,106.53,1
155.00,104.37,1
112.00,103.18,1
51.00,102.42,1
50.00,100.63,1
53.00,97.62,1
37.00,93.68,1
158.00,89.95,1
39.00,87.39,1
71.00,85.09,1
145.00,83.23,1
37.00,82.36,1
98.00,81.59,1
198.00,81.88,1
127.00,84.56,1
45.00,87.92,1
43.00,89.70,1
142.00,90.34,1
178.00,92.01,1
99.00,95.17,1
112.00,98.48,1
181.00,101.90,1
110.00,105.96,1
108.00,109.76,1
82.00,112.38,1
62.00,113.42,1
67.00,112.70,1
150.00,111.28,1
54.00,110.00,1
50.00,107.92,1
56.00,104.50,1
41.00,100.12,1
59.00,95.09,1
55.00,89.89,1
44.00,84.72,1
37.00,79.47,1
164.00,75.18,1
173.00,73.91,1
72.00,75.36,1
60.00,77.08,1
59.00,77.91,1
66.00,77.98,1
47.00,77.41,1
96.00,76.54,1
60.00,75.81,1
89.00,75.28,1
83.00,75.03,1
96.00,75.27,1
55.00,75.70,1
71.00,75.81,1
50.00,75.43,1
127.00,75.11,1
76.00,75.52,1
59.00,76.13,1
35.00,75.96,1
86.00,75.09,1
42.00,74.01,1
47.00,72.53,1
38.00,70.45,1
127.00,68.60,1
70.00,67.93,1
66.00,67.92,1
54.00,67.79,1
150.00,68.13,1
62.00,69.59,1
141.00,71.83,1
64.00,74.53,1
59.00,76.83,1
56.00,78.00,1
79.00,78.38,1
38.00,78.15,1
229.00,78.56,1
59.00,80.87,1
104.00,83.70,1
160.00,86.60,1
124.00,90.47,1
107.00,94.68,1
105.00,98.41,1
79.00,101.26,1
165.00,103.62,1
39.00,105.68,1
259.00,107.91,1
126.00,111.69,1
186.00,116.64,1
54.00,121.11,1
92.00,123.69,1
37.00,123.81,1
132.00,122.26,1
296.00,121.97,1
580.00,128.50,1
150.00,142.56,1
97.00,156.60,1
51.00,165.36,1
49.00,168.56,1
117.00,167.60,1
171.00,165.09,1
184.00,163.04,1
43.00,160.90,1
154.00,157.47,1
37.00,152.87,1
129.00,147.24,1
129.00,141.60,1
165.00,137.20,1
45.00,133.49,1
59.00,128.86,1
153.00,123.69,1
193.00,120.30,1
167.00,119.59,1
221.00,121.29,1
47.00,124.01,1
166.00,125.95,1
118.00,127.37,1
38.00,127.88,1
51.00,126.03,1
154.00,122.87,1
92.00,120.14,1
347.00,119.76,1
131.00,123.10,1
54.00,127.05,1
74.00,128.42,1
92.00,127.64,1
44.00,125.32,1
42.00,121.22,1
128.00,116.21,1
248.00,113.07,1
118.00,113.06,1
78.00,113.97,1
261.00,115.32,1
153.00,118.78,1
262.00,124.34,1
54.00,130.50,1
272.00,136.18,1
43.00,141.29,1
105.00,144.32,1
56.00,144.41,1
274.00,143.74,1
139.00,144.63,1
157.00,146.39,1
58.00,147.10,1
268.00,147.25,1
74.00,148.02,1
419.00,150.65,1
38.00,155.53,1
109.00,159.09,1
121.00,159.59,1
48.00,158.00,1
52.00,153.77,1
60.00,147.17,1
67.00,139.25,1
40.00,130.55,1
131.00,121.91,1
68.00,114.37,1
63.00,107.58,1
107.00,101.36,1
80.00,96.23,1
92.00,92.12,1
47.00,88.52,1
111.00,85.31,1
121.00,83.28,1
50.00,82.32,1
100.00,81.53,1
148.00,81.52,1
171.00,83.51,1
46.00,86.70,1
128.00,89.48,1
79.00,91.79,1
85.00,93.57,1
95.00,94.67,1
55.00,95.11,1
87.00,94.70,1
113.00,94.08,1
42.00,93.44,1
99.00,92.29,1
53.00,90.79,1
563.00,93.01,1
79.00,102.11,1
84.00,112.29,1
141.00,119.52,1
221.00,125.92,1
122.00,132.44,1
207.00,138.58,1
202.00,144.76,1
211.00,151.49,1
61.00,157.25,1
158.00,160.48,1
118.00,161.69,1
50.00,160.93,1
53.00,157.27,1
123.00,151.57,1
62.00,145.21,1
156.00,138.90,1
42.00,132.95,1
66.00,126.54,1
46.00,119.29,1
116.00,112.07,1
118.00,106.16,1
129.00,102.15,1
72.00,99.44,1
42.00,96.68,1
36.00,92.97,1
109.00,88.91,1
87.00,85.70,1
54.00,83.22,1
97.00,81.00,1
104.00,79.54,1
76.00,78.96,1
109.00,78.93,1
60.00,79.22,1
96.00,79.52,1
76.00,79.82,1
60.00,79.96,1
46.00,79.42,1
107.00,78.52,1
154.00,78.66,1
209.00,81.31,1
49.00,85.80,1
263.00,91.09,1
152.00,98.11,1
257.00,107.04,1
77.00,116.43,1
118.00,124.10,1
114.00,129.33,1
146.00,133.09,1
79.00,135.56,1
127.00,136.51,1
110.00,136.38,1
111.00,135.55,1
53.00,133.62,1
148.00,130.73,1
112.00,128.03,1
167.00,126.20,1
90.00,125.07,1
323.00,125.62,1
270.00,130.19,1
173.00,137.99,1
502.00,148.60,1
87.00,162.24,1
142.00,174.00,1
43.00,180.60,1
123.00,182.49,1
138.00,181.37,1
317.00,180.44,1
106.00,181.05,1
44.00,180.23,1
93.00,176.00,1
117.00,169.83,1
84.00,162.88,1
134.00,155.68,1
61.00,148.47,1
148.00,141.41,1
215.00,136.10,1
135.00,133.48,1
86.00,131.80,1
130.00,129.77,1
60.00,127.29,1
443.00,126.96,1
41.00,130.66,1
48.00,133.89,1
75.00,133.61,1
122.00,131.63,1
145.00,129.60,1
104.00,128.04,1
102.00,126.38,1
140.00,124.64,1
468.00,126.29,1
100.00,133.12,1
301.00,141.95,1
235.00,151.77,1
203.00,162.28,1
166.00,171.58,1
386.00,180.59,1
52.00,189.66,1
117.00,195.28,1
269.00,197.65,1
314.00,200.93,1
111.00,205.13,1
151.00,207.20,1
40.00,205.64,1
52.00,199.88,1
127.00,191.13,1
52.00,181.09,1
214.00,171.14,1
148.00,163.10,1
158.00,157.14,1
42.00,151.58,1
56.00,144.81,1
39.00,136.45,1
145.00,127.88,1
127.00,120.90,1
222.00,116.74,1
123.00,115.51,1
216.00,116.44,1
143.00,119.07,1
70.00,121.87,1
199.00,123.96,1
110.00,126.23,1
90.00,127.98,1
91.00,128.22,1
48.00,126.79,1
350.00,125.96,1
201.00,129.03,1
216.00,135.14,1
160.00,141.89,1
47.00,147.14,1
165.00,149.72,1
123.00,150.84,1
136.00,151.23,1
322.00,152.45,1
45.00,155.18,1
99.00,156.35,1
424.00,157.58,1
139.00,162.32,1
46.00,166.74,1
67.00,167.00,1
88.00,163.83,1
114.00,158.93,1
191.00,154.14,1
133.00,150.61,1
186.00,148.27,1
249.00,147.83,1
122.00,149.28,1
128.00,150.58,1
194.00,151.32,1
67.00,151.69,1
76.00,150.28,1
158.00,147.35,1
93.00,144.24,1
46.00,140.33,1
101.00,135.07,1
75.00,129.27,1
48.00,123.05,1
86.00,116.39,1
161.00,110.63,1
70.00,106.55,1
40.00,102.74,1
49.00,98.08,1
127.00,93.48,1
45.00,89.78,1
40.00,86.11,1
417.00,84.97,1
136.00,89.71,1
73.00,96.72,1
49.00,101.56,1
203.00,104.96,1
82.00,108.52,1
296.00,113.13,1
80.00,119.16,1
118.00,124.55,1
188.00,128.69,1
94.00,132.44,1
127.00,135.07,1
113.00,136.41,1
48.00,136.20,1
64.00,133.78,1
59.00,129.45,1
104.00,124.22,1
54.00,118.79,1
127.00,113.54,1
87.00,109.06,1
66.00,105.08,1
153.00,101.66,1
51.00,99.21,1
107.00,97.06,1
142.00,95.58,1
48.00,94.94,1
153.00,94.55,1
90.00,94.80,1
151.00,95.88,1
227.00,98.66,1
53.00,102.96,1
74.00,106.19,1
64.00,107.31,1
139.00,107.43,1
66.00,107.33,1
168.00,107.34,1
35.00,107.42,1
126.00,106.92,1
46.00,105.76,1
224.00,105.04,1
71.00,105.69,1
37.00,106.03,1
111.00,104.87,1
108.00,103.56,1
75.00,102.46,1
52.00,100.79,1
46.00,98.03,1
50.00,94.29,1
72.00,90.10,1
88.00,86.28,1
101.00,83.40,1
68.00,81.43,1
210.00,80.95,1
53.00,82.38,1
132.00,84.46,1
62.00,86.39,1
174.00,88.55,1
94.00,91.46,1
43.00,93.99,1
51.00,94.70,1
141.00,94.47,1
36.00,94.21,1
49.00,93.06,1
127.00,91.26,1
232.00,91.31,1
138.00,94.36,1
268.00,100.01,1
56.00,107.04,1
44.00,112.34,1
53.00,114.27,1
43.00,113.55,1
35.00,110.70,1
110.00,106.73,1
125.00,103.32,1
150.00,101.53,1
88.00,101.05,1
72.00,100.63,1
124.00,99.93,1
114.00,99.68,1
194.00,100.75,1
86.00,103.10,1
115.00,105.46,1
96.00,107.17,1
175.00,108.92,1
116.00,111.30,1
106.00,113.67,1
107.00,115.31,1
182.00,116.90,1
119.00,119.12,1
107.00,121.23,1
36.00,121.85,1
68.00,120.33,1
86.00,117.31,1
35.00,113.38,1
119.00,108.92,1
108.00,105.07,1
147.00,102.67,1
65.00,101.30,1
69.00,99.77,1
111.00,97.91,1
94.00,96.45,1
127.00,95.67,1
42.00,95.14,1
158.00,94.64,1
191.00,95.67,1
106.00,98.65,1
51.00,101.41,1
88.00,102.59,1
45.00,102.33,1
74.00,100.80,1
72.00,98.50,1
140.00,96.44,1
93.00,95.39,1
97.00,94.94,1
160.00,95.16,1
185.00,97.18,1
160.00,101.22,1
54.00,105.58,1
63.00,108.13,1
138.00,109.11,1
37.00,109.35,1
89.00,108.39,1
86.00,106.55,1
90.00,104.53,1
120.00,102.72,1
41.00,101.02,1
139.00,99.20,1
77.00,97.81,1
38.00,96.26,1
37.00,93.44,1
48.00,89.53,1
181.00,86.19,1
150.00,85.49,1
92.00,86.89,1
160.00,89.16,1
163.00,92.73,1
62.00,96.91,1
93.00,100.01,1
45.00,101.46,1
180.00,102.20,1
268.00,104.97,1
304.00,112.07,1
64.00,121.55,1
81.00,128.98,1
63.00,132.73,1
82.00,133.56,1
99.00,132.45,1
39.00,129.85,1
59.00,125.51,1
94.00,120.13,1
68.00,114.66,1
55.00,109.07,1
66.00,103.22,1
51.00,97.33,1
107.00,91.90,1
150.00,88.18,1
63.00,86.35,1
86.00,85.09,1
127.00,84.32,1
124.00,84.79,1
101.00,86.28,1
83.00,87.94,1
43.00,88.85,1
52.00,88.43,1
126.00,87.44,1
116.00,87.27,1
76.00,87.85,1
58.00,88.08,1
114.00,87.87,1
104.00,88.03,1
209.00,89.65,1
43.00,92.59,1
43.00,94.55,1
57.00,94.43,1
132.00,93.59,1
128.00,93.58,1
92.00,94.45,1
43.00,94.92,1
92.00,94.37,1
46.00,93.08,1
41.00,90.86,1
79.00,87.88,1
116.00,85.32,1
296.00,85.61,1
114.00,89.82,1
62.00,94.91,1
114.00,98.53,1
97.00,101.23,1
119.00,103.46,1
132.00,105.59,1
55.00,107.35,1
135.00,108.24,1
57.00,108.50,1
111.00,108.08,1
52.00,106.92,1
89.00,105.01,1
49.00,102.36,1
58.00,98.98,1
82.00,95.17,1
48.00,91.35,1
96.00,87.70,1
59.00,84.49,1
59.00,81.51,1
46.00,78.39,1
58.00,75.15,1
74.00,72.15,1
108.00,70.08,1
53.00,69.04,1
138.00,68.89,1
98.00,70.03,1
108.00,72.27,1
44.00,74.54,1
74.00,76.03,1
43.00,76.57,1
47.00,76.16,1
72.00,75.05,1
114.00,74.25,1
79.00,74.31,1
143.00,75.34,1
80.00,77.34,1
111.00,79.72,1
134.00,82.50,1
49.00,85.44,1
93.00,87.52,1
96.00,88.95,1
70.00,90.02,1
98.00,90.62,1
89.00,91.01,1
70.00,91.16,1
54.00,90.59,1
83.00,89.31,1
140.00,88.37,1
115.00,88.69,1
74.00,89.67,1
41.00,89.95,1
102.00,89.32,1
107.00,88.80,1
113.00,89.02,1
127.00,90.06,1
147.00,92.13,1
89.00,94.88,1
90.00,97.27,1
140.00,99.25,1
263.00,102.73,1
38.00,107.81,1
103.00,111.76,1
72.00,113.66,1
128.00,114.44,1
138.00,115.10,1
41.00,115.48,1
77.00,114.40,1
117.00,112.38,1
46.00,110.08,1
104.00,107.28,1
58.00,104.18,1
45.00,100.55,1
168.00,97.09,1
154.00,95.66,1
66.00,95.90,1
100.00,96.10,1
70.00,95.85,1
197.00,96.11,1
86.00,97.68,1
154.00,99.97,1
96.00,102.46,1
86.00,104.53,1
97.00,105.67,1
59.00,105.83,1
114.00,105.16,1
121.00,104.55,1
121.00,104.57,1
43.00,104.49,1
230.00,104.58,1
73.00,105.96,1
103.00,107.47,1
61.00,107.87,1
50.00,106.88,1
39.00,104.22,1
177.00,101.26,1
61.00,99.43,1
60.00,97.72,1
44.00,95.03,1
52.00,91.50,1
232.00,88.93,1
66.00,88.87,1
117.00,89.88,1
48.00,90.56,1
97.00,90.64,1
65.00,90.24,1
51.00,89.24,1
91.00,87.66,1
72.00,86.08,1
76.00,84.61,1
119.00,83.52,1
44.00,82.90,1
105.00,82.26,1
89.00,81.89,1
52.00,81.67,1
65.00,80.93,1
126.00,80.23,1
52.00,80.10,1
124.00,80.29,1
39.00,80.58,1
48.00,80.19,1
51.00,78.78,1
50.00,76.75,1
183.00,75.44,1
57.00,75.87,1
50.00,76.57,1
108.00,76.74,1
157.00,77.85,1
83.00,80.29,1
99.00,83.00,1
105.00,85.50,1
223.00,88.99,1
94.00,94.06,1
185.00,99.74,1
127.00,105.64,1
66.00,110.80,1
52.00,113.63,1
40.00,113.75,1
70.00,111.72,1
51.00,108.39,1
92.00,104.45,1
63.00,100.46,1
71.00,96.49,1
38.00,92.30,1
113.00,88.21,1
40.00,84.70,1
93.00,81.60,1
54.00,78.86,1
132.00,76.93,1
42.00,75.90,1
39.00,74.72,1
159.00,73.65,1
132.00,74.46,1
51.00,76.52,1
58.00,77.96,1
102.00,78.70,1
119.00,79.81,1
45.00,81.19,1
94.00,82.07,1
56.00,82.41,1
97.00,82.45,1
94.00,82.59,1
80.00,82.98,1
64.00,83.16,1
218.00,84.08,1
42.00,86.50,1
53.00,88.42,1
94.00,88.94,1
182.00,89.90,1
84.00,92.14,1
52.00,94.11,1
43.00,94.42,1
100.00,93.49,1
40.00,92.03,1
44.00,89.72,1
85.00,86.75,1
48.00,83.79,1
57.00,80.74,1
84.00,77.78,1
59.00,75.31,1
170.00,74.02,1
56.00,74.36,1
57.00,74.96,1
104.00,75.21,1
80.00,75.76,1
145.00,77.06,1
147.00,79.79,1
172.00,84.29,1
160.00,90.30,1
111.00,96.88,1
68.00,102.40,1
72.00,105.84,1
113.00,107.63,1
73.00,108.50,1
80.00,108.37,1
105.00,107.47,1
62.00,106.13,1
240.00,105.49,1
107.00,106.91,1
47.00,108.60,1
105.00,108.81,1
122.00,108.50,1
60.00,108.06,1
116.00,107.11,1
105.00,106.13,1
40.00,104.90,1
47.00,102.40,1
99.00,99.04,1
49.00,95.64,1
85.00,92.22,1
98.00,89.19,1
143.00,87.45,1
74.00,87.03,1
55.00,86.69,1
84.00,85.78,1
51.00,84.51,1
134.00,83.39,1
43.00,82.78,1
127.00,82.45,1
63.00,82.45,1
116.00,82.77,1
111.00,83.64,1
100.00,85.16,1
199.00,87.72,1
45.00,91.27,1
57.00,93.81,1
96.00,94.73,1
35.00,94.64,1
42.00,93.15,1
73.00,90.54,1
176.00,88.57,1
38.00,87.97,1
61.00,87.20,1
41.00,85.39,1
103.00,83.22,1
48.00,81.26,1
144.00,79.92,1
170.00,80.45,1
69.00,82.78,1
74.00,84.96,1
95.00,86.39,1
167.00,88.19,1
94.00,90.96,1
65.00,93.54,1
117.00,95.21,1
230.00,97.72,1
48.00,101.56,1
116.00,104.78,1
65.00,106.61,1
181.00,108.00,1
35.00,109.31,1
48.00,109.15,1
60.00,107.00,1
41.00,103.54,1
74.00,99.27,1
76.00,94.92,1
38.00,90.66,1
64.00,86.20,1
93.00,82.10,1
44.00,78.71,1
57.00,75.49,1
80.00,72.52,1
150.00,70.90,1
99.00,71.32,1
43.00,72.51,1
50.00,72.95,1
144.00,73.25,1
92.00,74.61,1
59.00,76.39,1
165.00,78.31,1
90.00,81.16,1
102.00,84.33,1
144.00,87.57,1
66.00,90.91,1
127.00,93.78,1
41.00,95.83,1
191.00,97.53,1
39.00,99.42,1
61.00,100.28,1
50.00,99.38,1
57.00,97.22,1
84.00,94.40,1
64.00,91.53,1
36.00,88.36,1
47.00,84.53,1
44.00,80.27,1
98.00,76.29,1
72.00,73.32,1
58.00,71.13,1
80.00,69.33,1
123.00,68.48,1
158.00,69.61,1
188.00,73.36,1
116.00,79.16,1
112.00,85.36,1
182.00,91.57,1
105.00,98.07,1
57.00,103.47,1
70.00,106.54,1
149.00,108.21,1
79.00,109.60,1
215.00,111.34,1
36.00,113.50,1
177.00,115.21,1
71.00,116.52,1
93.00,117.06,1
108.00,116.63,1
127.00,116.04,1
60.00,115.24,1
126.00,113.91,1
46.00,112.08,1
65.00,109.32,1
69.00,105.65,1
52.00,101.46,1
62.00,96.86,1
86.00,92.32,1
43.00,88.12,1
47.00,83.81,1
116.00,79.86,1
75.00,77.14,1
161.00,76.08,1
118.00,77.02,1
82.00,79.16,1
59.00,80.98,1
43.00,81.70,1
39.00,81.06,1
302.00,81.39,1
143.00,85.50,1
152.00,91.92,1
54.00,97.90,1
62.00,101.85,1
40.00,103.28,1
41.00,102.46,1
102.00,100.29,1
38.00,97.65,1
56.00,94.35,1
97.00,90.75,1
86.00,87.80,1
38.00,85.18,1
50.00,82.12,1
99.00,79.04,1
61.00,76.64,1
77.00,74.74,1
149.00,73.85,1
80.00,74.50,1
60.00,75.58,1
63.00,76.07,1
88.00,76.19,1
59.00,76.23,1
52.00,75.87,1
150.00,75.67,1
203.00,77.60,1
123.00,82.10,1
148.00,87.76,1
160.00,93.94,1
116.00,100.37,1
87.00,105.90,1
104.00,109.86,1
87.00,112.38,1
135.00,113.99,1
58.00,114.88,1
74.00,114.44,1
122.00,113.02,1
98.00,111.65,1
46.00,109.92,1
112.00,107.47,1
171.00,105.71,1
98.00,105.44,1
91.00,105.53,1
164.00,105.78,1
120.00,106.93,1
75.00,108.23,1
45.00,108.23,1
80.00,106.67,1
151.00,104.90,1
166.00,104.62,1
121.00,105.93,1
308.00,109.37,1
150.00,115.70,1
448.00,125.47,1
40.00,137.73,1
383.00,150.02,1
115.00,162.02,1
127.00,171.89,1
89.00,177.49,1
127.00,179.41,1
102.00,178.62,1
220.00,176.67,1
53.00,174.27,1
169.00,170.75,1
58.00,166.14,1
89.00,160.25,1
86.00,153.10,1
171.00,146.17,1
72.00,140.21,1
86.00,134.34,1
56.00,127.93,1
116.00,121.41,1
272.00,117.09,1
246.00,117.46,1
138.00,121.32,1
52.00,124.99,1
102.00,126.49,1
80.00,126.21,1
164.00,125.34,1
123.00,124.92,1
107.00,124.75,1
169.00,124.67,1
177.00,125.66,1
43.00,126.93,1
112.00,126.79,1
86.00,125.40,1
37.00,122.85,1
180.00,119.66,1
150.00,117.82,1
54.00,116.94,1
47.00,114.92,1
98.00,111.60,1
83.00,108.07,1
44.00,104.36,1
123.00,100.52,1
156.00,97.96,1
50.00,96.78,1
90.00,95.54,1
37.00,93.65,1
54.00,90.90,1
52.00,87.44,1
75.00,83.84,1
189.00,81.56,1
82.00,81.55,1
36.00,82.07,1
146.00,82.23,1
90.00,83.09,1
58.00,84.17,1
73.00,84.52,1
116.00,84.63,1
132.00,85.54,1
89.00,87.27,1
82.00,88.94,1
69.00,89.93,1
48.00,89.92,1
58.00,88.78,1
112.00,87.25,1
37.00,85.84,1
49.00,83.87,1
64.00,81.23,1
87.00,78.72,1
37.00,76.48,1
68.00,74.14,1
129.00,72.41,1
67.00,71.96,1
77.00,72.05,1
74.00,72.18,1
44.00,72.12,1
162.00,72.37,1
58.00,73.68,1
143.00,75.73,1
40.00,77.97,1
153.00,80.21,1
162.00,83.46,1
129.00,88.21,1
48.00,92.77,1
146.00,96.23,1
220.00,100.33,1
121.00,105.98,1
105.00,111.47,1
85.00,115.38,1
60.00,117.29,1
102.00,117.41,1
164.00,117.15,1
119.00,117.63,1
173.00,118.86,1
99.00,120.54,1
85.00,121.59,1
83.00,121.30,1
40.00,119.45,1
117.00,116.41,1
118.00,113.49,1
60.00,110.94,1
97.00,108.10,1
128.00,105.52,1
158.00,104.30,1
183.00,105.13,1
193.00,108.23,1
194.00,113.35,1
53.00,118.73,1
49.00,121.76,1
57.00,121.77,1
50.00,119.47,1
50.00,115.47,1
106.00,110.72,1
54.00,106.06,1
54.00,101.22,1
50.00,95.94,1
42.00,90.36,1
65.00,84.78,1
46.00,79.54,1
71.00,74.81,1
100.00,71.11,1
67.00,68.75,1
58.00,67.11,1
67.00,65.70,1
82.00,64.72,1
42.00,64.10,1
53.00,63.31,1
45.00,62.21,1
127.00,61.55,1
54.00,61.95,1
42.00,62.49,1
129.00,63.04,1
156.00,65.14,1
164.00,69.61,1
128.00,75.74,1
71.00,81.95,1
81.00,86.85,1
78.00,90.28,1
38.00,92.16,1
102.00,92.65,1
64.00,92.48,1
39.00,91.51,1
60.00,89.41,1
48.00,86.56,1
84.00,83.51,1
69.00,80.78,1
74.00,78.49,1
38.00,76.26,1
80.00,73.94,1
58.00,71.86,1
66.00,70.06,1
67.00,68.50,1
69.00,67.28,1
88.00,66.55,1
80.00,66.47,1
96.00,67.08,1
82.00,68.25,1
82.00,69.71,1
109.00,71.45,1
182.00,74.41,1
91.00,78.87,1
72.00,83.27,1
58.00,86.28,1
103.00,88.12,1
76.00,89.42,1
67.00,90.11,1
59.00,89.87,1
80.00,88.91,1
49.00,87.44,1
40.00,85.24,1
61.00,82.31,1
45.00,79.06,1
177.00,76.69,1
54.00,76.10,1
44.00,75.86,1
89.00,75.07,1
71.00,74.41,1
43.00,73.72,1
59.00,72.53,1
46.00,70.94,1
95.00,69.42,1
160.00,69.26,1
59.00,70.77,1
81.00,72.55,1
71.00,73.91,1
85.00,75.05,1
117.00,76.39,1
70.00,78.09,1
118.00,79.91,1
82.00,81.86,1
100.00,83.79,1
83.00,85.50,1
104.00,87.04,1
67.00,88.28,1
76.00,88.90,1
54.00,88.69,1
50.00,87.53,1
54.00,85.45,1
90.00,83.10,1
60.00,81.00,1
71.00,79.04,1
67.00,77.17,1
68.00,75.45,1
41.00,73.66,1
53.00,71.54,1
