149.00,225.30,1
70.00,222.70,1
118.00,216.70,1
40.00,207.73,1
71.00,196.23,1
181.00,183.98,1
248.00,174.23,1
45.00,167.03,1
210.00,160.56,1
170.00,155.59,1
165.00,152.59,1
103.00,150.25,1
211.00,148.31,1
68.00,146.84,1
57.00,144.20,1
224.00,140.79,1
78.00,138.36,1
46.00,135.46,1
156.00,131.47,1
329.00,129.81,1
51.00,131.39,1
102.00,132.65,1
127.00,132.38,1
118.00,131.71,1
64.00,130.38,1
191.00,128.66,1
100.00,127.62,1
54.00,126.28,1
71.00,123.39,1
220.00,120.55,1
90.00,119.37,1
432.00,121.44,1
243.00,128.95,1
109.00,138.91,1
63.00,146.21,1
278.00,151.15,1
58.00,155.51,1
124.00,157.96,1
119.00,158.10,1
53.00,156.37,1
48.00,152.16,1
122.00,146.14,1
44.00,139.49,1
49.00,131.97,1
168.00,124.44,1
190.00,119.37,1
145.00,117.31,1
194.00,117.45,1
63.00,118.61,1
197.00,119.84,1
136.00,121.72,1
87.00,123.73,1
81.00,124.38,1
75.00,123.44,1
133.00,121.66,1
113.00,120.04,1
89.00,118.54,1
73.00,116.48,1
43.00,113.34,1
61.00,109.03,1
90.00,104.24,1
189.00,100.72,1
71.00,99.17,1
67.00,98.00,1
115.00,96.51,1
60.00,95.15,1
60.00,93.40,1
84.00,91.17,1
43.00,88.69,1
120.00,86.27,1
70.00,84.50,1
55.00,82.97,1
148.00,81.77,1
67.00,81.62,1
39.00,81.45,1
227.00,81.71,1
127.00,84.33,1
109.00,88.44,1
131.00,92.58,1
53.00,96.16,1
158.00,98.97,1
151.00,102.12,1
58.00,105.42,1
71.00,107.22,1
97.00,107.49,1
192.00,107.93,1
52.00,109.10,1
43.00,109.19,1
63.00,107.29,1
81.00,104.35,1
39.00,100.83,1
72.00,96.73,1
174.00,93.36,1
74.00,91.81,1
95.00,91.04,1
100.00,90.46,1
150.00,90.71,1
114.00,92.14,1
43.00,93.67,1
163.00,94.73,1
58.00,95.93,1
227.00,97.86,1
58.00,100.83,1
76.00,103.22,1
38.00,103.66,1
67.00,102.37,1
98.00,100.23,1
215.00,99.25,1
178.00,101.07,1
44.00,104.20,1
138.00,106.48,1
87.00,108.05,1
238.00,110.21,1
128.00,113.92,1
68.00,117.62,1
119.00,119.69,1
110.00,120.75,1
100.00,121.19,1
74.00,120.67,1
151.00,119.58,1
38.00,118.22,1
142.00,116.32,1
296.00,116.13,1
89.00,118.97,1
63.00,121.62,1
74.00,122.01,1
266.00,122.21,1
46.00,123.72,1
199.00,125.38,1
263.00,128.34,1
120.00,133.32,1
57.00,137.33,1
44.00,138.14,1
70.00,135.96,1
188.00,132.88,1
253.00,131.93,1
474.00,136.55,1
85.00,146.14,1
139.00,155.07,1
196.00,161.35,1
79.00,165.83,1
105.00,167.54,1
203.00,167.37,1
378.00,169.08,1
80.00,173.42,1
113.00,176.35,1
33.00,175.52,1
87.00,171.23,1
46.00,164.39,1
38.00,155.51,1
148.00,145.85,1
169.00,137.84,1
167.00,132.61,1
48.00,128.82,1
114.00,124.79,1
48.00,120.27,1
190.00,116.18,1
184.00,114.28,1
188.00,115.23,1
43.00,117.12,1
131.00,118.03,1
154.00,118.62,1
61.00,119.28,1
38.00,118.43,1
56.00,115.44,1
113.00,111.52,1
118.00,108.15,1
120.00,105.90,1
124.00,104.68,1
140.00,104.48,1
112.00,105.15,1
235.00,107.15,1
149.00,111.19,1
142.00,116.16,1
206.00,121.38,1
500.00,130.08,1
48.00,142.79,1
95.00,153.43,1
39.00,158.71,1
140.00,160.05,1
81.00,159.05,1
101.00,156.36,1
119.00,152.46,1
42.00,147.60,1
179.00,142.18,1
36.00,136.96,1
187.00,132.08,1
71.00,127.98,1
86.00,124.06,1
383.00,122.18,1
38.00,124.08,1
89.00,125.95,1
191.00,126.56,1
78.00,127.38,1
76.00,127.28,1
118.00,125.85,1
108.00,124.06,1
209.00,123.09,1
52.00,123.08,1
255.00,123.70,1
52.00,125.17,1
70.00,125.67,1
92.00,124.25,1
120.00,122.15,1
403.00,122.61,1
43.00,126.93,1
155.00,131.34,1
145.00,134.46,1
108.00,136.96,1
196.00,138.93,1
58.00,140.44,1
38.00,139.84,1
49.00,136.26,1
134.00,131.26,1
64.00,126.27,1
141.00,121.64,1
123.00,117.97,1
38.00,114.79,1
162.00,111.57,1
138.00,109.57,1
101.00,108.88,1
42.00,107.92,1
83.00,105.85,1
112.00,103.41,1
132.00,101.77,1
68.00,100.83,1
195.00,100.60,1
151.00,102.17,1
81.00,104.76,1
36.00,106.15,1
146.00,106.16,1
176.00,106.83,1
119.00,108.92,1
395.00,113.59,1
55.00,121.40,1
41.00,127.84,1
64.00,130.17,1
53.00,129.45,1
82.00,126.69,1
169.00,123.61,1
50.00,121.06,1
119.00,118.32,1
53.00,115.14,1
141.00,111.93,1
155.00,109.84,1
158.00,109.67,1
180.00,111.34,1
115.00,114.16,1
101.00,116.76,1
94.00,118.26,1
116.00,118.83,1
87.00,118.74,1
79.00,117.79,1
60.00,115.67,1
55.00,112.32,1
243.00,109.47,1
126.00,109.22,1
86.00,110.25,1
92.00,110.60,1
82.00,110.12,1
68.00,108.78,1
82.00,106.62,1
39.00,103.69,1
122.00,100.35,1
51.00,97.26,1
377.00,96.68,1
54.00,100.21,1
54.00,104.04,1
116.00,105.80,1
157.00,107.30,1
79.00,109.10,1
36.00,109.75,1
113.00,108.79,1
446.00,110.33,1
121.00,117.16,1
70.00,124.77,1
74.00,129.19,1
168.00,131.46,1
50.00,132.63,1
157.00,132.64,1
69.00,131.84,1
151.00,130.55,1
193.00,129.92,1
149.00,130.83,1
111.00,132.17,1
225.00,133.75,1
181.00,136.68,1
96.00,140.03,1
85.00,141.73,1
52.00,140.95,1
130.00,138.30,1
43.00,134.64,1
34.00,129.47,1
49.00,122.59,1
36.00,114.68,1
59.00,106.36,1
118.00,98.77,1
108.00,93.07,1
101.00,89.26,1
45.00,86.34,1
76.00,83.48,1
60.00,80.66,1
47.00,77.86,1
75.00,75.04,1
180.00,73.54,1
43.00,73.93,1
154.00,75.27,1
116.00,77.66,1
199.00,81.75,1
63.00,86.94,1
46.00,91.08,1
344.00,95.34,1
84.00,102.22,1
46.00,108.68,1
239.00,113.42,1
152.00,118.85,1
99.00,124.36,1
142.00,128.50,1
47.00,130.96,1
131.00,131.51,1
55.00,130.58,1
56.00,128.01,1
52.00,123.61,1
127.00,118.55,1
157.00,114.61,1
36.00,111.78,1
209.00,109.55,1
120.00,108.99,1
69.00,109.26,1
156.00,109.27,1
163.00,110.16,1
112.00,112.12,1
99.00,113.92,1
91.00,114.83,1
96.00,114.84,1
88.00,114.10,1
194.00,113.62,1
111.00,114.36,1
59.00,115.07,1
132.00,114.79,1
40.00,113.77,1
96.00,111.76,1
57.00,108.93,1
40.00,105.25,1
48.00,100.47,1
89.00,95.37,1
39.00,90.54,1
166.00,86.62,1
55.00,84.30,1
57.00,82.51,1
168.00,81.20,1
75.00,81.41,1
92.00,82.26,1
152.00,83.59,1
181.00,86.63,1
87.00,91.05,1
57.00,94.80,1
50.00,96.58,1
64.00,96.55,1
97.00,95.61,1
97.00,94.66,1
127.00,94.28,1
37.00,94.07,1
94.00,93.23,1
115.00,92.31,1
38.00,91.56,1
62.00,90.03,1
78.00,87.87,1
58.00,85.59,1
41.00,82.97,1
102.00,80.22,1
279.00,79.83,1
35.00,82.68,1
74.00,85.61,1
96.00,87.31,1
60.00,88.40,1
118.00,89.07,1
84.00,89.77,1
71.00,90.29,1
48.00,89.97,1
74.00,88.74,1
65.00,87.02,1
156.00,85.81,1
36.00,85.47,1
84.00,84.97,1
78.00,84.11,1
50.00,83.07,1
70.00,81.57,1
71.00,79.89,1
80.00,78.38,1
65.00,77.09,1
47.00,75.69,1
57.00,73.91,1
146.00,72.65,1
67.00,72.74,1
78.00,73.37,1
72.00,73.86,1
144.00,74.82,1
63.00,76.58,1
197.00,79.25,1
96.00,83.26,1
189.00,88.33,1
42.00,93.53,1
38.00,96.95,1
63.00,97.85,1
134.00,97.76,1
46.00,97.57,1
70.00,96.64,1
36.00,94.57,1
65.00,91.56,1
120.00,88.60,1
68.00,86.51,1
62.00,84.68,1
92.00,82.85,1
46.00,81.12,1
144.00,79.84,1
52.00,79.43,1
56.00,79.00,1
106.00,78.29,1
99.00,78.21,1
63.00,78.59,1
179.00,79.63,1
82.00,81.96,1
74.00,84.47,1
184.00,87.01,1
42.00,90.06,1
65.00,92.15,1
44.00,92.47,1
106.00,91.80,1
92.00,91.13,1
34.00,90.28,1
75.00,88.60,1
127.00,86.96,1
55.00,86.02,1
66.00,84.96,1
58.00,83.37,1
42.00,81.25,1
58.00,78.61,1
70.00,75.88,1
54.00,73.38,1
94.00,71.31,1
263.00,71.54,1
166.00,75.91,1
125.00,82.68,1
173.00,89.98,1
59.00,96.93,1
108.00,102.32,1
43.00,105.66,1
130.00,107.37,1
127.00,108.67,1
132.00,110.34,1
72.00,111.79,1
39.00,111.78,1
150.00,110.55,1
122.00,109.78,1
55.00,109.27,1
72.00,107.79,1
68.00,105.31,1
62.00,102.16,1
50.00,98.38,1
64.00,94.13,1
37.00,89.55,1
47.00,84.63,1
118.00,80.15,1
44.00,76.80,1
64.00,73.95,1
54.00,71.21,1
38.00,68.51,1
70.00,65.84,1
51.00,63.53,1
96.00,61.89,1
101.00,61.45,1
43.00,61.91,1
43.00,62.10,1
92.00,62.03,1
52.00,62.22,1
128.00,62.99,1
161.00,65.39,1
63.00,69.29,1
53.00,72.78,1
101.00,75.25,1
51.00,77.16,1
64.00,78.28,1
82.00,78.69,1
319.00,80.94,1
252.00,88.04,1
73.00,97.93,1
82.00,106.17,1
140.00,112.04,1
35.00,116.06,1
70.00,117.58,1
97.00,117.09,1
80.00,115.68,1
192.00,114.49,1
62.00,114.16,1
64.00,113.27,1
80.00,111.08,1
204.00,109.29,1
90.00,109.10,1
162.00,109.85,1
47.00,110.60,1
73.00,110.23,1
91.00,108.65,1
53.00,106.39,1
137.00,103.92,1
55.00,101.76,1
247.00,100.83,1
57.00,101.82,1
40.00,102.51,1
64.00,101.29,1
121.00,99.40,1
158.00,98.51,1
78.00,98.84,1
121.00,99.41,1
223.00,101.06,1
157.00,104.98,1
101.00,109.77,1
54.00,113.20,1
190.00,115.35,1
54.00,117.21,1
67.00,117.76,1
42.00,116.16,1
35.00,112.59,1
73.00,107.69,1
91.00,102.65,1
110.00,98.44,1
43.00,94.91,1
58.00,91.20,1
57.00,87.14,1
459.00,86.40,1
80.00,91.75,1
53.00,98.35,1
50.00,102.08,1
47.00,103.20,1
128.00,102.90,1
160.00,103.10,1
78.00,104.19,1
113.00,105.12,1
282.00,107.21,1
127.00,111.92,1
63.00,116.75,1
82.00,119.30,1
48.00,119.56,1
262.00,119.44,1
87.00,120.86,1
49.00,121.95,1
266.00,122.48,1
218.00,125.44,1
162.00,130.72,1
44.00,135.26,1
89.00,137.01,1
122.00,136.64,1
36.00,134.89,1
40.00,131.02,1
130.00,125.78,1
123.00,121.13,1
192.00,118.29,1
178.00,117.90,1
106.00,119.11,1
102.00,120.16,1
49.00,119.94,1
37.00,117.73,1
69.00,113.75,1
40.00,108.74,1
52.00,102.98,1
87.00,97.10,1
57.00,91.77,1
57.00,86.80,1
176.00,83.03,1
38.00,81.12,1
62.00,79.59,1
163.00,78.48,1
115.00,79.22,1
104.00,81.28,1
35.00,83.11,1
34.00,83.47,1
259.00,83.98,1
89.00,86.89,1
56.00,90.30,1
206.00,93.27,1
296.00,98.80,1
88.00,107.06,1
121.00,114.71,1
46.00,119.82,1
188.00,123.06,1
88.00,125.68,1
80.00,127.17,1
100.00,126.96,1
130.00,125.99,1
68.00,124.62,1
52.00,122.09,1
214.00,119.32,1
211.00,118.99,1
212.00,121.84,1
222.00,127.06,1
92.00,133.01,1
95.00,137.27,1
94.00,139.09,1
159.00,139.52,1
311.00,141.23,1
99.00,145.15,1
407.00,150.89,1
202.00,159.56,1
302.00,170.08,1
87.00,179.83,1
204.00,186.92,1
265.00,192.40,1
150.00,197.51,1
1023.00,207.94,1
127.00,228.33,1
741.00,252.94,1
310.00,279.15,1
149.00,302.33,1
183.00,316.47,1
159.00,322.28,1
84.00,320.82,1
249.00,313.80,1
260.00,305.05,1
157.00,295.96,1
277.00,286.30,1
426.00,278.89,1
226.00,275.22,1
46.00,270.96,1
262.00,263.53,1
40.00,254.20,1
71.00,242.08,1
208.00,228.10,1
232.00,215.88,1
554.00,209.59,1
90.00,209.71,1
60.00,209.42,1
130.00,205.07,1
107.00,198.46,1
54.00,190.17,1
235.00,181.30,1
250.00,174.97,1
112.00,171.37,1
60.00,167.38,1
528.00,165.11,1
210.00,168.90,1
343.00,176.91,1
168.00,185.94,1
38.00,192.57,1
248.00,195.30,1
127.00,196.39,1
483.00,198.88,1
416.00,206.65,1
127.00,217.63,1
186.00,225.83,1
71.00,229.32,1
42.00,227.44,1
86.00,220.46,1
66.00,210.10,1
43.00,197.39,1
70.00,183.02,1
183.00,169.06,1
333.00,159.22,1
332.00,156.23,1
146.00,158.31,1
132.00,160.91,1
64.00,161.50,1
205.00,160.43,1
95.00,159.01,1
40.00,156.26,1
51.00,150.83,1
1023.00,151.33,1
410.00,167.55,1
101.00,190.58,1
52.00,207.27,1
332.00,217.53,1
151.00,225.28,1
131.00,230.01,1
319.00,232.04,1
203.00,233.95,1
456.00,237.42,1
209.00,243.16,1
67.00,247.25,1
164.00,246.34,1
240.00,242.73,1
83.00,237.97,1
95.00,230.59,1
626.00,224.78,1
192.00,225.69,1
68.00,227.86,1
289.00,227.05,1
81.00,224.94,1
354.00,222.54,1
248.00,221.94,1
234.00,223.11,1
181.00,224.04,1
681.00,227.91,1
270.00,238.37,1
269.00,250.78,1
82.00,259.30,1
105.00,261.59,1
184.00,258.57,1
84.00,252.33,1
381.00,245.30,1
752.00,245.04,1
370.00,255.44,1
198.00,268.86,1
91.00,277.26,1
141.00,278.65,1
132.00,274.65,1
99.00,266.65,1
608.00,259.51,1
213.00,258.14,1
551.00,261.67,1
548.00,271.20,1
269.00,285.30,1
54.00,296.00,1
57.00,297.89,1
543.00,295.35,1
358.00,296.05,1
494.00,301.31,1
44.00,306.86,1
38.00,306.03,1
358.00,299.24,1
151.00,291.66,1
250.00,283.77,1
121.00,274.79,1
53.00,263.33,1
41.00,248.09,1
98.00,230.22,1
57.00,211.41,1
50.00,192.31,1
136.00,173.85,1
39.00,157.05,1
98.00,141.67,1
64.00,127.77,1
110.00,115.76,1
156.00,106.45,1
108.00,100.24,1
103.00,96.16,1
130.00,93.54,1
111.00,92.39,1
270.00,93.61,1
136.00,97.98,1
190.00,104.12,1
151.00,110.85,1
217.00,118.18,1
38.00,125.00,1
142.00,129.65,1
58.00,132.01,1
212.00,133.32,1
168.00,135.28,1
43.00,137.18,1
65.00,136.70,1
37.00,133.54,1
121.00,128.87,1
220.00,125.19,1
79.00,123.54,1
51.00,121.75,1
64.00,118.35,1
40.00,113.64,1
61.00,107.98,1
87.00,102.16,1
88.00,97.02,1
91.00,92.84,1
47.00,89.21,1
84.00,85.72,1
132.00,83.12,1
292.00,83.69,1
242.00,89.29,1
55.00,97.53,1
157.00,104.77,1
72.00,110.45,1
108.00,114.48,1
348.00,119.02,1
125.00,126.22,1
97.00,133.26,1
62.00,137.33,1
68.00,138.25,1
143.00,137.19,1
185.00,136.30,1
252.00,137.45,1
66.00,140.01,1
99.00,141.31,1
111.00,140.72,1
78.00,138.91,1
180.00,136.63,1
150.00,135.25,1
100.00,134.52,1
53.00,132.84,1
297.00,131.33,1
491.00,135.27,1
292.00,146.93,1
71.00,160.39,1
43.00,169.24,1
148.00,172.81,1
81.00,173.28,1
88.00,171.19,1
210.00,167.81,1
247.00,165.93,1
42.00,165.19,1
263.00,164.08,1
411.00,165.93,1
433.00,174.44,1
68.00,186.23,1
92.00,194.47,1
185.00,197.89,1
71.00,198.35,1
512.00,199.08,1
44.00,202.47,1
290.00,205.72,1
207.00,208.25,1
150.00,210.34,1
172.00,210.58,1
89.00,208.61,1
296.00,205.56,1
242.00,204.07,1
156.00,203.94,1
306.00,204.21,1
200.00,205.67,1
174.00,207.26,1
108.00,207.01,1
102.00,204.06,1
188.00,199.18,1
53.00,193.26,1
186.00,186.33,1
92.00,179.18,1
132.00,171.96,1
64.00,164.25,1
127.00,156.17,1
462.00,151.34,1
317.00,154.05,1
99.00,160.89,1
656.00,170.46,1
228.00,185.72,1
94.00,201.13,1
98.00,210.43,1
40.00,213.21,1
104.00,210.57,1
196.00,205.26,1
72.00,199.12,1
103.00,191.53,1
257.00,183.84,1
258.00,179.16,1
117.00,177.04,1
212.00,175.40,1
351.00,175.73,1
225.00,179.62,1
114.00,184.21,1
779.00,191.76,1
246.00,207.13,1
39.00,222.81,1
285.00,232.38,1
62.00,237.48,1
491.00,240.94,1
351.00,247.17,1
39.00,253.94,1
56.00,254.66,1
73.00,248.59,1
75.00,237.99,1
623.00,229.06,1
640.00,230.97,1
78.00,241.27,1
92.00,248.45,1
111.00,248.75,1
216.00,245.12,1
146.00,239.92,1
68.00,232.80,1
54.00,222.42,1
104.00,209.48,1
73.00,195.47,1
62.00,180.94,1
49.00,165.90,1
154.00,151.57,1
182.00,140.12,1
226.00,132.98,1
49.00,128.80,1
92.00,124.80,1
53.00,119.99,1
184.00,115.52,1
134.00,112.90,1
86.00,111.63,1
579.00,114.34,1
158.00,124.21,1
616.00,140.10,1
47.00,159.51,1
39.00,175.18,1
141.00,183.52,1
36.00,186.63,1
188.00,186.17,1
46.00,183.46,1
402.00,180.96,1
457.00,183.89,1
72.00,191.54,1
188.00,197.53,1
54.00,199.69,1
57.00,197.62,1
84.00,191.60,1
66.00,183.06,1
52.00,172.71,1
245.00,162.55,1
478.00,157.93,1
453.00,162.98,1
278.00,175.18,1
387.00,190.23,1
51.00,204.50,1
186.00,214.18,1
231.00,219.82,1
250.00,224.27,1
281.00,228.60,1
188.00,232.60,1
104.00,234.23,1
212.00,232.76,1
48.00,228.71,1
455.00,224.36,1
646.00,226.90,1
191.00,237.38,1
104.00,246.86,1
223.00,251.02,1
42.00,250.76,1
545.00,249.29,1
38.00,249.61,1
480.00,250.71,1
220.00,253.35,1
228.00,256.47,1
260.00,258.11,1
288.00,259.38,1
47.00,259.06,1
62.00,253.90,1
54.00,243.38,1
53.00,229.18,1
104.00,212.99,1
274.00,198.06,1
48.00,185.95,1
85.00,174.36,1
124.00,162.60,1
88.00,151.77,1
104.00,141.85,1
1023.00,140.54,1
262.00,154.80,1
80.00,173.96,1
42.00,186.59,1
99.00,192.21,1
166.00,193.47,1
250.00,193.66,1
65.00,193.44,1
154.00,191.26,1
148.00,187.58,1
98.00,183.11,1
51.00,176.88,1
396.00,171.22,1
247.00,170.30,1
134.00,172.50,1
167.00,174.10,1
50.00,173.83,1
203.00,171.74,1
51.00,168.65,1
119.00,164.22,1
209.00,159.52,1
290.00,157.54,1
279.00,159.67,1
61.00,163.54,1
51.00,164.79,1
112.00,162.56,1
148.00,158.95,1
130.00,155.39,1
86.00,151.63,1
48.00,146.63,1
45.00,139.85,1
107.00,132.12,1
71.00,124.58,1
67.00,117.35,1
106.00,110.54,1
67.00,104.58,1
109.00,99.47,1
156.00,95.94,1
170.00,94.99,1
141.00,96.40,1
50.00,98.43,1
205.00,100.40,1
91.00,103.14,1
76.00,105.64,1
130.00,107.13,1
128.00,108.56,1
118.00,110.23,1
114.00,111.80,1
126.00,113.20,1
112.00,114.47,1
216.00,116.34,1
55.00,118.86,1
97.00,120.33,1
67.00,120.08,1
82.00,118.51,1
189.00,116.86,1
186.00,117.08,1
179.00,119.51,1
51.00,122.34,1
85.00,123.45,1
240.00,124.03,1
90.00,125.80,1
226.00,128.33,1
224.00,132.35,1
256.00,138.75,1
181.00,146.62,1
219.00,154.68,1
65.00,161.34,1
40.00,164.22,1
37.00,162.46,1
106.00,157.55,1
161.00,151.99,1
63.00,146.79,1
63.00,140.88,1
49.00,133.64,1
101.00,125.89,1
42.00,118.26,1
159.00,111.39,1
100.00,106.29,1
54.00,102.31,1
322.00,100.29,1
138.00,102.37,1
42.00,105.86,1
93.00,107.61,1
65.00,107.79,1
61.00,106.70,1
58.00,104.35,1
120.00,101.56,1
67.00,99.10,1
169.00,97.46,1
93.00,97.11,1
77.00,97.21,1
166.00,97.48,1
59.00,98.34,1
55.00,98.55,1
99.00,97.65,1
38.00,96.14,1
117.00,94.23,1
360.00,94.90,1
64.00,99.79,1
112.00,105.18,1
93.00,108.93,1
66.00,111.18,1
69.00,111.63,1
42.00,110.31,1
225.00,108.78,1
278.00,110.41,1
170.00,115.87,1
40.00,121.65,1
193.00,125.67,1
80.00,128.76,1
103.00,130.61,1
37.00,130.36,1
92.00,128.09,1
47.00,124.34,1
98.00,119.71,1
68.00,114.80,1
48.00,109.61,1
63.00,103.89,1
58.00,98.03,1
52.00,92.24,1
127.00,87.18,1
36.00,83.29,1
45.00,79.59,1
146.00,76.39,1
46.00,74.62,1
106.00,73.65,1
65.00,73.16,1
70.00,72.89,1
69.00,72.55,1
39.00,71.92,1
120.00,71.28,1
53.00,71.17,1
153.00,71.88,1
106.00,73.89,1
42.00,76.35,1
135.00,78.37,1
76.00,80.52,1
195.00,83.47,1
135.00,87.91,1
79.00,92.88,1
113.00,96.94,1
54.00,99.79,1
80.00,101.12,1
138.00,101.70,1
39.00,102.04,1
64.00,101.25,1
58.00,99.14,1
44.00,96.11,1
172.00,93.27,1
79.00,91.89,1
59.00,91.02,1
42.00,89.33,1
276.00,88.57,1
42.00,90.33,1
108.00,92.55,1
45.00,93.67,1
81.00,93.72,1
48.00,92.75,1
93.00,91.18,1
89.00,89.64,1
178.00,89.22,1
112.00,90.57,1
139.00,93.08,1
128.00,96.20,1
83.00,99.35,1
246.00,102.92,1
59.00,107.49,1
315.00,113.04,1
48.00,119.62,1
120.00,125.05,1
485.00,131.46,1
62.00,141.50,1
132.00,150.58,1
60.00,155.70,1
80.00,157.16,1
55.00,155.35,1
91.00,151.17,1
110.00,145.85,1
54.00,140.01,1
65.00,133.29,1
66.00,125.83,1
51.00,118.05,1
48.00,110.01,1
228.00,103.37,1
44.00,99.44,1
108.00,96.68,1
90.00,94.28,1
118.00,92.69,1
82.00,91.79,1
43.00,90.76,1
117.00,89.34,1
115.00,88.54,1
137.00,89.02,1
44.00,90.02,1
82.00,90.34,1
93.00,90.08,1
75.00,89.75,1
110.00,89.44,1
145.00,89.89,1
78.00,91.22,1
130.00,92.76,1
85.00,94.37,1
256.00,97.08,1
114.00,101.80,1
119.00,107.01,1
150.00,111.58,1
78.00,115.47,1
253.00,119.23,1
205.00,124.69,1
147.00,131.43,1
90.00,137.06,1
51.00,139.90,1
170.00,140.41,1
127.00,140.44,1
216.00,141.11,1
77.00,142.22,1
158.00,142.72,1
97.00,142.42,1
48.00,140.78,1
86.00,137.19,1
102.00,132.56,1
94.00,127.83,1
170.00,123.81,1
57.00,120.73,1
288.00,119.13,1
50.00,119.63,1
123.00,120.28,1
127.00,120.29,1
46.00,119.80,1
99.00,118.11,1
36.00,115.22,1
78.00,111.26,1
115.00,107.12,1
80.00,103.63,1
61.00,100.34,1
149.00,97.42,1
42.00,95.30,1
170.00,93.87,1
119.00,93.82,1
103.00,94.93,1
208.00,97.03,1
78.00,100.37,1
102.00,103.44,1
43.00,105.03,1
132.00,105.42,1
90.00,105.50,1
201.00,106.33,1
46.00,107.90,1
122.00,108.95,1
100.00,109.36,1
64.00,109.25,1
160.00,108.76,1
51.00,108.38,1
239.00,108.66,1
188.00,111.20,1
190.00,116.14,1
102.00,121.59,1
45.00,125.35,1
111.00,126.56,1
66.00,126.03,1
97.00,124.26,1
156.00,122.26,1
136.00,121.19,1
41.00,120.25,1
90.00,118.10,1
63.00,114.90,1
53.00,110.89,1
48.00,105.95,1
164.00,101.29,1
236.00,99.44,1
58.00,100.50,1
46.00,101.27,1
178.00,101.20,1
96.00,101.93,1
179.00,103.66,1
42.00,105.66,1
136.00,106.98,1
193.00,108.65,1
47.00,111.04,1
93.00,112.32,1
46.00,111.87,1
312.00,111.94,1
370.00,116.93,1
195.00,127.22,1
246.00,139.19,1
78.00,150.02,1
90.00,157.35,1
56.00,160.27,1
71.00,159.43,1
159.00,156.46,1
43.00,152.58,1
383.00,149.77,1
120.00,150.42,1
224.00,152.95,1
100.00,155.35,1
58.00,155.99,1
76.00,153.70,1
73.00,149.20,1
61.00,143.13,1
206.00,137.09,1
179.00,133.38,1
75.00,131.44,1
116.00,129.30,1
140.00,127.10,1
109.00,125.39,1
79.00,123.57,1
40.00,120.61,1
43.00,116.01,1
126.00,110.76,1
137.00,106.68,1
140.00,104.54,1
208.00,104.62,1
127.00,106.87,1
141.00,110.05,1
98.00,113.03,1
90.00,115.08,1
88.00,115.84,1
98.00,115.59,1
127.00,114.98,1
43.00,113.98,1
146.00,112.41,1
165.00,111.65,1
268.00,113.54,1
93.00,117.82,1
138.00,122.08,1
74.00,124.94,1
52.00,125.77,1
178.00,125.17,1
200.00,125.61,1
358.00,129.56,1
107.00,136.75,1
132.00,143.51,1
182.00,148.46,1
92.00,152.18,1
88.00,153.72,1
86.00,152.75,1
127.00,150.12,1
114.00,146.92,1
70.00,143.15,1
348.00,140.54,1
129.00,141.27,1
306.00,144.73,1
211.00,150.45,1
58.00,156.33,1
53.00,158.76,1
303.00,159.23,1
130.00,160.86,1
68.00,162.00,1
70.00,160.28,1
52.00,155.76,1
61.00,149.14,1
114.00,141.57,1
53.00,133.94,1
182.00,127.03,1
88.00,121.76,1
92.00,117.45,1
175.00,113.99,1
88.00,111.97,1
66.00,110.18,1
142.00,108.17,1
61.00,106.46,1
93.00,104.59,1
46.00,102.13,1
216.00,100.20,1
257.00,101.49,1
73.00,105.75,1
101.00,109.67,1
105.00,112.15,1
143.00,114.07,1
49.00,115.40,1
138.00,115.74,1
144.00,116.04,1
50.00,116.37,1
39.00,115.10,1
65.00,111.91,1
56.00,107.63,1
119.00,103.26,1
46.00,99.34,1
118.00,95.79,1
57.00,92.73,1
42.00,89.60,1
41.00,85.76,1
64.00,81.56,1
74.00,77.68,1
45.00,74.28,1
82.00,71.28,1
127.00,69.42,1
161.00,69.82,1
135.00,72.63,1
56.00,76.40,1
60.00,79.27,1
119.00,81.28,1
66.00,83.12,1
62.00,84.36,1
236.00,86.04,1
69.00,89.47,1
64.00,92.75,1
38.00,94.10,1
98.00,93.98,1
125.00,93.75,1
99.00,94.17,1
73.00,94.65,1
128.00,94.97,1
35.00,95.08,1
62.00,94.16,1
172.00,93.08,1
168.00,93.94,1
293.00,98.13,1
50.00,104.77,1
46.00,109.98,1
90.00,112.22,1
69.00,112.63,1
38.00,111.41,1
104.00,108.86,1
42.00,105.69,1
81.00,102.01,1
43.00,97.89,1
37.00,93.19,1
109.00,88.40,1
56.00,84.42,1
94.00,81.20,1
173.00,79.53,1
38.00,79.59,1
86.00,79.77,1
274.00,81.27,1
229.00,86.89,1
101.00,95.18,1
258.00,104.04,1
73.00,113.05,1
61.00,119.99,1
79.00,123.53,1
174.00,125.38,1
149.00,127.39,1
76.00,129.25,1
152.00,130.13,1
138.00,130.77,1
102.00,131.32,1
145.00,131.42,1
101.00,131.22,1
87.00,130.31,1
46.00,127.95,1
48.00,123.78,1
120.00,118.67,1
47.00,113.62,1
43.00,108.15,1
222.00,103.35,1
120.00,101.31,1
72.00,100.82,1
89.00,100.04,1
188.00,99.75,1
133.00,101.19,1
45.00,103.06,1
83.00,103.59,1
170.00,103.71,1
57.00,104.35,1
131.00,104.81,1
53.00,104.77,1
165.00,104.60,1
48.00,104.58,1
83.00,103.94,1
42.00,102.13,1
116.00,99.70,1
84.00,97.52,1
79.00,95.64,1
55.00,93.50,1
117.00,91.31,1
90.00,89.76,1
127.00,89.13,1
54.00,88.99,1
42.00,88.23,1
48.00,86.28,1
61.00,83.57,1
36.00,80.45,1
87.00,77.24,1
124.00,75.02,1
96.00,74.41,1
92.00,74.87,1
43.00,75.42,1
93.00,75.58,1
78.00,75.74,1
134.00,76.53,1
72.00,78.06,1
243.00,80.96,1
53.00,85.55,1
63.00,89.62,1
43.00,91.57,1
92.00,92.00,1
80.00,91.81,1
108.00,91.61,1
38.00,91.19,1
111.00,90.29,1
54.00,89.22,1
111.00,88.18,1
48.00,87.15,1
83.00,85.89,1
64.00,84.38,1
47.00,82.57,1
89.00,80.50,1
161.00,79.46,1
42.00,79.81,1
48.00,79.86,1
48.00,78.79,1
79.00,77.21,1
49.00,75.56,1
72.00,73.87,1
97.00,72.54,1
88.00,72.06,1
86.00,72.28,1
178.00,73.68,1
126.00,77.02,1
78.00,81.23,1
143.00,85.25,1
67.00,89.06,1
99.00,92.11,1
154.00,94.85,1
117.00,98.14,1
54.00,101.05,1
42.00,102.11,1
44.00,100.99,1
70.00,98.45,1
35.00,95.08,1
47.00,90.90,1
40.00,86.10,1
75.00,81.28,1
48.00,76.89,1
50.00,72.84,1
74.00,69.19,1
81.00,66.43,1
96.00,64.90,1
77.00,64.48,1
67.00,64.65,1
82.00,65.07,1
93.00,65.91,1
182.00,68.11,1
41.00,71.66,1
123.00,75.19,1
40.00,78.09,1
66.00,79.91,1
45.00,80.46,1
79.00,80.16,1
95.00,79.74,1
110.00,79.91,1
90.00,80.76,1
61.00,81.64,1
124.00,82.38,1
91.00,83.53,1
75.00,84.79,1
146.00,86.14,1
80.00,88.02,1
76.00,89.69,1
67.00,90.47,1
64.00,90.32,1
98.00,89.64,1
58.00,88.78,1
64.00,87.50,1
190.00,86.73,1
58.00,87.44,1
279.00,89.92,1
224.00,95.77,1
50.00,103.53,1
203.00,110.37,1
89.00,116.41,1
121.00,121.30,1
237.00,125.70,1
76.00,130.44,1
40.00,133.29,1
130.00,133.38,1
47.00,131.90,1
58.00,128.76,1
214.00,125.23,1
127.00,123.47,1
127.00,122.97,1
92.00,122.43,1
107.00,121.42,1
96.00,119.97,1
68.00,117.92,1
53.00,114.81,1
94.00,110.87,1
84.00,106.89,1
223.00,104.36,1
116.00,104.32,1
42.00,104.95,1
76.00,104.21,1
49.00,102.21,1
106.00,99.61,1
138.00,97.64,1
76.00,96.71,1
95.00,95.98,1
59.00,94.94,1
125.00,93.80,1
38.00,92.70,1
56.00,90.93,1
83.00,88.49,1
46.00,85.93,1
39.00,82.91,1
46.00,79.26,1
119.00,75.94,1
127.00,74.30,1
143.00,74.89,1
78.00,76.92,1
40.00,78.72,1
37.00,79.08,1
90.00,78.43,1
66.00,77.67,1
56.00,76.83,1
78.00,75.76,1
91.00,74.95,1
94.00,74.78,1
141.00,75.67,1
122.00,77.95,1
62.00,80.80,1
113.00,83.27,1
86.00,85.48,1
120.00,87.68,1
199.00,90.82,1
85.00,95.18,1
63.00,98.92,1
36.00,100.51,1
66.00,100.04,1
54.00,98.21,1
100.00,95.82,1
58.00,93.41,1
113.00,91.21,1
127.00,89.93,1
163.00,90.38,1
87.00,92.19,1
49.00,93.72,1
63.00,93.80,1
83.00,92.89,1
118.00,91.99,1
50.00,91.32,1
58.00,90.07,1
66.00,88.06,1
38.00,85.50,1
110.00,82.80,1
72.00,80.75,1
36.00,78.91,1
53.00,76.54,1
68.00,73.93,1
50.00,71.48,1
107.00,69.53,1
168.00,69.33,1
70.00,71.16,1
136.00,73.86,1
72.00,76.90,1
59.00,79.46,1
60.00,80.85,1
135.00,81.82,1
62.00,83.09,1
115.00,84.41,1
150.00,86.28,1
71.00,88.86,1
39.00,90.61,1
54.00,90.62,1
288.00,91.23,1
108.00,94.83,1
145.00,99.79,1
103.00,104.40,1
180.00,108.86,1
133.00,113.57,1
111.00,118.00,1
82.00,121.07,1
129.00,122.73,1
74.00,123.36,1
57.00,122.50,1
49.00,119.74,1
64.00,115.48,1
65.00,110.41,1
80.00,105.16,1
67.00,100.10,1
82.00,95.40,1
64.00,91.10,1
168.00,87.95,1
38.00,86.29,1
88.00,84.91,1
83.00,83.51,1
171.00,83.20,1
54.00,84.19,1
93.00,85.23,1
174.00,86.63,1
47.00,88.87,1
36.00,90.15,1
166.00,90.49,1
60.00,91.30,1
66.00,91.80,1
35.00,91.03,1
112.00,89.47,1
40.00,87.80,1
51.00,85.64,1
220.00,84.16,1
88.00,85.04,1
90.00,86.91,1
67.00,88.23,1
50.00,88.57,1
229.00,89.18,1
126.00,91.93,1
80.00,95.64,1
320.00,100.29,1
59.00,106.94,1
171.00,113.50,1
178.00,119.52,1
118.00,125.47,1
236.00,131.22,1
329.00,138.88,1
80.00,148.18,1
102.00,155.24,1
96.00,158.56,1
42.00,158.61,1
138.00,156.02,1
63.00,152.02,1
44.00,146.51,1
72.00,139.29,1
104.00,131.62,1
60.00,124.25,1
42.00,116.74,1
62.00,108.89,1
154.00,101.97,1
299.00,98.87,1
44.00,99.85,1
99.00,101.31,1
166.00,102.45,1
52.00,103.92,1
42.00,104.18,1
67.00,102.62,1
35.00,99.80,1
58.00,95.97,1
68.00,91.69,1
36.00,87.31,1
56.00,82.71,1
85.00,78.41,1
64.00,74.95,1
41.00,71.95,1
68.00,69.05,1
76.00,66.66,1
129.00,65.52,1
156.00,66.53,1
51.00,69.20,1
212.00,72.81,1
66.00,77.64,1
94.00,82.38,1
100.00,86.18,1
54.00,89.09,1
102.00,90.92,1
157.00,92.73,1
36.00,94.79,1
119.00,96.08,1
104.00,97.02,1
79.00,97.87,1
229.00,99.35,1
44.00,102.00,1
216.00,105.04,1
74.00,108.42,1
67.00,110.96,1
137.00,112.08,1
81.00,112.70,1
146.00,113.13,1
280.00,115.13,1
60.00,119.17,1
84.00,122.30,1
71.00,123.09,1
107.00,122.39,1
144.00,121.36,1
108.00,120.72,1
185.00,120.75,1
49.00,121.14,1
302.00,122.27,1
125.00,125.54,1
244.00,130.46,1
112.00,135.88,1
98.00,140.19,1
197.00,142.99,1
119.00,145.44,1
214.00,147.86,1
257.00,151.47,1
51.00,155.63,1
147.00,157.84,1
40.00,157.47,1
67.00,154.40,1
36.00,148.69,1
47.00,140.95,1
276.00,133.75,1
116.00,129.79,1
76.00,127.32,1
171.00,124.86,1
167.00,123.70,1
179.00,124.38,1
57.00,125.60,1
63.00,125.31,1
186.00,124.00,1
138.00,123.64,1
50.00,123.51,1
246.00,123.33,1
78.00,124.24,1
183.00,125.66,1
160.00,127.59,1
187.00,130.54,1
122.00,133.90,1
58.00,136.06,1
86.00,135.88,1
64.00,133.63,1
188.00,130.82,1
42.00,128.35,1
163.00,125.82,1
98.00,123.59,1
77.00,121.41,1
326.00,120.52,1
195.00,123.50,1
136.00,128.73,1
150.00,133.56,1
38.00,136.71,1
118.00,137.44,1
63.00,136.21,1
102.00,133.61,1
68.00,129.99,1
44.00,125.26,1
38.00,119.12,1
140.00,112.67,1
78.00,107.31,1
43.00,102.50,1
70.00,97.38,1
43.00,92.14,1
40.00,86.73,1
103.00,81.61,1
37.00,77.36,1
115.00,73.99,1
70.00,71.77,1
36.00,70.12,1
70.00,68.29,1
93.00,66.87,1
66.00,66.25,1
91.00,66.20,1
58.00,66.50,1
77.00,66.88,1
81.00,67.39,1
224.00,69.38,1
72.00,73.57,1
61.00,77.88,1
109.00,81.09,1
78.00,83.80,1
41.00,85.61,1
51.00,85.89,1
92.00,85.21,1
64.00,84.35,1
34.00,83.00,1
76.00,80.94,1
74.00,78.85,1
86.00,77.21,1
57.00,75.93,1
205.00,75.79,1
50.00,77.48,1
107.00,79.60,1
58.00,81.25,1
49.00,82.05,1
86.00,81.95,1
93.00,81.75,1
36.00,81.44,1
65.00,80.42,1
188.00,79.90,1
42.00,80.87,1
38.00,81.50,1
52.00,80.69,1
101.00,79.41,1
70.00,78.49,1
53.00,77.63,1
50.00,76.28,1
97.00,74.79,1
121.00,74.20,1
38.00,74.43,1
50.00,74.18,1
38.00,72.98,1
38.00,71.00,1
104.00,68.95,1
89.00,67.89,1
63.00,67.69,1
240.00,69.08,1
107.00,73.25,1
108.00,78.64,1
151.00,84.07,1
50.00,89.21,1
127.00,93.30,1
73.00,96.43,1
90.00,98.62,1
76.00,99.74,1
67.00,99.85,1
94.00,99.14,1
162.00,98.77,1
115.00,99.63,1
56.00,100.70,1
42.00,100.41,1
53.00,98.48,1
43.00,95.32,1
61.00,91.40,1
40.00,87.10,1
114.00,83.06,1
61.00,79.96,1
144.00,78.11,1
105.00,77.85,1
68.00,78.57,1
39.00,78.82,1
66.00,78.17,1
149.00,77.73,1
208.00,79.56,1
93.00,83.74,1
113.00,88.34,1
74.00,92.17,1
77.00,94.82,1
97.00,96.38,1
118.00,97.59,1
54.00,98.49,1
52.00,98.20,1
92.00,96.79,1
43.00,94.81,1
142.00,92.82,1
66.00,91.49,1
96.00,90.51,1
41.00,89.24,1
148.00,88.03,1
175.00,88.44,1
86.00,90.66,1
75.00,92.84,1
120.00,94.37,1
64.00,95.54,1
42.00,95.67,1
54.00,94.25,1
127.00,92.35,1
113.00,91.32,1
183.00,91.95,1
64.00,93.88,1
39.00,95.12,1
35.00,94.39,1
77.00,92.23,1
124.00,90.13,1
61.00,88.74,1
41.00,87.13,1
58.00,84.68,1
40.00,81.64,1
41.00,78.12,1
38.00,74.17,1
128.00,70.75,1
324.00,70.94,1
46.00,75.56,1
74.00,80.62,1
89.00,84.14,1
40.00,86.44,1
61.00,87.22,1
46.00,86.65,1
201.00,86.27,1
168.00,88.23,1
77.00,91.88,1
61.00,94.79,1
126.00,96.54,1
302.00,99.77,1
64.00,105.50,1
172.00,111.35,1
69.00,116.05,1
245.00,120.38,1
127.00,125.37,1
143.00,130.32,1
63.00,133.72,1
94.00,134.87,1
122.00,134.34,1
172.00,133.71,1
232.00,134.59,1
57.00,136.55,1
83.00,137.07,1
44.00,135.16,1
198.00,132.26,1
74.00,129.94,1
113.00,127.67,1
103.00,125.04,1
51.00,121.96,1
94.00,118.05,1
103.00,114.00,1
203.00,111.31,1
81.00,110.48,1
214.00,110.99,1
173.00,113.34,1
65.00,116.55,1
44.00,117.99,1
120.00,117.44,1
418.00,118.93,1
97.00,124.85,1
59.00,130.77,1
237.00,134.69,1
199.00,139.28,1
44.00,143.77,1
88.00,145.54,1
151.00,145.14,1
154.00,144.52,1
127.00,144.12,1
138.00,143.56,1
514.00,145.94,1
202.00,154.34,1
216.00,165.01,1
288.00,175.28,1
420.00,187.35,1
78.00,200.32,1
85.00,209.02,1
130.00,211.78,1
466.00,213.58,1
242.00,218.67,1
193.00,224.77,1
142.00,228.35,1
146.00,228.66,1
271.00,227.14,1
78.00,224.81,1
50.00,219.53,1
45.00,210.05,1
184.00,198.57,1
65.00,187.23,1
193.00,176.59,1
59.00,166.89,1
91.00,157.31,1
136.00,147.96,1
603.00,143.93,1
57.00,147.68,1
62.00,152.09,1
224.00,153.76,1
44.00,154.51,1
93.00,153.33,1
55.00,149.70,1
249.00,145.72,1
131.00,143.53,1
97.00,142.15,1
80.00,139.73,1
48.00,135.79,1
196.00,131.38,1
179.00,128.81,1
186.00,128.73,1
190.00,130.52,1
88.00,132.98,1
304.00,135.99,1
585.00,144.35,1
361.00,161.07,1
60.00,179.83,1
140.00,193.27,1
51.00,200.33,1
207.00,202.71,1
149.00,202.89,1
78.00,201.15,1
574.00,200.45,1
256.00,205.52,1
51.00,211.97,1
47.00,213.13,1
130.00,209.23,1
222.00,203.73,1
45.00,197.93,1
49.00,189.95,1
246.00,180.81,1
561.00,176.97,1
350.00,182.45,1
127.00,192.05,1
344.00,200.84,1
62.00,208.12,1
312.00,213.22,1
125.00,216.75,1
247.00,218.95,1
209.00,220.21,1
85.00,220.08,1
192.00,217.42,1
166.00,213.42,1
79.00,208.31,1
82.00,200.88,1
92.00,191.31,1
41.00,180.26,1
47.00,167.73,1
541.00,158.26,1
265.00,157.30,1
252.00,162.35,1
65.00,167.72,1
399.00,172.70,1
176.00,179.37,1
108.00,185.60,1
222.00,189.26,1
70.00,190.93,1
308.00,191.41,1
304.00,193.63,1
173.00,197.94,1
119.00,201.02,1
75.00,200.68,1
132.00,197.09,1
101.00,191.48,1
92.00,184.36,1
194.00,176.82,1
103.00,170.06,1
120.00,163.58,1
114.00,157.03,1
166.00,151.10,1
64.00,145.81,1
62.00,139.93,1
54.00,132.82,1
166.00,125.80,1
59.00,119.98,1
76.00,114.57,1
164.00,109.77,1
64.00,106.37,1
209.00,104.41,1
76.00,104.09,1
177.00,104.88,1
437.00,109.18,1
106.00,118.41,1
292.00,129.32,1
58.00,139.53,1
57.00,146.50,1
45.00,148.71,1
48.00,147.07,1
107.00,143.01,1
57.00,137.80,1
44.00,131.47,1
209.00,125.24,1
92.00,120.95,1
42.00,117.29,1
36.00,112.37,1
91.00,106.60,1
174.00,101.94,1
302.00,101.16,1
117.00,104.69,1
442.00,112.01,1
90.00,122.89,1
46.00,132.61,1
173.00,138.54,1
76.00,142.34,1
213.00,144.95,1
82.00,146.97,1
162.00,148.09,1
138.00,148.54,1
48.00,147.98,1
166.00,145.97,1
115.00,143.70,1
55.00,140.95,1
120.00,137.05,1
161.00,133.32,1
190.00,131.31,1
197.00,131.55,1
330.00,134.92,1
77.00,140.76,1
240.00,146.54,1
136.00,151.81,1
168.00,156.42,1
168.00,160.03,1
214.00,163.43,1
283.00,167.90,1
68.00,172.76,1
216.00,175.99,1
234.00,178.69,1
168.00,181.87,1
98.00,183.79,1
127.00,183.22,1
85.00,180.33,1
687.00,180.31,1
287.00,188.79,1
191.00,201.03,1
200.00,210.86,1
168.00,217.62,1
41.00,220.31,1
72.00,217.69,1
68.00,210.56,1
46.00,200.22,1
38.00,187.39,1
127.00,173.52,1
147.00,160.86,1
76.00,150.04,1
62.00,139.84,1
46.00,129.48,1
41.00,118.93,1
94.00,108.81,1
68.00,99.98,1
46.00,92.24,1
39.00,84.96,1
96.00,78.43,1
83.00,73.48,1
42.00,69.80,1
44.00,66.44,1
74.00,63.37,1
101.00,61.39,1
118.00,61.11,1
51.00,62.09,1
58.00,63.07,1
100.00,63.95,1
54.00,65.07,1
327.00,68.20,1
158.00,75.49,1
102.00,84.72,1
39.00,92.24,1
197.00,98.03,1
58.00,103.24,1
118.00,107.35,1
123.00,110.37,1
212.00,113.78,1
52.00,117.56,1
60.00,119.64,1
83.00,119.37,1
64.00,117.60,1
78.00,114.74,1
76.00,111.22,1
252.00,108.85,1
216.00,110.07,1
41.00,113.33,1
241.00,116.52,1
221.00,121.26,1
47.00,126.90,1
162.00,130.93,1
127.00,133.78,1
128.00,136.01,1
81.00,137.05,1
112.00,136.63,1
45.00,134.66,1
192.00,131.96,1
137.00,130.24,1
126.00,129.52,1
60.00,128.40,1
38.00,125.65,1
394.00,123.78,1
206.00,126.85,1
48.00,132.04,1
52.00,134.55,1
119.00,134.19,1
62.00,132.38,1
46.00,129.02,1
111.00,124.36,1
154.00,120.20,1
116.00,117.47,1
41.00,115.05,1
122.00,112.04,1
52.00,108.84,1
149.00,105.90,1
234.00,105.00,1
44.00,106.31,1
59.00,106.93,1
119.00,106.20,1
45.00,104.96,1
207.00,103.99,1
50.00,104.02,1
44.00,103.51,1
59.00,101.32,1
45.00,98.01,1
43.00,93.84,1
80.00,89.30,1
89.00,85.32,1
48.00,82.00,1
58.00,78.78,1
44.00,75.43,1
63.00,72.12,1
100.00,69.45,1
135.00,68.44,1
57.00,68.94,1
304.00,71.62,1
189.00,78.43,1
116.00,87.62,1
44.00,95.56,1
119.00,101.09,1
60.00,104.76,1
119.00,107.04,1
92.00,108.45,1
119.00,109.41,1
202.00,110.93,1
97.00,113.58,1
140.00,116.28,1
96.00,118.38,1
120.00,119.80,1
59.00,120.18,1
58.00,118.92,1
107.00,116.33,1
97.00,113.57,1
128.00,111.26,1
110.00,109.66,1
116.00,108.65,1
67.00,107.67,1
126.00,106.48,1
89.00,105.42,1
145.00,104.85,1
42.00,104.42,1
40.00,102.87,1
106.00,100.16,1
119.00,97.87,1
63.00,96.25,1
70.00,94.44,1
48.00,92.02,1
47.00,88.89,1
145.00,85.94,1
114.00,84.61,1
129.00,84.96,1
168.00,86.88,1
157.00,90.65,1
163.00,95.84,1
42.00,100.97,1
46.00,103.91,1
142.00,104.98,1
36.00,105.34,1
283.00,106.26,1
39.00,108.75,1
230.00,111.94,1
96.00,115.60,1
84.00,118.74,1
154.00,120.66,1
96.00,122.15,1
149.00,123.34,1
170.00,124.83,1
64.00,126.40,1
246.00,127.92,1
94.00,130.22,1
44.00,131.61,1
53.00,130.22,1
166.00,127.44,1
48.00,124.69,1
114.00,121.59,1
64.00,117.99,1
59.00,113.85,1
108.00,109.33,1
108.00,105.44,1
67.00,102.24,1
133.00,99.52,1
174.00,98.37,1
34.00,98.51,1
74.00,97.97,1
149.00,97.05,1
159.00,97.55,1
80.00,99.22,1
55.00,100.30,1
56.00,99.83,1
73.00,98.15,1
48.00,95.69,1
54.00,92.50,1
44.00,88.66,1
170.00,85.39,1
87.00,83.96,1
146.00,84.18,1
80.00,85.35,1
151.00,87.20,1
74.00,89.51,1
80.00,91.43,1
102.00,92.65,1
54.00,93.30,1
172.00,93.86,1
127.00,95.53,1
39.00,97.49,1
39.00,97.76,1
94.00,96.48,1
89.00,94.91,1
49.00,93.24,1
174.00,91.87,1
90.00,91.82,1
52.00,92.12,1
45.00,91.26,1
58.00,89.23,1
62.00,86.57,1
40.00,83.52,1
45.00,79.99,1
61.00,76.23,1
86.00,72.95,1
134.00,71.09,1
58.00,70.74,1
66.00,70.75,1
86.00,70.70,1
76.00,70.92,1
83.00,71.39,1
47.00,71.78,1
86.00,71.88,1
64.00,71.91,1
54.00,71.78,1
66.00,71.27,1
124.00,71.08,1
75.00,71.81,1
58.00,72.73,1
77.00,73.23,1
152.00,74.20,1
62.00,76.15,1
40.00,77.72,1
67.00,78.07,1
64.00,77.72,1
65.00,77.04,1
125.00,76.61,1
72.00,76.95,1
36.00,77.18,1
42.00,76.34,1
42.00,74.51,1
72.00,72.30,1
97.00,70.57,1
88.00,69.85,1
92.00,70.01,1
131.00,71.16,1
149.00,73.85,1
165.00,78.36,1
49.00,83.58,1
93.00,87.72,1
89.00,90.64,1
51.00,92.52,1
77.00,93.10,1
51.00,92.57,1
75.00,91.21,1
50.00,89.23,1
42.00,86.56,1
99.00,83.60,1
49.00,80.97,1
103.00,78.77,1
129.00,77.68,1
56.00,77.73,1
38.00,77.51,1
140.00,77.02,1
47.00,77.13,1
44.00,76.96,1
68.00,75.96,1
34.00,74.45,1
36.00,72.27,1
41.00,69.42,1
36.00,66.24,1
52.00,62.99,1
92.00,60.36,1
60.00,58.81,1
62.00,57.96,1
59.00,57.40,1
90.00,57.32,1
58.00,57.82,1
144.00,59.18,1
52.00,61.56,1
48.00,63.77,1
100.00,65.40,1
61.00,67.02,1
101.00,68.71,1
42.00,70.25,1
40.00,70.95,1
93.00,70.91,1
35.00,70.70,1
93.00,70.31,1
41.00,69.86,1
69.00,69.21,1
99.00,68.74,1
58.00,68.79,1
63.00,68.85,1
59.00,68.63,1
74.00,68.30,1
41.00,67.85,1
60.00,67.04,1
58.00,66.02,1
140.00,65.67,1
61.00,66.55,1
39.00,67.51,1
84.00,67.84,1
53.00,68.00,1
49.00,67.85,1
51.00,67.15,1
66.00,66.20,1
101.00,65.63,1
51.00,65.67,1
49.00,65.61,1
64.00,65.15,1
95.00,64.89,1
69.00,65.23,1
84.00,65.95,1
44.00,66.65,1
44.00,66.75,1
118.00,66.69,1
74.00,67.37,1
66.00,68.40,1
161.00,69.97,1
55.00,72.51,1
58.00,74.76,1
103.00,76.27,1
68.00,77.64,1
160.00,79.41,1
43.00,81.70,1
37.00,83.08,1
89.00,83.07,1
108.00,82.99,1
42.00,83.05,1
50.00,82.35,1
55.00,80.72,1
44.00,78.49,1
63.00,75.91,1
134.00,73.95,1
120.00,73.75,1
90.00,74.99,1
38.00,76.25,1
64.00,76.58,1
155.00,76.96,1
115.00,78.74,1
41.00,81.02,1
114.00,82.64,1
268.00,85.58,1
107.00,91.25,1
122.00,97.55,1
54.00,102.45,1
39.00,105.02,1
112.00,105.47,1
71.00,105.08,1
92.00,104.18,1
53.00,102.57,1
118.00,100.58,1
46.00,98.50,1
51.00,95.81,1
161.00,93.16,1
43.00,91.50,1
62.00,89.76,1
96.00,87.65,1
54.00,85.69,1
144.00,84.24,1
42.00,83.54,1
89.00,82.86,1
52.00,81.85,1
65.00,80.51,1
50.00,78.75,1
101.00,77.00,1
41.00,75.55,1
65.00,74.00,1
47.00,72.18,1
39.00,70.03,1
66.00,67.66,1
66.00,65.59,1
35.00,63.76,1
73.00,62.00,1
136.00,61.24,1
94.00,62.29,1
89.00,64.44,1
36.00,66.50,1
46.00,67.56,1
107.00,68.07,1
73.00,68.97,1
41.00,69.80,1
101.00,70.24,1
95.00,71.04,1
70.00,72.30,1
45.00,73.17,1
64.00,73.27,1
38.00,72.66,1
48.00,71.35,1
111.00,70.02,1
127.00,69.99,1
142.00,71.87,1
185.00,75.88,1
68.00,81.22,1
70.00,85.83,1
66.00,88.74,1
50.00,90.09,1
128.00,90.57,1
71.00,91.05,1
87.00,91.36,1
36.00,90.88,1
45.00,89.19,1
187.00,87.54,1
58.00,87.35,1
37.00,87.13,1
127.00,86.22,1
125.00,86.13,1
74.00,86.94,1
77.00,87.57,1
120.00,88.04,1
82.00,88.78,1
52.00,89.18,1
88.00,88.79,1
149.00,88.67,1
39.00,89.18,1
116.00,89.45,1
52.00,89.36,1
40.00,88.49,1
63.00,86.51,1
48.00,83.92,1
64.00,81.02,1
184.00,79.12,1
37.00,78.95,1
119.00,79.33,1
53.00,79.70,1
126.00,80.26,1
58.00,81.02,1
135.00,82.04,1
168.00,84.21,1
108.00,87.86,1
54.00,91.35,1
83.00,93.45,1
49.00,94.17,1
54.00,93.55,1
35.00,91.55,1
48.00,88.42,1
120.00,85.19,1
68.00,82.86,1
156.00,81.77,1
38.00,81.70,1
44.00,81.21,1
145.00,80.40,1
59.00,80.37,1
40.00,80.19,1
55.00,79.00,1
85.00,77.42,1
62.00,76.04,1
127.00,75.25,1
41.00,75.12,1
63.00,74.79,1
114.00,74.38,1
96.00,74.82,1
55.00,75.67,1
38.00,75.83,1
63.00,75.04,1
151.00,74.56,1
44.00,75.12,1
35.00,75.32,1
77.00,74.54,1
79.00,73.71,1
97.00,73.38,1
186.00,74.51,1
131.00,77.88,1
38.00,81.88,1
46.00,84.30,1
69.00,84.99,1
62.00,84.73,1
41.00,83.65,1
78.00,81.89,1
198.00,81.11,1
99.00,82.61,1
63.00,84.82,1
59.00,86.03,1
37.00,85.89,1
74.00,84.65,1
52.00,82.86,1
64.00,80.75,1
303.00,80.48,1
82.00,83.87,1
99.00,88.38,1
243.00,93.22,1
90.00,99.40,1
39.00,104.64,1
125.00,107.56,1
103.00,109.45,1
78.00,110.64,1
336.00,112.81,1
101.00,117.77,1
89.00,122.82,1
71.00,125.50,1
120.00,126.27,1
49.00,125.63,1
46.00,123.16,1
63.00,118.87,1
69.00,113.65,1
71.00,108.17,1
142.00,103.34,1
49.00,99.60,1
92.00,96.20,1
73.00,92.97,1
106.00,90.28,1
64.00,88.14,1
87.00,86.25,1
80.00,84.59,1
194.00,84.18,1
82.00,85.67,1
109.00,87.84,1
66.00,89.61,1
58.00,90.44,1
82.00,90.26,1
81.00,89.64,1
36.00,88.51,1
109.00,86.90,1
44.00,85.26,1
35.00,83.09,1
37.00,79.94,1
55.00,76.24,1
177.00,73.59,1
155.00,73.84,1
94.00,76.42,1
95.00,79.48,1
65.00,82.07,1
80.00,83.84,1
54.00,84.70,1
68.00,84.67,1
169.00,84.82,1
64.00,86.02,1
58.00,87.02,1
37.00,86.67,1
40.00,84.95,1
127.00,82.85,1
119.00,81.96,1
59.00,82.07,1
174.00,82.84,1
100.00,84.91,1
51.00,87.19,1
36.00,88.00,1
67.00,87.27,1
38.00,85.55,1
170.00,83.99,1
48.00,83.57,1
56.00,83.14,1
45.00,81.75,1
102.00,80.04,1
37.00,78.46,1
127.00,77.17,1
67.00,76.60,1
47.00,76.18,1
76.00,75.30,1
67.00,74.34,1
103.00,73.75,1
128.00,74.17,1
130.00,76.09,1
139.00,79.42,1
145.00,83.91,1
176.00,89.59,1
156.00,96.33,1
63.00,102.83,1
112.00,107.62,1
77.00,110.71,1
186.00,113.12,1
347.00,117.79,1
57.00,125.24,1
79.00,131.23,1
117.00,134.20,1
35.00,134.87,1
65.00,133.00,1
75.00,129.17,1
82.00,124.42,1
58.00,119.15,1
54.00,113.28,1
209.00,108.17,1
52.00,105.06,1
127.00,102.86,1
42.00,100.66,1
118.00,98.38,1
54.00,96.14,1
122.00,94.13,1
136.00,93.09,1
71.00,93.06,1
94.00,93.04,1
127.00,93.13,1
41.00,93.34,1
57.00,92.61,1
58.00,90.74,1
236.00,89.70,1
51.00,90.78,1
131.00,92.47,1
44.00,93.65,1
193.00,94.85,1
203.00,97.89,1
96.00,102.74,1
38.00,106.61,1
73.00,108.04,1
122.00,108.06,1
45.00,107.50,1
40.00,105.59,1
59.00,102.14,1
145.00,98.65,1
40.00,95.95,1
159.00,93.90,1
65.00,92.75,1
68.00,91.76,1
39.00,89.93,1
95.00,87.56,1
46.00,85.13,1
64.00,82.54,1
84.00,79.97,1
57.00,77.77,1
192.00,76.75,1
71.00,77.67,1
36.00,78.86,1
111.00,79.25,1
56.00,79.52,1
73.00,79.54,1
71.00,79.17,1
38.00,78.37,1
58.00,76.85,1
64.00,74.96,1
36.00,72.88,1
157.00,71.31,1
114.00,71.60,1
41.00,72.98,1
58.00,73.71,1
88.00,73.85,1
54.00,73.90,1
67.00,73.67,1
60.00,73.10,1
40.00,72.13,1
66.00,70.70,1
81.00,69.37,1
112.00,68.88,1
62.00,69.26,1
62.00,69.72,1
51.00,69.73,1
66.00,69.32,1
92.00,68.99,1
70.00,69.11,1
54.00,69.28,1
44.00,68.95,1
65.00,68.13,1
92.00,67.44,1
74.00,67.37,1
78.00,67.72,1
72.00,68.25,1
90.00,68.97,1
54.00,69.77,1
37.00,70.01,1
66.00,69.48,1
42.00,68.51,1
82.00,67.43,1
93.00,66.85,1
45.00,66.80,1
45.00,66.43,1
49.00,65.48,1
112.00,64.69,1
165.00,65.59,1
142.00,68.93,1
62.00,73.45,1
89.00,77.39,1
78.00,80.45,1
92.00,82.89,1
46.00,84.55,1
48.00,84.91,1
105.00,84.42,1
152.00,84.64,1
155.00,86.73,1
128.00,90.34,1
64.00,94.03,1
66.00,96.36,1
95.00,97.35,1
127.00,98.04,1
78.00,98.86,1
82.00,99.23,1
77.00,98.85,1
48.00,97.64,1
50.00,95.31,1
64.00,92.13,1
36.00,88.42,1
56.00,84.27,1
65.00,80.09,1
104.00,76.66,1
45.00,74.15,1
76.00,72.02,1
51.00,70.08,1
44.00,68.11,1
40.00,65.84,1
58.00,63.44,1
167.00,62.19,1
106.00,63.32,1
37.00,65.55,1
127.00,67.61,1
49.00,69.76,1
74.00,71.55,1
37.00,72.48,1
119.00,72.99,1
82.00,73.92,1
36.00,74.83,1
108.00,75.20,1
110.00,75.99,1
38.00,77.11,1
114.00,77.89,1
79.00,78.76,1
60.00,79.56,1
87.00,79.91,1
47.00,79.84,1
57.00,79.12,1
54.00,77.73,1
57.00,75.93,1
133.00,74.54,1
189.00,75.26,1
134.00,78.68,1
85.00,83.16,1
54.00,86.77,1
90.00,88.97,1
56.00,90.08,1
53.00,90.05,1
106.00,89.25,1
44.00,88.24,1
37.00,86.46,1
63.00,83.73,1
115.00,81.19,1
51.00,79.41,1
44.00,77.60,1
57.00,75.26,1
85.00,73.00,1
65.00,71.29,1
119.00,70.41,1
83.00,70.60,1
135.00,71.91,1
60.00,73.95,1
89.00,75.89,1
179.00,78.33,1
162.00,82.64,1
100.00,88.20,1
65.00,93.05,1
127.00,96.60,1
135.00,99.86,1
47.00,102.70,1
105.00,104.22,1
74.00,104.64,1
125.00,104.63,1
173.00,105.27,1
45.00,106.56,1
46.00,106.55,1
51.00,104.57,1
48.00,101.19,1
116.00,97.45,1
90.00,94.44,1
50.00,91.89,1
47.00,88.87,1
39.00,85.13,1
81.00,81.17,1
67.00,77.70,1
52.00,74.69,1
106.00,72.23,1
63.00,70.68,1
45.00,69.45,1
58.00,67.96,1
44.00,66.28,1
217.00,65.81,1
72.00,67.86,1
69.00,70.74,1
163.00,73.67,1
51.00,77.17,1
53.00,79.90,1
111.00,81.54,1
86.00,83.08,1
126.00,84.88,1
62.00,86.75,1
54.00,87.81,1
72.00,87.70,1
127.00,87.41,1
58.00,87.48,1
41.00,86.98,1
45.00,85.24,1
153.00,83.45,1
49.00,82.63,1
99.00,82.18,1
128.00,82.23,1
62.00,83.00,1
59.00,83.41,1
39.00,82.76,1
35.00,80.96,1
106.00,78.69,1
53.00,76.84,1
58.00,75.13,1
44.00,73.11,1
46.00,70.73,1
87.00,68.44,1
45.00,66.62,1
46.00,64.88,1
142.00,63.72,1
38.00,63.77,1
50.00,63.92,1
69.00,63.63,1
50.00,63.27,1
114.00,63.25,1
68.00,64.01,1
68.00,65.11,1
89.00,66.21,1
107.00,67.79,1
68.00,69.81,1
170.00,72.46,1
54.00,75.91,1
46.00,78.70,1
106.00,80.29,1
132.00,82.09,1
74.00,84.41,1
54.00,86.14,1
65.00,86.63,1
54.00,86.11,1
89.00,85.03,1
48.00,83.70,1
41.00,81.80,1
37.00,79.03,1
94.00,76.03,1
140.00,74.25,1
151.00,74.78,1
196.00,78.00,1
96.00,83.16,1
70.00,88.12,1
88.00,91.65,1
88.00,94.06,1
62.00,95.47,1
179.00,96.62,1
95.00,98.57,1
42.00,100.18,1
60.00,100.08,1
44.00,98.37,1
105.00,95.90,1
69.00,93.53,1
72.00,91.24,1
60.00,88.73,1
61.00,85.98,1
39.00,82.86,1
66.00,79.44,1
39.00,75.94,1
51.00,72.38,1
134.00,69.55,1
90.00,68.48,1
85.00,68.72,1
110.00,69.70,1
62.00,71.17,1
41.00,72.21,1
92.00,72.55,1
40.00,72.60,1
138.00,72.81,1
77.00,73.81,1
39.00,74.87,1
222.00,76.32,1
49.00,79.31,1
68.00,82.17,1
94.00,83.93,1
88.00,85.34,1
65.00,86.35,1
121.00,87.07,1
44.00,87.63,1
100.00,87.71,1
81.00,87.56,1
45.00,87.07,1
50.00,85.64,1
41.00,83.25,1
54.00,80.21,1
60.00,76.96,1
50.00,73.80,1
119.00,71.26,1
144.00,70.58,1
103.00,71.96,1
91.00,74.29,1
161.00,77.29,1
65.00,80.98,1
159.00,84.84,1
70.00,88.71,1
91.00,91.94,1
205.00,95.14,1
107.00,99.46,1
82.00,103.60,1
119.00,106.54,1
55.00,108.34,1
36.00,108.31,1
158.00,107.07,1
255.00,107.62,1
51.00,110.43,1
57.00,112.34,1
61.00,111.94,1
88.00,110.13,1
57.00,107.55,1
93.00,104.45,1
55.00,101.12,1
271.00,99.15,1
52.00,99.75,1
78.00,100.66,1
81.00,100.40,1
163.00,100.23,1
70.00,100.73,1
59.00,100.77,1
39.00,99.34,1
89.00,96.83,1
52.00,93.94,1
70.00,90.81,1
186.00,88.55,1
75.00,88.21,1
37.00,88.11,1
84.00,87.04,1
43.00,85.39,1
135.00,83.84,1
115.00,83.43,1
41.00,83.72,1
120.00,83.80,1
38.00,83.72,1
38.00,82.83,1
112.00,81.29,1
146.00,80.81,1
55.00,81.57,1
100.00,82.40,1
47.00,82.80,1
38.00,82.27,1
40.00,80.51,1
36.00,77.77,1
42.00,74.39,1
120.00,71.35,1
100.00,69.83,1
56.00,69.48,1
61.00,69.18,1
106.00,69.00,1
110.00,69.76,1
71.00,71.34,1
47.00,72.64,1
142.00,73.77,1
130.00,76.03,1
103.00,79.41,1
71.00,82.73,1
105.00,85.40,1
122.00,87.95,1
36.00,90.15,1
77.00,91.08,1
122.00,91.35,1
127.00,92.24,1
83.00,93.67,1
99.00,94.90,1
60.00,95.52,1
55.00,95.08,1
58.00,93.48,1
139.00,91.73,1
60.00,90.65,1
80.00,89.63,1
66.00,88.26,1
35.00,86.33,1
73.00,83.74,1
81.00,81.18,1
127.00,79.54,1
80.00,79.10,1
86.00,79.24,1
305.00,81.32,1
66.00,86.54,1
47.00,91.65,1
132.00,94.91,1
59.00,97.31,1
158.00,99.28,1
54.00,101.05,1
57.00,101.71,1
52.00,100.66,1
38.00,98.18,1
144.00,95.29,1
124.00,93.67,1
52.00,93.02,1
110.00,92.24,1
115.00,91.80,1
77.00,91.88,1
53.00,91.57,1
39.00,90.11,1
76.00,87.74,1
197.00,86.24,1
66.00,86.71,1
202.00,88.60,1
41.00,91.33,1
81.00,93.41,1
63.00,94.09,1
90.00,93.96,1
61.00,93.25,1
44.00,91.75,1
118.00,89.78,1
104.00,88.49,1
37.00,87.59,1
63.00,86.00,1
90.00,84.04,1
66.00,82.33,1
70.00,80.72,1
81.00,79.19,1
110.00,78.25,1
64.00,77.97,1
102.00,77.99,1
48.00,78.05,1
84.00,77.83,1
53.00,77.32,1
48.00,76.34,1
58.00,74.78,1
43.00,72.82,1
71.00,70.71,1
59.00,68.77,1
40.00,66.93,1
211.00,66.20,1
56.00,67.76,1
55.00,69.82,1
57.00,70.93,1
128.00,71.88,1
53.00,73.26,1
54.00,74.26,1
113.00,74.83,1
179.00,76.59,1
136.00,80.43,1
120.00,85.44,1
67.00,90.08,1
75.00,93.34,1
120.00,95.50,1
48.00,96.99,1
142.00,97.88,1
65.00,98.59,1
47.00,98.51,1
80.00,97.15,1
134.00,95.73,1
104.00,95.22,1
35.00,94.80,1
42.00,93.13,1
85.00,90.46,1
54.00,87.63,1
135.00,85.29,1
78.00,84.03,1
72.00,83.29,1
127.00,82.87,1
42.00,82.85,1
97.00,82.64,1
86.00,82.41,1
73.00,82.33,1
37.00,81.78,1
161.00,81.20,1
107.00,81.93,1
39.00,83.20,1
83.00,83.63,1
102.00,83.73,1
65.00,83.94,1
67.00,83.80,1
96.00,83.36,1
42.00,82.75,1
77.00,81.68,1
79.00,80.44,1
65.00,79.31,1
174.00,78.99,1
45.00,79.95,1
63.00,80.73,1
107.00,80.95,1
60.00,81.22,1
86.00,81.34,1
45.00,81.02,1
43.00,79.92,1
75.00,78.13,1
64.00,76.31,1
44.00,74.45,1
46.00,72.20,1
123.00,70.25,1
48.00,69.24,1
147.00,69.22,1
126.00,70.79,1
46.00,73.32,1
84.00,75.32,1
167.00,77.50,1
65.00,80.59,1
79.00,83.39,1
102.00,85.44,1
71.00,87.10,1
73.00,88.09,1
130.00,88.79,1
142.00,90.34,1
48.00,92.36,1
88.00,93.53,1
34.00,93.45,1
68.00,92.13,1
38.00,89.80,1
70.00,86.82,1
46.00,83.53,1
64.00,80.13,1
44.00,76.69,1
103.00,73.64,1
36.00,71.27,1
48.00,68.94,1
93.00,66.75,1
38.00,65.13,1
45.00,63.51,1
112.00,62.17,1
92.00,62.08,1
50.00,62.82,1
78.00,63.54,1
101.00,64.53,1
38.00,65.77,1
90.00,66.75,1
83.00,67.77,1
89.00,69.16,1
62.00,70.60,1
44.00,71.48,1
124.00,72.06,1
94.00,73.30,1
39.00,74.73,1
45.00,75.13,1
60.00,74.52,1
157.00,74.26,1
58.00,75.17,1
160.00,76.95,1
42.00,79.24,1
35.00,80.68,1
47.00,80.41,1
88.00,79.33,1
99.00,78.55,1
45.00,78.10,1
40.00,77.06,1
79.00,75.41,1
71.00,73.89,1
70.00,72.69,1
136.00,72.25,1
115.00,73.32,1
40.00,75.06,1
132.00,76.60,1
98.00,78.57,1
40.00,80.52,1
138.00,81.94,1
108.00,83.82,1
97.00,86.21,1
171.00,89.10,1
94.00,92.76,1
60.00,95.94,1
67.00,97.49,1
55.00,97.50,1
64.00,96.27,1
35.00,93.92,1
84.00,90.84,1
93.00,87.94,1
46.00,85.44,1
123.00,83.26,1
49.00,81.67,1
58.00,80.07,1
49.00,77.98,1
48.00,75.49,1
64.00,72.83,1
65.00,70.40,1
66.00,68.36,1
177.00,67.65,1
64.00,68.91,1
40.00,70.44,1
68.00,71.04,1
50.00,71.00,1
57.00,70.49,1
92.00,69.88,1
91.00,69.85,1
70.00,70.37,1
104.00,71.21,1
45.00,72.16,1
118.00,73.08,1
40.00,74.01,1
41.00,74.25,1
51.00,73.41,1
64.00,72.06,1
36.00,70.43,1
53.00,68.42,1
71.00,66.39,1
36.00,64.56,1
34.00,62.50,1
186.00,61.26,1
39.00,61.97,1
88.00,63.38,1
47.00,64.51,1
73.00,65.35,1
62.00,65.93,1
94.00,66.60,1
51.00,67.40,1
99.00,68.21,1
93.00,69.41,1
52.00,70.81,1
94.00,71.94,1
86.00,73.12,1
114.00,74.74,1
188.00,77.66,1
93.00,82.15,1
119.00,86.91,1
104.00,91.26,1
41.00,94.59,1
66.00,96.07,1
65.00,95.98,1
90.00,95.09,1
116.00,94.26,1
35.00,93.47,1
41.00,91.65,1
47.00,88.58,1
78.00,85.08,1
65.00,81.83,1
53.00,78.80,1
41.00,75.65,1
41.00,72.20,1
102.00,69.05,1
88.00,67.13,1
128.00,66.82,1
41.00,67.55,1
103.00,68.47,1
69.00,69.51,1
59.00,70.49,1
47.00,70.83,1
54.00,70.47,1
134.00,70.25,1
57.00,70.89,1
77.00,71.73,1
99.00,72.56,1
49.00,73.46,1
46.00,73.74,1
66.00,73.21,1
37.00,72.16,1
100.00,70.96,1
43.00,70.02,1
118.00,69.49,1
104.00,69.97,1
58.00,71.19,1
124.00,72.62,1
59.00,74.32,1
49.00,75.56,1
43.00,75.64,1
78.00,74.96,1
82.00,74.29,1
90.00,74.07,1
82.00,74.31,1
57.00,74.60,1
51.00,74.38,1
38.00,73.38,1
61.00,71.75,1
141.00,70.63,1
104.00,71.15,1
73.00,72.69,1
103.00,74.38,1
126.00,76.55,1
158.00,79.92,1
73.00,84.11,1
68.00,87.59,1
36.00,89.36,1
128.00,89.95,1
65.00,90.37,1
58.00,90.32,1
76.00,89.40,1
37.00,87.79,1
47.00,85.28,1
38.00,81.94,1
36.00,78.00,1
117.00,74.30,1
62.00,71.79,1
39.00,69.82,1
76.00,67.80,1
90.00,66.35,1
83.00,65.87,1
108.00,66.33,1
88.00,67.69,1
54.00,69.28,1
97.00,70.62,1
35.00,71.65,1
40.00,71.77,1
66.00,71.00,1
57.00,69.95,1
70.00,68.91,1
53.00,67.90,1
124.00,67.37,1
90.00,67.98,1
101.00,69.57,1
74.00,71.50,1
69.00,73.24,1
39.00,74.21,1
99.00,74.53,1
127.00,75.32,1
83.00,77.04,1
39.00,78.55,1
65.00,78.97,1
41.00,78.41,1
48.00,76.99,1
45.00,74.88,1
106.00,72.81,1
68.00,71.52,1
40.00,70.51,1
55.00,69.09,1
117.00,67.93,1
35.00,67.48,1
150.00,67.70,1
89.00,69.13,1
39.00,70.97,1
38.00,71.72,1
78.00,71.51,1
43.00,70.94,1
54.00,69.97,1
130.00,69.24,1
56.00,69.46,1
68.00,69.90,1
69.00,70.08,1
87.00,70.32,1
111.00,71.10,1
125.00,72.93,1
41.00,75.23,1
57.00,76.67,1
44.00,76.87,1
53.00,76.11,1
49.00,74.66,1
76.00,72.97,1
59.00,71.42,1
106.00,70.36,1
38.00,69.78,1
97.00,69.34,1
40.00,68.97,1
55.00,68.31,1
120.00,67.79,1
84.00,68.29,1
64.00,69.33,1
65.00,70.11,1
47.00,70.38,1
99.00,70.39,1
119.00,71.07,1
77.00,72.68,1
66.00,74.30,1
108.00,75.70,1
71.00,77.17,1
126.00,78.85,1
60.00,80.69,1
65.00,81.99,1
50.00,82.24,1
83.00,81.76,1
162.00,81.82,1
45.00,82.89,1
84.00,83.75,1
86.00,84.10,1
108.00,84.59,1
38.00,84.98,1
52.00,84.42,1
42.00,82.72,1
36.00,80.10,1
141.00,77.57,1
43.00,76.07,1
65.00,74.83,1
91.00,73.60,1
67.00,72.82,1
50.00,72.10,1
182.00,72.05,1
54.00,73.51,1
92.00,75.34,1
60.00,76.71,1
64.00,77.49,1
61.00,77.58,1
58.00,77.09,1
128.00,76.69,1
75.00,77.06,1
46.00,77.48,1
63.00,77.12,1
161.00,77.06,1
128.00,78.72,1
59.00,81.33,1
64.00,83.18,1
38.00,83.67,1
85.00,83.14,1
41.00,82.04,1
102.00,80.71,1
44.00,79.42,1
47.00,77.77,1
45.00,75.46,1
113.00,73.27,1
67.00,71.98,1
52.00,71.09,1
141.00,70.65,1
44.00,71.11,1
87.00,71.72,1
112.00,72.54,1
35.00,73.63,1
57.00,74.00,1
78.00,73.69,1
137.00,73.92,1
116.00,75.53,1
130.00,78.40,1
108.00,81.98,1
52.00,85.29,1
68.00,87.29,1
68.00,88.04,1
41.00,87.74,1
51.00,86.25,1
46.00,83.81,1
38.00,80.69,1
83.00,77.33,1
50.00,74.33,1
116.00,72.06,1
89.00,71.02,1
68.00,70.87,1
36.00,70.57,1
100.00,70.00,1
46.00,69.58,1
36.00,68.84,1
127.00,68.03,1
43.00,67.91,1
47.00,67.73,1
73.00,67.09,1
56.00,66.44,1
98.00,66.09,1
42.00,66.08,1
43.00,65.74,1
58.00,64.83,1
84.00,64.00,1
85.00,63.83,1
168.00,65.09,1
80.00,68.04,1
47.00,71.14,1
69.00,73.15,1
70.00,74.36,1
38.00,74.86,1
132.00,75.07,1
52.00,75.68,1
48.00,75.98,1
54.00,75.37,1
130.00,74.78,1
79.00,75.11,1
77.00,75.90,1
38.00,76.22,1
48.00,75.60,1
39.00,74.05,1
60.00,71.95,1
107.00,70.18,1
36.00,69.07,1
76.00,68.06,1
35.00,66.87,1
76.00,65.60,1
44.00,64.37,1
53.00,63.10,1
64.00,61.82,1
55.00,60.75,1
108.00,60.26,1
116.00,61.09,1
172.00,63.98,1
74.00,68.48,1
46.00,72.66,1
57.00,75.26,1
94.00,76.85,1
38.00,77.85,1
158.00,78.75,1
158.00,81.07,1
126.00,85.14,1
63.00,89.32,1
118.00,92.61,1
40.00,94.83,1
61.00,95.53,1
51.00,94.64,1
39.00,92.49,1
100.00,89.69,1
87.00,87.28,1
123.00,85.85,1
42.00,85.03,1
61.00,83.80,1
81.00,82.12,1
72.00,80.57,1
50.00,78.99,1
92.00,77.36,1
48.00,75.90,1
61.00,74.33,1
41.00,72.42,1
126.00,70.80,1
97.00,70.46,1
65.00,71.06,1
45.00,71.41,1
59.00,71.08,1
52.00,70.25,1
69.00,69.22,1
63.00,68.23,1
85.00,67.54,1
64.00,67.24,1
101.00,67.39,1
44.00,67.83,1
74.00,68.10,1
59.00,68.12,1
57.00,67.95,1
104.00,67.86,1
44.00,68.10,1
85.00,68.32,1
120.00,68.99,1
44.00,70.27,1
52.00,71.06,1
58.00,71.01,1
140.00,71.18,1
35.00,72.04,1
110.00,72.95,1
68.00,73.91,1
70.00,74.80,1
48.00,75.12,1
78.00,74.90,1
47.00,74.33,1
40.00,73.18,1
163.00,72.28,1
64.00,72.78,1
108.00,74.05,1
84.00,75.58,1
112.00,77.45,1
110.00,79.76,1
67.00,82.18,1
60.00,83.82,1
57.00,84.31,1
39.00,83.64,1
56.00,81.95,1
154.00,80.48,1
61.00,80.23,1
41.00,80.01,1
84.00,79.07,1
116.00,78.43,1
45.00,78.34,1
50.00,77.79,1
74.00,76.61,1
37.00,75.12,1
101.00,73.57,1
171.00,73.34,1
36.00,74.74,1
70.00,75.91,1
156.00,77.04,1
57.00,79.00,1
50.00,80.52,1
119.00,81.29,1
36.00,81.87,1
122.00,82.18,1
67.00,82.58,1
77.00,82.90,1
71.00,82.81,1
70.00,82.40,1
64.00,81.63,1
147.00,81.20,1
45.00,81.53,1
53.00,81.47,1
82.00,80.66,1
67.00,79.72,1
54.00,78.61,1
59.00,77.09,1
38.00,75.12,1
42.00,72.60,1
48.00,69.68,1
93.00,67.07,1
72.00,65.40,1
86.00,64.65,1
56.00,64.43,1
34.00,64.04,1
50.00,63.06,1
74.00,61.96,1
35.00,60.99,1
60.00,59.92,1
43.00,58.76,1
37.00,57.46,1
121.00,56.53,1
72.00,56.85,1
151.00,58.67,1
85.00,61.90,1
37.00,65.27,1
76.00,67.62,1
90.00,69.47,1
82.00,71.38,1
84.00,73.26,1
60.00,74.83,1
85.00,75.94,1
83.00,76.86,1
56.00,77.55,1
41.00,77.47,1
74.00,76.58,1
84.00,75.63,1
36.00,74.70,1
59.00,73.30,1
67.00,71.63,1
82.00,70.27,1
126.00,69.86,1
41.00,70.35,1
78.00,70.75,1
71.00,70.93,1
94.00,71.32,1
45.00,71.77,1
60.00,71.75,1
44.00,71.09,1
80.00,70.12,1
48.00,69.14,1
53.00,68.01,1
115.00,67.12,1
64.00,67.09,1
55.00,67.32,1
77.00,67.35,1
39.00,67.19,1
123.00,67.15,1
98.00,68.07,1
44.00,69.52,1
58.00,70.33,1
76.00,70.58,1
42.00,70.51,1
98.00,70.26,1
83.00,70.41,1
73.00,70.98,1
150.00,72.20,1
86.00,74.55,1
70.00,77.12,1
138.00,79.53,1
40.00,81.93,1
150.00,84.09,1
103.00,86.60,1
262.00,90.79,1
78.00,96.78,1
185.00,103.13,1
48.00,108.64,1
59.00,112.03,1
270.00,114.51,1
66.00,118.10,1
84.00,120.94,1
53.00,121.47,1
39.00,119.74,1
44.00,115.87,1
91.00,110.90,1
123.00,106.34,1
72.00,102.74,1
166.00,100.19,1
264.00,100.48,1
89.00,103.87,1
79.00,107.32,1
66.00,108.98,1
110.00,109.29,1
46.00,108.64,1
65.00,106.75,1
56.00,103.70,1
147.00,100.63,1
100.00,98.70,1
64.00,97.36,1
69.00,95.58,1
44.00,93.09,1
139.00,90.56,1
44.00,88.68,1
63.00,86.71,1
241.00,85.75,1
108.00,87.58,1
178.00,91.34,1
41.00,95.36,1
82.00,98.08,1
93.00,99.35,1
70.00,99.83,1
55.00,99.27,1
71.00,97.63,1
64.00,95.30,1
36.00,92.32,1
44.00,88.47,1
142.00,84.82,1
50.00,82.37,1
73.00,80.39,1
44.00,78.21,1
75.00,75.91,1
121.00,74.27,1
58.00,73.66,1
82.00,73.40,1
111.00,73.53,1
39.00,74.03,1
93.00,74.29,1
127.00,74.95,1
40.00,76.18,1
119.00,77.29,1
112.00,78.81,1
130.00,81.30,1
67.00,84.13,1
71.00,86.26,1
47.00,87.13,1
65.00,86.82,1
126.00,86.21,1
67.00,86.07,1
73.00,85.88,1
86.00,85.36,1
90.00,84.91,1
108.00,84.86,1
132.00,85.63,1
66.00,87.01,1
68.00,87.92,1
42.00,87.73,1
46.00,86.31,1
41.00,83.81,1
64.00,80.72,1
94.00,77.88,1
72.00,75.82,1
108.00,74.61,1
124.00,74.63,1
69.00,75.71,1
105.00,77.06,1
137.00,78.99,1
57.00,81.45,1
63.00,83.22,1
127.00,84.37,1
121.00,86.08,1
76.00,88.23,1
67.00,89.76,1
122.00,90.69,1
36.00,91.26,1
62.00,90.79,1
76.00,89.38,1
66.00,87.67,1
92.00,85.94,1
86.00,84.57,1
84.00,83.61,1
78.00,82.86,1
64.00,82.07,1
138.00,81.60,1
87.00,82.07,1
65.00,82.84,1
36.00,82.77,1
108.00,82.01,1
48.00,81.19,1
44.00,79.94,1
44.00,77.81,1
55.00,75.16,1
71.00,72.52,1
34.00,70.03,1
56.00,67.42,1
69.00,64.99,1
40.00,62.93,1
44.00,60.88,1
76.00,58.99,1
45.00,57.61,1
172.00,57.45,1
87.00,59.36,1
97.00,62.53,1
196.00,66.82,1
112.00,72.85,1
80.00,79.15,1
73.00,84.18,1
63.00,87.59,1
36.00,89.21,1
46.00,88.99,1
66.00,87.47,1
83.00,85.58,1
45.00,83.60,1
56.00,81.23,1
127.00,79.09,1
73.00,78.02,1
98.00,77.69,1
102.00,77.94,1
49.00,78.46,1
46.00,78.29,1
47.00,77.12,1
44.00,75.21,1
80.00,73.04,1
42.00,71.00,1
42.00,68.82,1
36.00,66.21,1
55.00,63.44,1
74.00,61.06,1
84.00,59.61,1
84.00,59.24,1
54.00,59.53,1
133.00,60.48,1
72.00,62.45,1
80.00,64.83,1
94.00,67.20,1
211.00,70.75,1
86.00,76.10,1
155.00,82.12,1
183.00,88.77,1
77.00,95.83,1
35.00,101.09,1
68.00,103.50,1
42.00,103.65,1
46.00,101.95,1
72.00,98.99,1
36.00,95.33,1
38.00,90.87,1
43.00,85.77,1
39.00,80.39,1
127.00,75.70,1
38.00,72.37,1
127.00,70.18,1
69.00,69.17,1
58.00,68.80,1
153.00,69.03,1
142.00,71.09,1
106.00,74.82,1
92.00,78.87,1
104.00,82.60,1
55.00,85.63,1
69.00,87.44,1
40.00,87.85,1
127.00,87.53,1
110.00,87.73,1
84.00,88.55,1
58.00,89.02,1
78.00,88.73,1
51.00,87.76,1
82.00,86.28,1
152.00,85.34,1
68.00,85.56,1
46.00,85.65,1
48.00,84.60,1
37.00,82.48,1
34.00,79.43,1
51.00,75.77,1
102.00,72.45,1
73.00,70.24,1
65.00,68.83,1
108.00,68.05,1
106.00,68.41,1
56.00,69.54,1
41.00,70.23,1
68.00,70.14,1
54.00,69.66,1
127.00,69.49,1
98.00,70.43,1
146.00,72.70,1
207.00,76.99,1
66.00,82.88,1
45.00,87.80,1
55.00,90.35,1
174.00,92.02,1
120.00,94.58,1
46.00,97.20,1
38.00,98.04,1
75.00,97.06,1
56.00,95.11,1
92.00,92.79,1
81.00,90.61,1
73.00,88.66,1
40.00,86.45,1
49.00,83.58,1
61.00,80.27,1
89.00,77.24,1
131.00,75.45,1
62.00,75.00,1
67.00,74.85,1
69.00,74.45,1
47.00,73.76,1
96.00,72.94,1
57.00,72.35,1
65.00,71.78,1
73.00,71.12,1
149.00,71.25,1
190.00,73.64,1
47.00,77.79,1
75.00,81.35,1
66.00,83.53,1
123.00,85.16,1
49.00,86.57,1
76.00,87.23,1
131.00,87.59,1
205.00,89.48,1
62.00,92.93,1
42.00,95.54,1
40.00,95.90,1
98.00,94.81,1
132.00,93.90,1
122.00,94.10,1
68.00,94.81,1
103.00,95.21,1
39.00,94.95,1
68.00,93.67,1
44.00,91.39,1
42.00,88.28,1
75.00,84.68,1
62.00,81.24,1
81.00,78.25,1
103.00,76.09,1
184.00,75.83,1
125.00,78.04,1
195.00,82.35,1
76.00,87.80,1
92.00,92.66,1
51.00,95.88,1
135.00,97.86,1
83.00,99.47,1
71.00,100.48,1
166.00,101.15,1
64.00,102.18,1
158.00,103.32,1
188.00,105.47,1
110.00,108.97,1
58.00,111.88,1
85.00,112.94,1
56.00,112.34,1
83.00,110.48,1
59.00,107.74,1
127.00,104.79,1
58.00,102.15,1
101.00,99.61,1
42.00,96.88,1
121.00,94.12,1
43.00,91.62,1
124.00,89.43,1
86.00,87.92,1
64.00,86.84,1
76.00,85.55,1
90.00,84.26,1
121.00,83.62,1
68.00,83.67,1
61.00,83.58,1
75.00,82.94,1
84.00,82.14,1
52.00,81.26,1
39.00,79.78,1
65.00,77.62,1
53.00,75.25,1
73.00,72.97,1
56.00,70.94,1
76.00,69.20,1
151.00,68.57,1
100.00,69.79,1
89.00,72.06,1
60.00,74.20,1
52.00,75.52,1
44.00,75.73,1
61.00,75.05,1
36.00,73.72,1
70.00,71.93,1
115.00,70.60,1
40.00,70.07,1
65.00,69.50,1
44.00,68.54,1
227.00,68.69,1
68.00,71.24,1
80.00,74.50,1
174.00,77.83,1
110.00,82.26,1
36.00,86.46,1
62.00,88.83,1
112.00,89.92,1
144.00,91.35,1
78.00,93.36,1
62.00,94.80,1
81.00,95.10,1
70.00,94.61,1
39.00,93.26,1
45.00,90.72,1
82.00,87.53,1
122.00,84.95,1
63.00,83.40,1
93.00,82.28,1
39.00,81.09,1
149.00,80.15,1
65.00,80.11,1
120.00,80.74,1
56.00,81.52,1
148.00,82.57,1
61.00,84.05,1
119.00,85.61,1
40.00,86.76,1
39.00,86.75,1
113.00,85.78,1
81.00,85.06,1
50.00,84.39,1
94.00,83.36,1
50.00,82.20,1
57.00,80.68,1
82.00,78.88,1
94.00,77.52,1
74.00,76.76,1
66.00,76.19,1
97.00,75.75,1
111.00,75.97,1
49.00,76.67,1
36.00,76.69,1
75.00,75.79,1
36.00,74.42,1
52.00,72.57,1
45.00,70.30,1
54.00,67.86,1
64.00,65.56,1
49.00,63.56,1
56.00,61.74,1
41.00,59.98,1
53.00,58.24,1
98.00,57.01,1
38.00,56.57,1
84.00,56.50,1
45.00,56.66,1
178.00,57.82,1
40.00,60.45,1
44.00,62.94,1
74.00,64.43,1
64.00,65.54,1
123.00,66.91,1
56.00,68.76,1
113.00,70.78,1
135.00,73.42,1
69.00,76.72,1
72.00,79.55,1
46.00,81.21,1
46.00,81.53,1
51.00,80.63,1
48.00,78.89,1
38.00,76.48,1
37.00,73.45,1
123.00,70.66,1
58.00,69.03,1
58.00,67.96,1
76.00,66.97,1
57.00,66.21,1
73.00,65.61,1
51.00,65.09,1
44.00,64.36,1
96.00,63.61,1
114.00,63.84,1
96.00,65.38,1
55.00,67.38,1
50.00,68.79,1
65.00,69.40,1
224.00,70.90,1
70.00,74.54,1
118.00,78.85,1
76.00,82.67,1
58.00,85.55,1
204.00,88.18,1
95.00,91.91,1
143.00,96.15,1
141.00,100.52,1
41.00,104.37,1
40.00,106.02,1
77.00,105.42,1
57.00,103.54,1
94.00,101.04,1
89.00,98.56,1
50.00,96.07,1
84.00,93.26,1
121.00,90.84,1
65.00,89.23,1
48.00,87.54,1
37.00,84.98,1
39.00,81.56,1
132.00,78.29,1
54.00,76.18,1
77.00,74.68,1
107.00,73.68,1
105.00,73.76,1
115.00,74.95,1
88.00,76.87,1
79.00,78.86,1
38.00,80.10,1
41.00,80.02,1
65.00,78.83,1
38.00,77.04,1
83.00,74.98,1
66.00,73.16,1
67.00,71.69,1
50.00,70.27,1
44.00,68.61,1
69.00,66.78,1
141.00,65.88,1
165.00,67.28,1
57.00,70.50,1
48.00,73.32,1
44.00,74.66,1
36.00,74.62,1
109.00,73.97,1
38.00,73.45,1
46.00,72.52,1
72.00,71.09,1
83.00,69.91,1
40.00,69.00,1
74.00,67.98,1
89.00,67.24,1
78.00,67.20,1
87.00,67.69,1
78.00,68.56,1
111.00,69.89,1
101.00,71.92,1
86.00,74.38,1
56.00,76.51,1
71.00,77.82,1
40.00,78.21,1
75.00,77.78,1
62.00,76.96,1
67.00,75.99,1
55.00,74.81,1
38.00,73.21,1
42.00,70.99,1
86.00,68.68,1
50.00,66.83,1
53.00,65.19,1
46.00,63.46,1
156.00,62.54,1
50.00,63.15,1
46.00,64.02,1
46.00,64.12,1
41.00,63.55,1
52.00,62.51,1
47.00,61.24,1
66.00,59.99,1
107.00,59.43,1
146.00,60.55,1
125.00,63.78,1
116.00,68.36,1
54.00,72.98,1
65.00,76.46,1
77.00,78.74,1
52.00,80.10,1
64.00,80.49,1
67.00,80.17,1
80.00,79.57,1
66.00,78.91,1
46.00,77.92,1
85.00,76.61,1
51.00,75.28,1
45.00,73.69,1
47.00,71.60,1
127.00,69.84,1
143.00,69.87,1
38.00,71.32,1
91.00,72.62,1
82.00,73.70,1
103.00,75.05,1
119.00,76.98,1
115.00,79.67,1
76.00,82.59,1
207.00,86.02,1
87.00,90.55,1
111.00,95.07,1
94.00,98.69,1
40.00,100.98,1
76.00,101.45,1
84.00,100.74,1
61.00,99.38,1
175.00,98.21,1
90.00,98.21,1
191.00,99.51,1
121.00,102.09,1
63.00,104.77,1
242.00,107.39,1
183.00,111.88,1
67.00,117.17,1
139.00,121.08,1
170.00,124.31,1
156.00,127.90,1
40.00,130.72,1
164.00,131.82,1
111.00,132.26,1
52.00,131.83,1
79.00,129.58,1
44.00,125.70,1
37.00,120.26,1
56.00,113.60,1
185.00,107.54,1
145.00,104.11,1
139.00,103.12,1
46.00,102.84,1
162.00,102.47,1
122.00,102.87,1
261.00,105.31,1
76.00,109.64,1
75.00,113.34,1
190.00,115.83,1
90.00,118.40,1
130.00,120.57,1
119.00,122.11,1
109.00,123.18,1
38.00,123.02,1
52.00,120.79,1
95.00,117.07,1
37.00,112.67,1
45.00,107.37,1
60.00,101.34,1
38.00,95.08,1
59.00,88.79,1
161.00,83.70,1
35.00,80.52,1
127.00,78.41,1
77.00,77.23,1
156.00,77.41,1
90.00,78.96,1
51.00,80.72,1
136.00,82.10,1
303.00,85.62,1
154.00,92.84,1
165.00,101.65,1
127.00,110.05,1
48.00,116.65,1
143.00,120.83,1
100.00,123.59,1
50.00,124.84,1
60.00,123.79,1
678.00,125.96,1
53.00,135.62,1
452.00,148.71,1
46.00,162.06,1
94.00,172.12,1
62.00,176.54,1
116.00,176.75,1
352.00,176.41,1
48.00,177.47,1
206.00,177.82,1
162.00,177.34,1
98.00,176.29,1
160.00,173.94,1
290.00,172.25,1
88.00,172.13,1
41.00,170.52,1
166.00,166.41,1
112.00,161.80,1
204.00,157.85,1
93.00,154.70,1
181.00,151.91,1
74.00,149.14,1
256.00,146.94,1
42.00,145.61,1
102.00,143.42,1
36.00,139.35,1
106.00,133.92,1
171.00,128.84,1
134.00,125.53,1
56.00,122.97,1
230.00,120.89,1
40.00,119.91,1
74.00,118.36,1
73.00,115.41,1
48.00,111.58,1
248.00,108.43,1
208.00,108.69,1
94.00,111.56,1
248.00,115.40,1
123.00,120.42,1
50.00,124.74,1
206.00,127.43,1
90.00,129.82,1
266.00,132.73,1
140.00,136.88,1
80.00,140.69,1
157.00,142.70,1
118.00,143.74,1
127.00,144.08,1
176.00,144.10,1
150.00,144.56,1
44.00,144.42,1
64.00,142.04,1
58.00,137.42,1
315.00,133.45,1
369.00,134.80,1
764.00,146.45,1
116.00,167.19,1
83.00,186.36,1
125.00,198.12,1
101.00,204.06,1
59.00,205.00,1
77.00,201.41,1
177.00,195.23,1
176.00,189.09,1
174.00,183.98,1
81.00,179.02,1
260.00,174.25,1
98.00,170.65,1
286.00,168.40,1
98.00,167.48,1
49.00,165.64,1
98.00,161.19,1
85.00,155.18,1
44.00,148.07,1
72.00,139.79,1
114.00,131.35,1
166.00,124.45,1
208.00,120.51,1
96.00,119.14,1
104.00,118.32,1
117.00,117.27,1
531.00,119.77,1
91.00,128.20,1
83.00,136.96,1
130.00,142.30,1
86.00,145.19,1
61.00,145.58,1
159.00,144.11,1
102.00,142.20,1
89.00,139.76,1
138.00,136.75,1
127.00,134.01,1
259.00,132.89,1
238.00,134.95,1
150.00,139.38,1
125.00,143.63,1
49.00,145.80,1
44.00,144.84,1
61.00,140.93,1
67.00,135.22,1
53.00,128.48,1
127.00,121.58,1
146.00,116.07,1
116.00,112.46,1
133.00,110.23,1
70.00,108.63,1
118.00,107.05,1
96.00,105.63,1
38.00,103.93,1
106.00,101.51,1
77.00,99.01,1
107.00,96.88,1
86.00,95.17,1
43.00,93.38,1
123.00,91.37,1
61.00,89.72,1
50.00,87.93,1
35.00,85.28,1
44.00,81.78,1
42.00,77.78,1
216.00,75.02,1
116.00,75.30,1
37.00,77.03,1
131.00,78.45,1
38.00,79.73,1
48.00,80.16,1
198.00,80.58,1
116.00,82.90,1
179.00,86.99,1
143.00,92.32,1
42.00,97.53,1
110.00,101.04,1
74.00,103.14,1
128.00,104.51,1
61.00,105.32,1
86.00,105.23,1
97.00,104.39,1
87.00,103.34,1
58.00,101.84,1
50.00,99.41,1
98.00,96.39,1
50.00,93.36,1
174.00,91.04,1
68.00,90.13,1
75.00,89.64,1
86.00,88.81,1
127.00,88.34,1
71.00,88.45,1
89.00,88.58,1
36.00,88.09,1
98.00,86.95,1
113.00,86.06,1
117.00,86.19,1
96.00,87.11,1
57.00,87.96,1
83.00,88.11,1
71.00,87.74,1
36.00,86.70,1
63.00,84.74,1
122.00,82.80,1
407.00,84.52,1
102.00,91.68,1
53.00,99.59,1
122.00,105.05,1
114.00,109.12,1
148.00,112.72,1
139.00,116.27,1
123.00,119.66,1
81.00,122.13,1
46.00,122.71,1
184.00,122.04,1
50.00,121.32,1
64.00,119.64,1
57.00,116.35,1
57.00,111.94,1
42.00,106.66,1
93.00,101.05,1
92.00,96.09,1
114.00,92.38,1
91.00,89.92,1
79.00,88.17,1
47.00,86.37,1
267.00,85.78,1
94.00,88.08,1
119.00,91.67,1
150.00,95.35,1
88.00,99.19,1
148.00,102.74,1
117.00,106.19,1
79.00,109.11,1
91.00,110.73,1
149.00,111.68,1
73.00,112.54,1
58.00,112.36,1
134.00,111.17,1
160.00,110.61,1
52.00,110.72,1
57.00,109.79,1
44.00,107.18,1
52.00,103.25,1
65.00,98.61,1
63.00,93.84,1
82.00,89.37,1
87.00,85.62,1
110.00,82.96,1
93.00,81.52,1
68.00,80.74,1
98.00,80.18,1
158.00,80.61,1
43.00,82.05,1
172.00,83.87,1
111.00,86.62,1
179.00,90.59,1
61.00,94.99,1
42.00,98.02,1
58.00,98.75,1
61.00,97.85,1
62.00,95.92,1
44.00,93.15,1
42.00,89.55,1
156.00,86.20,1
40.00,84.08,1
131.00,82.72,1
55.00,81.90,1
178.00,82.05,1
39.00,83.17,1
90.00,84.14,1
92.00,84.65,1
47.00,84.90,1
66.00,84.37,1
53.00,83.09,1
38.00,81.10,1
39.00,78.29,1
60.00,75.03,1
116.00,72.34,1
49.00,70.73,1
65.00,69.47,1
127.00,68.75,1
39.00,68.90,1
60.00,68.93,1
101.00,68.81,1
90.00,69.36,1
46.00,70.19,1
40.00,70.34,1
132.00,70.26,1
199.00,72.04,1
94.00,76.15,1
124.00,81.00,1
87.00,85.55,1
93.00,89.41,1
170.00,93.05,1
117.00,97.29,1
292.00,103.06,1
124.00,110.88,1
52.00,118.05,1
78.00,122.13,1
55.00,123.36,1
51.00,122.17,1
81.00,119.20,1
43.00,115.12,1
94.00,110.35,1
44.00,105.35,1
150.00,100.82,1
216.00,98.69,1
41.00,98.97,1
95.00,99.17,1
59.00,98.41,1
115.00,97.30,1
48.00,96.02,1
208.00,95.34,1
176.00,96.97,1
84.00,100.34,1
474.00,106.36,1
116.00,116.96,1
38.00,127.31,1
101.00,133.36,1
62.00,136.02,1
41.00,135.74,1
42.00,132.58,1
218.00,128.62,1
119.00,126.30,1
38.00,124.44,1
80.00,121.20,1
35.00,116.65,1
189.00,112.13,1
140.00,109.56,1
41.00,108.22,1
94.00,106.23,1
96.00,103.89,1
45.00,101.42,1
79.00,98.37,1
48.00,94.88,1
120.00,91.53,1
332.00,91.09,1
190.00,95.77,1
108.00,102.95,1
127.00,109.41,1
106.00,114.57,1
92.00,118.26,1
69.00,120.12,1
76.00,120.08,1
67.00,118.46,1
75.00,115.67,1
415.00,114.96,1
140.00,119.28,1
139.00,125.52,1
89.00,130.29,1
82.00,132.90,1
127.00,133.63,1
185.00,134.07,1
97.00,134.88,1
74.00,134.77,1
107.00,133.14,1
83.00,130.56,1
69.00,127.08,1
130.00,123.14,1
79.00,119.44,1
94.00,115.83,1
116.00,112.43,1
139.00,109.98,1
99.00,108.56,1
119.00,107.66,1
193.00,107.81,1
62.00,109.05,1
136.00,110.14,1
184.00,111.61,1
36.00,113.50,1
88.00,114.03,1
38.00,112.73,1
80.00,110.03,1
110.00,106.89,1
56.00,103.91,1
113.00,100.98,1
107.00,98.63,1
80.00,96.95,1
57.00,95.14,1
70.00,92.79,1
54.00,90.01,1
50.00,86.80,1
134.00,83.87,1
122.00,82.51,1
112.00,82.81,1
40.00,83.50,1
151.00,84.10,1
47.00,85.00,1
66.00,85.44,1
53.00,84.86,1
61.00,83.54,1
69.00,81.78,1
87.00,80.10,1
175.00,79.64,1
75.00,80.90,1
185.00,83.40,1
44.00,86.60,1
64.00,88.96,1
89.00,89.96,1
49.00,90.14,1
79.00,89.49,1
45.00,88.13,1
56.00,86.03,1
141.00,84.05,1
68.00,83.12,1
133.00,83.06,1
68.00,83.59,1
71.00,84.03,1
122.00,84.34,1
56.00,84.85,1
39.00,84.70,1
72.00,83.49,1
81.00,81.99,1
80.00,80.74,1
93.00,79.88,1
35.00,79.08,1
37.00,77.49,1
83.00,75.32,1
91.00,73.60,1
66.00,72.60,1
58.00,71.77,1
101.00,71.10,1
74.00,71.01,1
66.00,71.19,1
90.00,71.42,1
65.00,71.81,1
154.00,72.83,1
70.00,74.87,1
82.00,77.05,1
72.00,78.69,1
153.00,80.47,1
82.00,82.96,1
71.00,85.33,1
100.00,86.98,1
63.00,88.12,1
36.00,88.23,1
44.00,86.87,1
49.00,84.39,1
42.00,81.23,1
53.00,77.67,1
130.00,74.70,1
78.00,73.22,1
74.00,72.65,1
126.00,72.72,1
109.00,73.97,1
86.00,76.04,1
126.00,78.46,1
67.00,81.05,1
55.00,82.94,1
294.00,85.53,1
41.00,90.32,1
79.00,94.73,1
43.00,96.95,1
108.00,97.69,1
50.00,97.56,1
67.00,96.51,1
65.00,94.58,1
62.00,92.13,1
67.00,89.33,1
127.00,86.92,1
201.00,86.54,1
68.00,88.35,1
94.00,90.36,1
68.00,91.58,1
48.00,91.76,1
73.00,90.83,1
66.00,89.27,1
77.00,87.45,1
121.00,86.00,1
64.00,85.22,1
50.00,84.28,1
111.00,83.04,1
56.00,82.07,1
37.00,80.77,1
83.00,78.86,1
115.00,77.43,1
126.00,77.43,1
65.00,78.45,1
83.00,79.43,1
120.00,80.46,1
97.00,82.05,1
68.00,83.71,1
51.00,84.55,1
94.00,84.58,1
126.00,84.81,1
65.00,85.59,1
83.00,86.16,1
46.00,86.03,1
47.00,84.92,1
68.00,83.00,1
169.00,81.70,1
37.00,81.69,1
47.00,81.37,1
100.00,80.34,1
169.00,80.34,1
41.00,81.65,1
125.00,83.05,1
181.00,85.27,1
41.00,88.50,1
58.00,90.68,1
72.00,91.22,1
78.00,90.93,1
36.00,89.88,1
93.00,88.10,1
42.00,86.02,1
73.00,83.66,1
100.00,81.48,1
59.00,79.87,1
54.00,78.26,1
86.00,76.53,1
72.00,75.16,1
68.00,74.09,1
92.00,73.31,1
76.00,73.01,1
58.00,72.86,1
43.00,72.28,1
99.00,71.45,1
63.00,70.97,1
61.00,70.62,1
60.00,70.04,1
43.00,69.14,1
38.00,67.68,1
78.00,65.96,1
35.00,64.36,1
81.00,62.91,1
103.00,62.21,1
45.00,62.37,1
35.00,62.31,1
63.00,61.68,1
42.00,60.83,1
50.00,59.81,1
86.00,58.94,1
50.00,58.58,1
90.00,58.66,1
104.00,59.54,1
66.00,61.26,1
61.00,63.00,1
56.00,64.26,1
113.00,65.45,1
67.00,67.08,1
67.00,68.70,1
70.00,69.90,1
79.00,70.86,1
43.00,71.48,1
114.00,71.90,1
106.00,72.97,1
70.00,74.64,1
94.00,76.26,1
55.00,77.55,1
98.00,78.46,1
40.00,78.96,1
58.00,78.69,1
85.00,77.86,1
103.00,77.39,1
62.00,77.40,1
95.00,77.51,1
69.00,77.68,1
36.00,77.47,1
225.00,77.76,1
51.00,79.86,1
59.00,82.01,1
43.00,82.67,1
41.00,81.97,1
106.00,80.63,1
113.00,79.98,1
144.00,80.77,1
121.00,83.01,1
80.00,85.82,1
78.00,88.09,1
42.00,89.19,1
88.00,89.15,1
46.00,88.34,1
53.00,86.73,1
54.00,84.34,1
40.00,81.37,1
67.00,78.10,1
58.00,74.94,1
73.00,72.18,1
87.00,70.11,1
31.00,68.51,1
54.00,66.70,1
109.00,65.18,1
38.00,64.43,1
37.00,63.56,1
50.00,62.14,1
82.00,60.81,1
120.00,60.56,1
144.00,62.23,1
57.00,65.29,1
82.00,68.27,1
82.00,70.78,1
96.00,73.17,1
117.00,75.80,1
59.00,78.52,1
36.00,80.23,1
64.00,80.47,1
74.00,79.94,1
67.00,79.20,1
67.00,78.29,1
176.00,78.15,1
98.00,79.73,1
49.00,81.79,1
88.00,82.99,1
86.00,83.73,1
41.00,84.01,1
46.00,83.21,1
58.00,81.41,1
126.00,79.73,1
52.00,78.83,1
36.00,77.73,1
191.00,76.93,1
43.00,77.60,1
59.00,78.33,1
66.00,78.16,1
36.00,77.32,1
54.00,75.70,1
52.00,73.59,1
52.00,71.28,1
161.00,69.79,1
42.00,69.79,1
39.00,69.84,1
94.00,69.33,1
38.00,68.84,1
58.00,68.07,1
43.00,66.86,1
109.00,65.82,1
41.00,65.36,1
67.00,64.97,1
96.00,64.78,1
71.00,65.21,1
39.00,65.67,1
68.00,65.64,1
62.00,65.41,1
213.00,66.44,1
58.00,69.55,1
79.00,72.98,1
68.00,75.52,1
56.00,77.19,1
75.00,78.01,1
36.00,78.04,1
50.00,77.11,1
37.00,75.28,1
126.00,73.46,1
107.00,72.92,1
63.00,73.44,1
124.00,74.36,1
37.00,75.47,1
104.00,76.32,1
70.00,77.05,1
72.00,77.66,1
127.00,78.38,1
122.00,80.04,1
95.00,82.52,1
93.00,85.03,1
60.00,86.94,1
48.00,87.66,1
71.00,87.19,1
36.00,85.82,1
47.00,83.52,1
148.00,81.31,1
68.00,80.34,1
41.00,79.64,1
66.00,78.24,1
58.00,76.50,1
45.00,74.52,1
94.00,72.55,1
51.00,71.01,1
61.00,69.61,1
44.00,68.04,1
44.00,66.19,1
106.00,64.56,1
67.00,63.86,1
119.00,64.20,1
145.00,66.06,1
127.00,69.72,1
86.00,74.23,1
60.00,78.17,1
127.00,81.33,1
66.00,84.19,1
101.00,86.55,1
62.00,88.21,1
92.00,89.17,1
71.00,89.58,1
68.00,89.42,1
54.00,88.50,1
55.00,86.77,1
56.00,84.40,1
88.00,81.92,1
54.00,79.68,1
38.00,77.29,1
96.00,74.78,1
94.00,73.08,1
58.00,72.20,1
144.00,72.07,1
73.00,73.06,1
37.00,74.10,1
67.00,74.21,1
133.00,74.36,1
87.00,75.50,1
143.00,77.60,1
85.00,80.42,1
128.00,83.55,1
84.00,86.69,1
174.00,90.09,1
97.00,94.08,1
40.00,97.37,1
57.00,98.58,1
119.00,98.49,1
36.00,97.89,1
158.00,97.10,1
54.00,96.63,1
260.00,97.45,1
40.00,99.93,1
113.00,102.25,1
96.00,103.62,1
69.00,104.33,1
103.00,104.20,1
53.00,103.37,1
144.00,102.24,1
174.00,102.25,1
125.00,103.98,1
57.00,105.85,1
57.00,106.20,1
35.00,104.66,1
66.00,101.62,1
36.00,97.61,1
63.00,92.99,1
138.00,88.88,1
46.00,86.00,1
54.00,83.32,1
114.00,80.74,1
51.00,78.86,1
225.00,78.47,1
79.00,80.36,1
55.00,82.77,1
100.00,84.25,1
58.00,85.17,1
48.00,85.23,1
146.00,84.94,1
202.00,86.40,1
200.00,90.92,1
123.00,97.35,1
44.00,103.07,1
166.00,107.11,1
142.00,110.92,1
134.00,114.98,1
57.00,118.12,1
61.00,119.14,1
62.00,117.96,1
79.00,115.33,1
50.00,111.74,1
46.00,107.18,1
61.00,101.83,1
84.00,96.47,1
106.00,91.98,1
37.00,88.29,1
64.00,84.57,1
42.00,80.66,1
46.00,76.61,1
47.00,72.50,1
52.00,68.56,1
57.00,65.03,1
63.00,62.08,1
83.00,59.99,1
84.00,59.02,1
43.00,58.76,1
44.00,58.39,1
102.00,58.10,1
87.00,58.74,1
50.00,59.97,1
65.00,61.01,1
92.00,62.03,1
51.00,63.24,1
52.00,64.10,1
70.00,64.49,1
67.00,64.79,1
81.00,65.24,1
56.00,65.78,1
72.00,66.20,1
39.00,66.31,1
138.00,66.59,1
87.00,67.91,1
72.00,69.86,1
41.00,71.27,1
86.00,71.97,1
39.00,72.21,1
199.00,73.00,1
124.00,75.84,1
60.00,79.70,1
63.00,82.53,1
48.00,83.87,1
42.00,83.77,1
230.00,83.91,1
63.00,85.91,1
173.00,88.97,1
72.00,92.33,1
109.00,95.35,1
108.00,97.78,1
43.00,99.43,1
44.00,99.37,1
65.00,97.63,1
56.00,94.97,1
62.00,91.78,1
69.00,88.38,1
43.00,84.88,1
46.00,81.07,1
66.00,77.16,1
94.00,73.88,1
63.00,71.58,1
55.00,69.73,1
43.00,67.81,1
98.00,66.08,1
119.00,65.55,1
48.00,66.17,1
78.00,66.87,1
41.00,67.22,1
77.00,67.21,1
51.00,67.02,1
80.00,66.80,1
127.00,67.22,1
70.00,68.67,1
135.00,70.82,1
89.00,73.66,1
71.00,76.56,1
54.00,78.59,1
86.00,79.71,1
76.00,80.43,1
78.00,80.92,1
51.00,80.95,1
37.00,80.09,1
114.00,78.76,1
58.00,77.82,1
36.00,76.73,1
144.00,75.63,1
49.00,75.38,1
40.00,75.03,1
111.00,74.26,1
71.00,73.98,1
82.00,74.09,1
66.00,74.22,1
64.00,74.16,1
78.00,73.91,1
99.00,73.91,1
82.00,74.43,1
138.00,75.68,1
64.00,77.62,1
64.00,79.26,1
89.00,80.20,1
84.00,80.95,1
112.00,81.90,1
62.00,82.97,1
68.00,83.55,1
68.00,83.43,1
158.00,83.56,1
36.00,84.38,1
70.00,84.69,1
68.00,84.14,1
47.00,83.03,1
75.00,81.39,1
49.00,79.49,1
45.00,77.20,1
40.00,74.40,1
45.00,71.20,1
60.00,67.99,1
117.00,65.64,1
68.00,64.68,1
94.00,64.69,1
64.00,65.20,1
124.00,66.29,1
136.00,68.63,1
62.00,71.94,1
61.00,74.74,1
203.00,77.59,1
84.00,81.76,1
37.00,85.60,1
65.00,87.52,1
36.00,87.76,1
70.00,86.75,1
53.00,84.99,1
99.00,83.12,1
66.00,81.57,1
49.00,80.00,1
115.00,78.47,1
127.00,78.09,1
89.00,79.01,1
83.00,80.31,1
45.00,81.12,1
133.00,81.58,1
51.00,82.24,1
143.00,83.14,1
133.00,84.96,1
37.00,87.24,1
52.00,88.21,1
37.00,87.49,1
83.00,85.76,1
81.00,83.96,1
57.00,82.31,1
135.00,81.06,1
110.00,81.05,1
40.00,81.62,1
60.00,81.42,1
97.00,80.69,1
71.00,80.15,1
75.00,79.69,1
39.00,78.86,1
87.00,77.59,1
41.00,76.16,1
95.00,74.74,1
95.00,73.88,1
85.00,73.85,1
58.00,74.06,1
95.00,74.22,1
87.00,74.65,1
65.00,75.27,1
73.00,75.65,1
105.00,76.05,1
66.00,76.73,1
97.00,77.47,1
109.00,78.53,1
45.00,79.71,1
82.00,80.29,1
58.00,80.29,1
45.00,79.63,1
45.00,78.08,1
232.00,77.36,1
114.00,79.43,1
62.00,82.69,1
57.00,84.88,1
81.00,85.86,1
134.00,86.69,1
47.00,87.72,1
279.00,89.80,1
87.00,94.15,1
36.00,98.39,1
74.00,100.29,1
76.00,100.54,1
92.00,100.03,1
107.00,99.38,1
51.00,98.55,1
34.00,96.65,1
46.00,93.36,1
55.00,89.27,1
86.00,85.20,1
36.00,81.47,1
139.00,78.39,1
41.00,76.40,1
59.00,74.68,1
57.00,72.69,1
56.00,70.66,1
36.00,68.47,1
61.00,66.11,1
92.00,64.20,1
88.00,63.38,1
51.00,63.30,1
99.00,63.54,1
68.00,64.24,1
128.00,65.64,1
62.00,67.73,1
77.00,69.80,1
69.00,71.42,1
70.00,72.65,1
171.00,74.32,1
69.00,77.12,1
84.00,79.95,1
255.00,83.53,1
87.00,89.10,1
57.00,94.41,1
79.00,97.63,1
40.00,98.94,1
79.00,98.63,1
52.00,97.20,1
125.00,95.44,1
38.00,93.76,1
47.00,91.44,1
96.00,88.51,1
133.00,86.44,1
38.00,85.32,1
114.00,84.32,1
158.00,84.27,1
90.00,85.74,1
64.00,87.35,1
60.00,87.99,1
59.00,87.57,1
206.00,87.53,1
43.00,88.86,1
124.00,90.37,1
66.00,91.48,1
146.00,92.63,1
108.00,94.29,1
116.00,96.39,1
210.00,99.34,1
62.00,103.25,1
120.00,106.55,1
206.00,109.75,1
44.00,113.30,1
114.00,115.63,1
98.00,116.63,1
133.00,117.19,1
76.00,117.38,1
38.00,116.30,1
96.00,113.64,1
222.00,111.60,1
88.00,111.55,1
118.00,112.10,1
456.00,115.25,1
189.00,123.95,1
117.00,134.35,1
199.00,142.95,1
41.00,149.35,1
132.00,152.65,1
74.00,153.23,1
68.00,151.48,1
83.00,147.53,1
61.00,142.10,1
86.00,135.67,1
280.00,130.55,1
43.00,128.04,1
54.00,125.37,1
74.00,121.07,1
137.00,116.58,1
66.00,112.75,1
160.00,109.65,1
367.00,109.95,1
182.00,115.50,1
144.00,123.14,1
127.00,129.82,1
51.00,134.29,1
147.00,136.36,1
63.00,136.78,1
41.00,135.15,1
70.00,131.22,1
40.00,125.71,1
142.00,119.76,1
61.00,114.46,1
103.00,109.68,1
37.00,104.93,1
69.00,99.88,1
65.00,94.72,1
76.00,89.94,1
58.00,85.60,1
41.00,81.40,1
166.00,78.04,1
140.00,77.14,1
61.00,78.09,1
91.00,79.14,1
70.00,79.91,1
49.00,80.17,1
93.00,79.87,1
68.00,79.50,1
50.00,78.90,1
85.00,77.92,1
60.00,76.92,1
45.00,75.68,1
101.00,74.31,1
66.00,73.40,1
148.00,73.44,1
75.00,74.66,1
111.00,76.51,1
65.00,78.37,1
39.00,79.52,1
73.00,79.53,1
70.00,79.01,1
164.00,79.12,1
140.00,81.05,1
65.00,84.05,1
57.00,86.25,1
120.00,87.54,1
49.00,88.48,1
39.00,88.40,1
86.00,87.19,1
42.00,85.47,1
114.00,83.68,1
43.00,82.14,1
109.00,80.81,1
48.00,79.69,1
50.00,78.30,1
86.00,76.60,1
127.00,75.66,1
66.00,75.81,1
62.00,76.07,1
65.00,75.86,1
61.00,75.29,1
118.00,74.88,1
103.00,75.41,1
50.00,76.42,1
54.00,76.78,1
59.00,76.30,1
74.00,75.44,1
51.00,74.43,1
55.00,73.11,1
92.00,71.78,1
65.00,70.90,1
58.00,70.21,1
53.00,69.30,1
52.00,68.09,1
61.00,66.73,1
85.00,65.63,1
40.00,64.87,1
52.00,63.93,1
146.00,63.51,1
200.00,65.63,1
51.00,70.02,1
100.00,74.36,1
69.00,77.85,1
78.00,80.53,1
72.00,82.36,1
72.00,83.46,1
105.00,84.18,1
40.00,84.61,1
63.00,84.17,1
47.00,82.82,1
48.00,80.74,1
42.00,78.01,1
38.00,74.76,1
133.00,71.89,1
37.00,70.16,1
48.00,68.64,1
77.00,66.94,1
39.00,65.43,1
102.00,64.25,1
51.00,63.66,1
66.00,63.34,1
62.00,63.02,1
47.00,62.66,1
93.00,62.37,1
60.00,62.51,1
60.00,62.81,1
132.00,63.54,1
84.00,65.39,1
128.00,68.18,1
39.00,71.18,1
89.00,73.54,1
50.00,75.10,1
69.00,75.94,1
48.00,76.01,1
36.00,75.21,1
64.00,73.62,1
95.00,72.12,1
77.00,71.34,1
83.00,71.13,1
36.00,70.92,1
52.00,70.13,1
83.00,69.06,1
42.00,68.10,1
39.00,66.83,1
42.00,64.99,1
98.00,63.26,1
39.00,62.15,1
52.00,61.13,1
63.00,60.05,1
54.00,59.15,1
62.00,58.44,1
68.00,58.00,1
56.00,57.85,1
125.00,58.35,1
131.00,60.42,1
91.00,63.97,1
90.00,67.89,1
156.00,72.15,1
184.00,77.83,1
99.00,84.75,1
65.00,90.91,1
89.00,95.21,1
130.00,98.41,1
62.00,100.98,1
38.00,102.01,1
54.00,100.99,1
66.00,98.62,1
46.00,95.46,1
38.00,91.51,1
76.00,87.12,1
172.00,83.88,1
41.00,82.47,1
84.00,81.47,1
72.00,80.34,1
74.00,79.32,1
71.00,78.32,1
60.00,77.26,1
79.00,76.13,1
117.00,75.52,1
244.00,77.17,1
70.00,81.46,1
161.00,86.56,1
190.00,92.41,1
122.00,99.29,1
98.00,105.65,1
53.00,110.04,1
65.00,111.94,1
62.00,111.68,1
122.00,110.35,1
160.00,109.55,1
78.00,109.62,1
56.00,109.13,1
70.00,107.30,1
52.00,104.40,1
180.00,101.66,1
61.00,100.13,1
83.00,98.83,1
92.00,97.22,1
66.00,95.52,1
75.00,93.55,1
66.00,91.29,1
55.00,88.72,1
56.00,85.75,1
60.00,82.52,1
90.00,79.54,1
49.00,77.03,1
67.00,74.68,1
50.00,72.35,1
51.00,69.99,1
120.00,68.13,1
52.00,67.32,1
55.00,66.78,1
102.00,66.34,1
48.00,66.35,1
79.00,66.46,1
82.00,66.73,1
144.00,67.94,1
59.00,70.16,1
56.00,72.16,1
66.00,73.23,1
67.00,73.73,1
51.00,73.75,1
70.00,73.30,1
74.00,72.73,1
44.00,72.05,1
52.00,70.92,1
62.00,69.45,1
93.00,68.26,1
64.00,67.68,1
72.00,67.43,1
84.00,67.43,1
66.00,67.72,1
86.00,68.21,1
46.00,68.67,1
99.00,69.04,1
46.00,69.43,1
70.00,69.60,1
77.00,69.59,1
80.00,69.80,1
76.00,70.25,1
67.00,70.73,1
55.00,70.95,1
54.00,70.67,1
50.00,69.88,1
108.00,69.14,1
87.00,69.20,1
45.00,69.67,1
86.00,69.89,1
46.00,69.92,1
60.00,69.59,1
58.00,68.89,1
74.00,68.15,1
60.00,67.53,1
47.00,66.81,1
54.00,65.78,1
199.00,65.74,1
57.00,67.79,1
106.00,70.58,1
68.00,73.14,1
66.00,75.22,1
49.00,76.37,1
102.00,76.91,1
67.00,77.43,1
60.00,77.71,1
72.00,77.48,1
62.00,76.95,1
46.00,75.99,1
74.00,74.63,1
91.00,73.49,1
119.00,73.30,1
47.00,73.84,1
64.00,74.11,1
43.00,73.65,1
78.00,72.76,1
149.00,72.54,1
55.00,73.56,1
51.00,74.46,1
57.00,74.45,1
54.00,73.79,1
42.00,72.55,1
