422.00,361.34,1
67.00,181.42,1
114.00,185.98,1
157.00,186.95,1
265.00,187.23,1
100.00,187.76,1
89.00,186.51,1
125.00,182.66,1
148.00,177.75,1
148.00,172.84,1
128.00,168.12,1
179.00,163.79,1
168.00,160.49,1
179.00,158.43,1
231.00,157.87,1
106.00,158.41,1
228.00,159.12,1
45.00,159.41,1
391.00,160.23,1
51.00,162.83,1
161.00,164.82,1
194.00,165.58,1
171.00,166.62,1
246.00,168.37,1
275.00,171.91,1
43.00,175.85,1
48.00,176.39,1
408.00,175.48,1
59.00,176.63,1
346.00,178.88,1
220.00,182.69,1
203.00,187.76,1
264.00,192.77,1
347.00,199.10,1
197.00,206.85,1
52.00,212.44,1
69.00,212.69,1
54.00,207.93,1
102.00,199.72,1
182.00,190.49,1
56.00,181.48,1
166.00,172.45,1
260.00,165.24,1
104.00,160.82,1
192.00,157.60,1
146.00,155.19,1
93.00,152.99,1
39.00,149.31,1
91.00,143.78,1
98.00,137.46,1
90.00,131.24,1
245.00,126.49,1
81.00,124.18,1
60.00,122.17,1
46.00,118.64,1
232.00,115.21,1
310.00,115.59,1
75.00,119.71,1
64.00,123.22,1
72.00,124.09,1
104.00,123.23,1
62.00,121.34,1
213.00,119.53,1
186.00,119.77,1
82.00,121.51,1
156.00,122.99,1
163.00,124.65,1
179.00,127.26,1
114.00,130.30,1
159.00,132.97,1
316.00,136.81,1
295.00,144.25,1
113.00,153.55,1
53.00,160.29,1
66.00,162.43,1
169.00,161.63,1
559.00,163.63,1
62.00,170.87,1
44.00,176.73,1
127.00,177.68,1
49.00,175.41,1
109.00,170.63,1
93.00,164.33,1
274.00,158.82,1
48.00,155.07,1
283.00,152.49,1
164.00,151.91,1
210.00,153.23,1
285.00,156.34,1
62.00,160.49,1
75.00,162.35,1
372.00,163.22,1
611.00,170.22,1
202.00,184.72,1
411.00,201.46,1
147.00,217.19,1
276.00,230.08,1
206.00,239.75,1
386.00,248.05,1
119.00,255.23,1
99.00,258.23,1
62.00,255.12,1
496.00,250.27,1
104.00,247.90,1
471.00,247.63,1
467.00,251.68,1
78.00,258.72,1
92.00,261.36,1
140.00,258.13,1
44.00,250.59,1
113.00,239.41,1
98.00,226.06,1
107.00,211.85,1
135.00,197.73,1
128.00,184.62,1
58.00,172.26,1
62.00,159.69,1
46.00,146.72,1
148.00,134.52,1
258.00,125.75,1
263.00,122.62,1
92.00,123.46,1
57.00,124.19,1
407.00,125.70,1
180.00,131.41,1
247.00,139.77,1
296.00,149.55,1
166.00,160.33,1
121.00,169.42,1
137.00,175.25,1
41.00,177.51,1
208.00,176.83,1
168.00,175.65,1
224.00,175.29,1
439.00,177.90,1
124.00,184.13,1
91.00,189.20,1
148.00,190.56,1
91.00,189.20,1
357.00,187.59,1
51.00,187.24,1
647.00,189.91,1
351.00,199.75,1
182.00,213.25,1
127.00,223.43,1
40.00,227.78,1
75.00,225.90,1
148.00,219.81,1
67.00,211.54,1
249.00,202.62,1
210.00,195.55,1
353.00,192.18,1
412.00,194.23,1
204.00,200.81,1
154.00,207.23,1
82.00,210.18,1
92.00,208.83,1
83.00,203.79,1
697.00,201.12,1
264.00,206.80,1
183.00,215.95,1
68.00,221.54,1
68.00,221.68,1
95.00,216.94,1
311.00,210.88,1
55.00,205.68,1
114.00,199.31,1
114.00,191.18,1
86.00,182.20,1
53.00,172.13,1
102.00,161.23,1
41.00,150.08,1
243.00,140.18,1
510.00,136.57,1
216.00,141.52,1
333.00,151.12,1
342.00,163.53,1
198.00,177.61,1
155.00,189.83,1
120.00,198.03,1
202.00,202.61,1
144.00,204.89,1
48.00,204.34,1
124.00,200.18,1
71.00,193.45,1
292.00,186.55,1
73.00,181.16,1
65.00,175.21,1
65.00,167.12,1
170.00,158.47,1
371.00,153.09,1
315.00,154.06,1
172.00,159.39,1
148.00,164.84,1
61.00,167.92,1
45.00,167.35,1
76.00,163.23,1
64.00,156.88,1
48.00,148.87,1
228.00,141.07,1
91.00,135.39,1
44.00,130.36,1
254.00,125.80,1
239.00,124.70,1
221.00,127.74,1
135.00,132.57,1
217.00,137.70,1
216.00,143.54,1
226.00,150.47,1
49.00,156.68,1
214.00,160.67,1
219.00,164.14,1
107.00,167.63,1
107.00,169.20,1
35.00,167.75,1
61.00,163.09,1
206.00,157.13,1
94.00,152.10,1
131.00,147.59,1
222.00,144.06,1
50.00,141.78,1
61.00,138.50,1
96.00,133.65,1
212.00,129.39,1
41.00,126.52,1
113.00,123.51,1
50.00,119.74,1
104.00,115.51,1
83.00,111.30,1
139.00,107.80,1
117.00,105.55,1
44.00,103.79,1
188.00,102.28,1
38.00,101.53,1
147.00,101.00,1
80.00,100.66,1
295.00,102.06,1
251.00,107.40,1
300.00,116.96,1
157.00,128.67,1
128.00,139.46,1
42.00,146.80,1
188.00,150.85,1
148.00,153.62,1
72.00,155.25,1
261.00,155.91,1
58.00,156.65,1
38.00,155.46,1
107.00,151.43,1
116.00,146.40,1
72.00,141.12,1
374.00,137.71,1
68.00,137.94,1
58.00,138.24,1
65.00,135.92,1
71.00,131.78,1
69.00,126.54,1
214.00,121.88,1
127.00,119.49,1
124.00,118.63,1
61.00,117.65,1
192.00,116.64,1
100.00,116.53,1
221.00,117.69,1
158.00,120.47,1
114.00,124.01,1
472.00,129.71,1
172.00,140.02,1
284.00,152.38,1
163.00,164.21,1
107.00,173.69,1
76.00,178.83,1
124.00,179.93,1
90.00,178.19,1
80.00,174.10,1
48.00,167.68,1
56.00,159.15,1
54.00,149.16,1
172.00,139.40,1
84.00,131.36,1
41.00,124.06,1
42.00,116.13,1
106.00,108.14,1
296.00,103.04,1
89.00,102.21,1
161.00,103.44,1
255.00,106.50,1
214.00,112.60,1
248.00,121.24,1
228.00,131.61,1
228.00,142.85,1
214.00,154.09,1
132.00,164.05,1
182.00,171.65,1
210.00,177.59,1
248.00,183.25,1
210.00,189.07,1
92.00,193.51,1
177.00,195.24,1
148.00,194.99,1
84.00,192.95,1
73.00,188.24,1
74.00,180.96,1
79.00,171.90,1
42.00,161.61,1
63.00,150.32,1
60.00,138.62,1
127.00,127.71,1
51.00,118.22,1
112.00,109.91,1
42.00,102.58,1
90.00,95.99,1
452.00,93.37,1
148.00,97.71,1
186.00,105.48,1
230.00,114.12,1
148.00,123.46,1
241.00,132.85,1
264.00,143.01,1
164.00,153.73,1
107.00,162.56,1
272.00,169.26,1
199.00,175.80,1
238.00,182.46,1
182.00,188.58,1
236.00,193.91,1
170.00,198.37,1
71.00,200.51,1
134.00,199.13,1
136.00,195.41,1
99.00,190.28,1
44.00,183.16,1
48.00,173.62,1
42.00,162.10,1
74.00,149.65,1
117.00,137.78,1
166.00,128.12,1
141.00,121.44,1
132.00,117.14,1
313.00,115.98,1
122.00,118.61,1
147.00,122.51,1
103.00,125.72,1
132.00,127.99,1
190.00,130.09,1
164.00,132.99,1
340.00,137.92,1
217.00,145.91,1
129.00,154.68,1
122.00,161.16,1
297.00,166.30,1
154.00,171.93,1
116.00,176.47,1
447.00,180.99,1
221.00,188.68,1
170.00,197.05,1
100.00,202.32,1
122.00,203.68,1
144.00,202.02,1
83.00,198.14,1
86.00,191.89,1
38.00,183.22,1
78.00,172.54,1
110.00,161.24,1
91.00,150.52,1
72.00,140.42,1
165.00,131.40,1
180.00,125.03,1
103.00,121.23,1
228.00,119.41,1
186.00,120.26,1
201.00,123.54,1
131.00,127.89,1
210.00,132.52,1
264.00,138.41,1
204.00,146.06,1
189.00,154.16,1
96.00,160.82,1
69.00,164.29,1
148.00,164.66,1
156.00,163.82,1
121.00,162.56,1
130.00,160.60,1
101.00,157.77,1
74.00,153.75,1
119.00,148.66,1
194.00,144.06,1
162.00,141.32,1
81.00,139.54,1
50.00,136.65,1
90.00,132.13,1
68.00,126.77,1
121.00,121.37,1
91.00,116.56,1
63.00,112.08,1
54.00,107.20,1
204.00,103.05,1
193.00,101.92,1
168.00,103.98,1
129.00,107.58,1
127.00,111.34,1
327.00,116.39,1
176.00,124.36,1
222.00,133.80,1
234.00,143.62,1
244.00,154.07,1
149.00,164.13,1
199.00,172.46,1
54.00,178.05,1
272.00,181.20,1
84.00,183.24,1
218.00,184.16,1
122.00,184.10,1
125.00,182.80,1
97.00,179.66,1
68.00,174.51,1
165.00,168.12,1
68.00,161.56,1
103.00,154.55,1
173.00,147.81,1
38.00,141.82,1
232.00,136.56,1
383.00,135.39,1
74.00,138.92,1
74.00,142.01,1
73.00,142.08,1
305.00,141.77,1
134.00,143.65,1
365.00,148.13,1
108.00,154.69,1
210.00,161.11,1
203.00,166.71,1
134.00,171.65,1
50.00,174.02,1
213.00,173.72,1
78.00,172.31,1
129.00,169.64,1
124.00,165.79,1
77.00,161.13,1
83.00,155.23,1
116.00,148.59,1
141.00,142.40,1
83.00,136.96,1
68.00,131.40,1
99.00,125.45,1
130.00,120.05,1
146.00,116.16,1
92.00,113.62,1
131.00,111.74,1
183.00,111.07,1
168.00,112.40,1
161.00,115.33,1
320.00,120.49,1
588.00,132.03,1
197.00,150.50,1
114.00,168.64,1
134.00,181.41,1
195.00,189.86,1
61.00,194.80,1
88.00,195.39,1
157.00,192.61,1
114.00,188.40,1
46.00,182.49,1
49.00,174.08,1
62.00,163.69,1
69.00,152.38,1
66.00,140.94,1
84.00,129.94,1
59.00,119.72,1
73.00,110.26,1
101.00,101.96,1
135.00,95.67,1
37.00,91.10,1
68.00,86.90,1
181.00,83.78,1
50.00,82.61,1
139.00,82.49,1
142.00,83.56,1
298.00,87.59,1
163.00,95.28,1
194.00,104.80,1
91.00,113.88,1
152.00,121.38,1
166.00,127.70,1
213.00,134.06,1
200.00,141.03,1
120.00,147.72,1
197.00,153.18,1
343.00,159.36,1
75.00,166.75,1
161.00,172.23,1
109.00,174.87,1
50.00,174.65,1
148.00,171.60,1
138.00,167.62,1
60.00,163.04,1
82.00,156.97,1
90.00,149.76,1
64.00,142.04,1
63.00,133.79,1
195.00,126.29,1
58.00,120.65,1
101.00,115.78,1
110.00,111.31,1
133.00,107.99,1
175.00,106.48,1
112.00,106.74,1
270.00,108.95,1
105.00,113.36,1
214.00,118.69,1
90.00,123.99,1
290.00,129.58,1
156.00,136.41,1
219.00,143.89,1
62.00,150.24,1
55.00,153.36,1
142.00,153.24,1
151.00,152.12,1
103.00,150.77,1
64.00,148.24,1
108.00,144.20,1
178.00,140.15,1
42.00,136.61,1
97.00,132.38,1
86.00,127.46,1
85.00,122.42,1
101.00,117.50,1
141.00,113.42,1
74.00,110.34,1
206.00,108.44,1
185.00,108.99,1
142.00,111.74,1
142.00,115.17,1
225.00,119.38,1
207.00,125.21,1
386.00,133.96,1
224.00,146.15,1
115.00,158.45,1
213.00,168.06,1
102.00,175.11,1
257.00,180.24,1
88.00,183.99,1
56.00,184.78,1
39.00,181.17,1
106.00,174.39,1
135.00,166.65,1
159.00,159.67,1
87.00,153.56,1
94.00,147.35,1
49.00,140.40,1
114.00,133.01,1
72.00,125.87,1
125.00,119.45,1
38.00,113.59,1
142.00,108.22,1
135.00,104.34,1
161.00,102.68,1
270.00,104.02,1
216.00,109.25,1
294.00,117.84,1
176.00,128.56,1
179.00,139.27,1
84.00,147.91,1
167.00,153.84,1
140.00,157.88,1
147.00,160.62,1
50.00,161.40,1
111.00,159.63,1
131.00,156.33,1
64.00,152.27,1
49.00,146.69,1
40.00,139.29,1
102.00,130.93,1
52.00,122.68,1
132.00,115.15,1
62.00,108.75,1
48.00,102.80,1
48.00,96.59,1
61.00,90.36,1
99.00,84.86,1
113.00,80.95,1
147.00,79.20,1
132.00,79.70,1
124.00,81.88,1
135.00,85.08,1
86.00,88.68,1
151.00,92.26,1
92.00,95.90,1
151.00,99.53,1
65.00,102.80,1
113.00,105.12,1
152.00,107.08,1
260.00,110.61,1
225.00,117.12,1
404.00,127.48,1
120.00,140.71,1
39.00,151.75,1
58.00,157.16,1
50.00,157.74,1
119.00,155.20,1
55.00,150.95,1
87.00,145.31,1
230.00,140.01,1
139.00,137.03,1
64.00,134.96,1
88.00,131.87,1
147.00,128.35,1
199.00,126.23,1
252.00,127.06,1
282.00,131.66,1
101.00,138.37,1
396.00,146.14,1
209.00,156.39,1
195.00,167.34,1
216.00,176.87,1
267.00,185.65,1
86.00,193.10,1
184.00,197.55,1
92.00,198.93,1
57.00,196.85,1
217.00,192.20,1
135.00,187.48,1
173.00,183.14,1
148.00,178.99,1
60.00,174.28,1
117.00,168.06,1
111.00,161.11,1
127.00,154.33,1
38.00,147.40,1
56.00,139.39,1
51.00,130.31,1
64.00,120.93,1
39.00,111.58,1
167.00,103.34,1
110.00,97.67,1
136.00,94.46,1
270.00,94.31,1
251.00,98.73,1
376.00,108.42,1
149.00,121.71,1
81.00,134.01,1
144.00,142.67,1
296.00,150.04,1
166.00,158.16,1
102.00,165.13,1
104.00,168.85,1
166.00,169.98,1
216.00,170.62,1
58.00,170.87,1
147.00,169.34,1
112.00,166.42,1
76.00,162.35,1
86.00,156.76,1
196.00,151.00,1
54.00,146.02,1
62.00,140.42,1
172.00,134.37,1
102.00,129.53,1
38.00,124.99,1
93.00,119.62,1
42.00,113.77,1
105.00,107.90,1
187.00,103.52,1
164.00,102.10,1
62.00,102.41,1
187.00,103.20,1
143.00,105.17,1
241.00,109.07,1
160.00,114.93,1
183.00,121.73,1
126.00,128.26,1
314.00,135.18,1
194.00,143.80,1
121.00,152.38,1
69.00,158.05,1
66.00,159.82,1
56.00,158.02,1
41.00,153.25,1
56.00,146.17,1
38.00,137.51,1
87.00,128.20,1
160.00,119.97,1
55.00,113.57,1
51.00,107.59,1
72.00,101.38,1
123.00,95.94,1
112.00,92.21,1
63.00,89.73,1
66.00,87.38,1
169.00,85.73,1
79.00,85.66,1
65.00,86.02,1
212.00,86.93,1
211.00,90.59,1
146.00,96.91,1
70.00,103.26,1
208.00,108.75,1
142.00,114.52,1
119.00,120.18,1
178.00,125.12,1
179.00,130.14,1
141.00,135.25,1
235.00,140.42,1
120.00,145.76,1
151.00,150.17,1
96.00,152.84,1
54.00,153.06,1
104.00,150.66,1
83.00,146.70,1
56.00,141.50,1
140.00,135.62,1
156.00,130.74,1
126.00,127.51,1
124.00,125.24,1
195.00,124.08,1
121.00,124.37,1
127.00,125.15,1
104.00,125.56,1
178.00,125.96,1
148.00,127.13,1
54.00,128.18,1
167.00,128.22,1
103.00,128.07,1
204.00,128.50,1
169.00,130.20,1
131.00,132.75,1
119.00,134.85,1
101.00,135.87,1
42.00,135.15,1
40.00,132.01,1
127.00,127.32,1
60.00,122.46,1
56.00,117.24,1
41.00,111.17,1
68.00,104.55,1
138.00,98.67,1
54.00,94.23,1
39.00,90.09,1
83.00,85.74,1
121.00,82.29,1
207.00,81.38,1
134.00,83.55,1
124.00,87.41,1
95.00,91.39,1
127.00,95.04,1
129.00,98.63,1
267.00,103.48,1
275.00,111.52,1
193.00,122.29,1
104.00,132.74,1
246.00,141.65,1
226.00,150.53,1
149.00,159.29,1
96.00,165.80,1
89.00,168.77,1
52.00,168.08,1
152.00,164.80,1
51.00,160.21,1
61.00,154.01,1
62.00,146.10,1
58.00,137.26,1
38.00,127.75,1
56.00,117.84,1
192.00,109.24,1
55.00,103.20,1
44.00,98.05,1
124.00,93.11,1
71.00,89.27,1
47.00,86.00,1
182.00,83.54,1
48.00,82.72,1
90.00,82.39,1
242.00,83.31,1
169.00,87.41,1
94.00,93.26,1
111.00,98.48,1
141.00,102.98,1
153.00,107.50,1
180.00,112.58,1
116.00,117.93,1
133.00,122.61,1
94.00,126.03,1
138.00,128.25,1
213.00,130.52,1
183.00,134.13,1
56.00,137.69,1
152.00,139.52,1
54.00,139.70,1
45.00,137.70,1
124.00,133.83,1
101.00,129.71,1
87.00,125.70,1
87.00,121.48,1
120.00,117.41,1
93.00,113.90,1
167.00,111.38,1
76.00,109.93,1
123.00,108.86,1
99.00,107.92,1
70.00,106.87,1
151.00,105.77,1
175.00,105.96,1
93.00,107.52,1
121.00,109.14,1
287.00,111.93,1
153.00,117.38,1
231.00,124.44,1
119.00,131.78,1
271.00,139.13,1
257.00,147.72,1
37.00,156.18,1
72.00,160.75,1
56.00,160.83,1
74.00,157.65,1
60.00,152.21,1
85.00,145.34,1
60.00,137.67,1
45.00,129.35,1
42.00,120.32,1
80.00,111.19,1
58.00,102.72,1
175.00,95.95,1
264.00,93.18,1
194.00,95.50,1
293.00,101.85,1
74.00,110.43,1
156.00,118.23,1
209.00,125.17,1
39.00,131.37,1
254.00,136.21,1
130.00,140.97,1
116.00,145.14,1
190.00,148.07,1
209.00,151.23,1
158.00,154.95,1
176.00,158.45,1
64.00,160.61,1
155.00,160.72,1
105.00,159.43,1
126.00,157.25,1
45.00,153.72,1
36.00,148.04,1
61.00,140.29,1
72.00,131.66,1
115.00,123.39,1
79.00,116.18,1
41.00,109.44,1
84.00,102.75,1
108.00,96.88,1
138.00,92.86,1
150.00,91.16,1
94.00,91.25,1
159.00,92.43,1
191.00,95.27,1
126.00,99.76,1
153.00,104.81,1
194.00,110.37,1
157.00,116.70,1
180.00,123.36,1
117.00,129.58,1
180.00,134.93,1
69.00,139.05,1
173.00,141.64,1
186.00,143.89,1
200.00,146.99,1
153.00,150.60,1
169.00,153.94,1
38.00,155.77,1
196.00,155.64,1
66.00,154.49,1
38.00,151.53,1
64.00,145.98,1
44.00,138.65,1
128.00,130.80,1
82.00,123.66,1
193.00,118.15,1
71.00,114.52,1
65.00,111.28,1
61.00,107.31,1
64.00,102.81,1
124.00,98.58,1
94.00,95.46,1
184.00,94.02,1
196.00,95.31,1
244.00,99.91,1
170.00,107.14,1
155.00,115.20,1
144.00,122.68,1
191.00,129.54,1
201.00,136.48,1
112.00,143.06,1
154.00,148.11,1
113.00,151.46,1
208.00,153.86,1
37.00,155.27,1
153.00,154.81,1
46.00,152.54,1
40.00,148.13,1
65.00,141.45,1
46.00,133.48,1
67.00,124.87,1
127.00,116.74,1
78.00,109.99,1
129.00,104.64,1
148.00,101.10,1
128.00,99.68,1
104.00,99.49,1
115.00,99.79,1
128.00,100.54,1
98.00,101.65,1
148.00,103.04,1
174.00,105.38,1
125.00,108.82,1
87.00,112.06,1
89.00,114.03,1
185.00,115.47,1
216.00,118.32,1
212.00,123.39,1
212.00,130.23,1
72.00,136.98,1
216.00,142.31,1
221.00,147.65,1
241.00,154.30,1
66.00,160.60,1
140.00,164.31,1
75.00,165.10,1
236.00,164.58,1
56.00,163.73,1
69.00,161.09,1
72.00,155.99,1
66.00,149.27,1
92.00,141.64,1
127.00,134.27,1
80.00,127.75,1
119.00,121.93,1
64.00,116.63,1
145.00,111.99,1
359.00,110.67,1
117.00,114.10,1
51.00,118.26,1
127.00,120.38,1
185.00,122.06,1
190.00,124.98,1
492.00,131.79,1
197.00,143.85,1
125.00,156.60,1
82.00,165.45,1
169.00,170.53,1
218.00,174.01,1
147.00,177.11,1
160.00,179.16,1
125.00,179.69,1
146.00,178.73,1
84.00,176.23,1
73.00,171.71,1
208.00,166.19,1
98.00,161.35,1
240.00,157.66,1
64.00,154.96,1
91.00,151.59,1
52.00,146.48,1
38.00,139.67,1
83.00,131.62,1
46.00,123.21,1
55.00,114.65,1
48.00,106.03,1
124.00,98.25,1
110.00,92.45,1
213.00,89.63,1
128.00,90.00,1
152.00,92.46,1
141.00,96.01,1
152.00,100.38,1
72.00,104.66,1
286.00,109.27,1
233.00,116.40,1
202.00,125.88,1
116.00,135.15,1
219.00,143.13,1
148.00,150.26,1
198.00,156.61,1
117.00,161.70,1
110.00,164.70,1
53.00,164.76,1
146.00,162.34,1
60.00,158.46,1
115.00,153.41,1
78.00,147.56,1
88.00,141.20,1
54.00,134.24,1
78.00,126.79,1
42.00,118.99,1
105.00,111.33,1
41.00,104.25,1
99.00,97.78,1
201.00,93.27,1
175.00,92.33,1
57.00,93.63,1
149.00,95.15,1
141.00,97.25,1
153.00,100.47,1
72.00,103.88,1
85.00,106.20,1
56.00,106.90,1
73.00,106.12,1
189.00,105.25,1
181.00,106.35,1
173.00,109.67,1
110.00,113.84,1
159.00,117.81,1
107.00,121.35,1
106.00,123.99,1
58.00,125.01,1
109.00,124.38,1
115.00,123.02,1
130.00,121.80,1
44.00,120.31,1
39.00,117.31,1
87.00,112.88,1
289.00,109.93,1
41.00,109.89,1
76.00,109.91,1
61.00,108.40,1
38.00,105.64,1
93.00,101.94,1
97.00,98.41,1
136.00,95.97,1
108.00,94.87,1
119.00,94.80,1
166.00,95.84,1
128.00,98.24,1
76.00,100.92,1
154.00,103.21,1
227.00,106.60,1
177.00,112.13,1
201.00,119.11,1
176.00,126.71,1
150.00,134.10,1
141.00,140.39,1
69.00,144.66,1
94.00,146.21,1
69.00,145.23,1
312.00,144.17,1
59.00,144.84,1
119.00,145.09,1
64.00,143.48,1
60.00,140.06,1
70.00,134.93,1
118.00,129.19,1
46.00,123.45,1
152.00,118.00,1
210.00,114.56,1
83.00,113.62,1
64.00,112.78,1
53.00,110.60,1
136.00,107.80,1
128.00,105.85,1
93.00,104.88,1
49.00,103.68,1
180.00,102.40,1
206.00,103.16,1
127.00,106.29,1
184.00,110.49,1
212.00,115.86,1
157.00,122.44,1
141.00,128.89,1
211.00,134.91,1
120.00,140.67,1
127.00,145.17,1
119.00,147.88,1
54.00,148.49,1
161.00,147.25,1
62.00,145.06,1
78.00,141.61,1
125.00,137.14,1
38.00,132.22,1
87.00,126.49,1
144.00,120.90,1
42.00,116.09,1
148.00,111.71,1
56.00,107.95,1
80.00,104.32,1
159.00,101.22,1
100.00,99.63,1
97.00,98.89,1
127.00,98.53,1
179.00,99.38,1
46.00,101.12,1
115.00,102.30,1
151.00,103.33,1
185.00,105.71,1
259.00,110.46,1
223.00,118.09,1
148.00,127.06,1
127.00,135.02,1
62.00,140.44,1
140.00,143.13,1
96.00,144.07,1
154.00,144.04,1
147.00,143.80,1
138.00,143.72,1
73.00,143.00,1
72.00,140.68,1
55.00,136.47,1
37.00,130.55,1
50.00,123.20,1
114.00,115.60,1
45.00,108.68,1
39.00,101.82,1
53.00,94.70,1
89.00,88.09,1
53.00,82.50,1
91.00,77.89,1
104.00,74.62,1
92.00,72.91,1
48.00,71.98,1
160.00,71.78,1
187.00,73.83,1
266.00,79.55,1
250.00,89.26,1
47.00,100.43,1
132.00,109.53,1
222.00,117.23,1
177.00,125.45,1
126.00,133.34,1
201.00,140.14,1
112.00,145.96,1
190.00,150.64,1
128.00,154.34,1
224.00,157.59,1
35.00,159.89,1
146.00,159.97,1
63.00,157.93,1
135.00,154.49,1
76.00,150.13,1
77.00,144.86,1
55.00,138.40,1
79.00,131.11,1
38.00,123.29,1
39.00,114.85,1
96.00,106.38,1
184.00,99.86,1
98.00,96.27,1
113.00,94.43,1
163.00,93.93,1
202.00,95.73,1
82.00,99.30,1
150.00,102.99,1
173.00,106.97,1
131.00,111.66,1
203.00,116.81,1
100.00,122.12,1
136.00,126.57,1
154.00,130.11,1
152.00,133.43,1
123.00,136.34,1
182.00,138.84,1
55.00,140.63,1
283.00,142.09,1
37.00,143.95,1
80.00,144.22,1
66.00,141.84,1
63.00,137.57,1
76.00,132.02,1
89.00,125.94,1
92.00,120.00,1
120.00,114.77,1
84.00,110.44,1
127.00,106.93,1
73.00,104.12,1
135.00,101.91,1
132.00,100.80,1
142.00,101.09,1
105.00,102.26,1
84.00,103.37,1
290.00,105.46,1
217.00,110.87,1
237.00,119.29,1
207.00,129.16,1
147.00,139.01,1
56.00,146.50,1
222.00,151.32,1
154.00,155.38,1
199.00,159.36,1
109.00,162.57,1
130.00,164.15,1
39.00,163.25,1
70.00,159.45,1
80.00,153.41,1
38.00,145.94,1
52.00,137.17,1
50.00,127.56,1
60.00,117.78,1
142.00,109.03,1
42.00,101.97,1
97.00,95.90,1
59.00,90.56,1
133.00,86.38,1
129.00,84.12,1
92.00,83.62,1
43.00,83.41,1
50.00,82.38,1
107.00,80.94,1
158.00,80.65,1
102.00,82.10,1
194.00,85.11,1
174.00,90.05,1
164.00,96.67,1
70.00,103.24,1
160.00,108.64,1
142.00,113.55,1
92.00,117.96,1
130.00,121.19,1
71.00,123.13,1
106.00,123.66,1
67.00,122.84,1
55.00,120.61,1
180.00,117.86,1
38.00,115.63,1
260.00,114.38,1
77.00,114.91,1
64.00,115.46,1
95.00,114.54,1
75.00,112.76,1
50.00,110.09,1
42.00,106.23,1
59.00,101.36,1
175.00,97.08,1
84.00,94.72,1
109.00,93.55,1
126.00,93.10,1
229.00,94.60,1
182.00,99.00,1
103.00,104.84,1
79.00,109.67,1
146.00,113.05,1
42.00,115.29,1
140.00,116.22,1
106.00,116.62,1
160.00,117.30,1
94.00,118.25,1
110.00,118.83,1
51.00,118.36,1
70.00,116.39,1
72.00,113.23,1
59.00,109.36,1
87.00,105.09,1
55.00,100.74,1
49.00,96.14,1
85.00,91.43,1
60.00,87.13,1
115.00,83.63,1
84.00,81.30,1
75.00,79.79,1
106.00,78.82,1
135.00,78.97,1
121.00,80.57,1
142.00,83.44,1
143.00,87.39,1
182.00,92.53,1
167.00,98.95,1
144.00,106.01,1
166.00,112.99,1
142.00,119.68,1
170.00,125.93,1
106.00,131.37,1
174.00,135.76,1
111.00,139.28,1
182.00,142.12,1
71.00,144.10,1
140.00,144.66,1
103.00,144.05,1
215.00,143.46,1
44.00,143.05,1
82.00,141.19,1
64.00,137.33,1
50.00,132.02,1
81.00,125.65,1
131.00,119.49,1
40.00,114.03,1
92.00,108.62,1
53.00,103.21,1
84.00,98.01,1
44.00,93.01,1
106.00,88.44,1
201.00,85.84,1
136.00,86.34,1
127.00,88.82,1
119.00,91.99,1
148.00,95.59,1
194.00,100.20,1
149.00,106.04,1
148.00,112.26,1
156.00,118.24,1
108.00,123.58,1
157.00,127.92,1
82.00,131.15,1
116.00,132.90,1
56.00,132.89,1
200.00,132.01,1
122.00,131.76,1
214.00,132.66,1
96.00,134.30,1
98.00,135.27,1
57.00,134.44,1
74.00,131.72,1
71.00,127.58,1
149.00,123.23,1
245.00,120.91,1
46.00,120.83,1
177.00,121.02,1
113.00,121.40,1
38.00,121.32,1
133.00,119.91,1
237.00,119.35,1
42.00,120.34,1
123.00,120.78,1
419.00,122.94,1
49.00,128.86,1
51.00,133.78,1
62.00,134.80,1
237.00,134.55,1
191.00,135.90,1
154.00,138.81,1
204.00,142.24,1
314.00,147.39,1
183.00,154.80,1
80.00,161.61,1
407.00,167.63,1
43.00,174.43,1
100.00,178.71,1
246.00,180.08,1
42.00,180.41,1
207.00,179.14,1
56.00,176.49,1
52.00,171.72,1
83.00,164.39,1
334.00,157.96,1
56.00,154.53,1
77.00,151.14,1
155.00,146.59,1
108.00,142.38,1
61.00,138.05,1
45.00,132.47,1
53.00,125.50,1
268.00,119.51,1
90.00,116.62,1
107.00,115.14,1
84.00,113.43,1
127.00,111.69,1
194.00,111.08,1
54.00,111.65,1
78.00,111.52,1
128.00,110.54,1
207.00,110.60,1
112.00,112.41,1
60.00,114.13,1
208.00,115.30,1
166.00,117.68,1
70.00,120.63,1
141.00,122.59,1
170.00,124.34,1
68.00,126.09,1
102.00,126.63,1
125.00,126.13,1
323.00,127.15,1
60.00,130.58,1
42.00,132.89,1
112.00,132.37,1
50.00,130.19,1
126.00,127.02,1
116.00,123.87,1
64.00,120.86,1
107.00,117.48,1
48.00,113.71,1
87.00,109.50,1
190.00,106.08,1
255.00,105.94,1
291.00,110.51,1
257.00,119.46,1
42.00,129.33,1
124.00,136.41,1
129.00,140.74,1
157.00,143.84,1
191.00,146.68,1
127.00,149.49,1
228.00,152.25,1
176.00,155.60,1
292.00,160.22,1
152.00,166.00,1
158.00,171.14,1
40.00,173.59,1
160.00,172.95,1
43.00,170.09,1
51.00,164.75,1
54.00,156.83,1
68.00,147.51,1
279.00,139.43,1
150.00,135.15,1
43.00,132.57,1
231.00,130.09,1
68.00,128.66,1
88.00,127.08,1
66.00,124.25,1
127.00,120.84,1
127.00,117.94,1
137.00,116.12,1
130.00,115.29,1
132.00,115.23,1
176.00,116.07,1
136.00,118.00,1
230.00,121.16,1
135.00,125.59,1
174.00,130.38,1
148.00,134.93,1
166.00,139.18,1
140.00,142.94,1
170.00,146.16,1
136.00,148.86,1
102.00,150.49,1
60.00,150.04,1
48.00,146.92,1
188.00,142.53,1
127.00,139.05,1
51.00,135.87,1
59.00,131.33,1
46.00,125.32,1
44.00,118.21,1
73.00,110.60,1
281.00,105.03,1
148.00,103.79,1
152.00,105.50,1
123.00,108.05,1
101.00,110.55,1
123.00,112.49,1
103.00,113.97,1
122.00,115.05,1
140.00,116.09,1
204.00,118.06,1
202.00,121.85,1
126.00,126.78,1
284.00,132.43,1
214.00,139.87,1
70.00,147.36,1
267.00,153.32,1
137.00,158.91,1
178.00,163.85,1
141.00,167.42,1
158.00,169.69,1
51.00,169.99,1
151.00,168.01,1
62.00,164.35,1
72.00,159.02,1
159.00,152.72,1
64.00,146.63,1
124.00,140.55,1
43.00,134.23,1
135.00,127.84,1
144.00,122.54,1
186.00,119.49,1
170.00,118.88,1
108.00,119.73,1
112.00,120.53,1
90.00,120.64,1
157.00,120.45,1
176.00,121.11,1
107.00,122.70,1
42.00,123.42,1
82.00,122.15,1
200.00,120.50,1
218.00,121.06,1
103.00,123.61,1
110.00,125.88,1
144.00,127.30,1
140.00,128.62,1
146.00,130.08,1
159.00,131.77,1
227.00,134.41,1
132.00,138.14,1
171.00,141.89,1
82.00,144.64,1
113.00,145.65,1
82.00,144.84,1
145.00,142.92,1
89.00,140.54,1
137.00,137.90,1
137.00,135.46,1
89.00,133.26,1
62.00,130.29,1
63.00,125.99,1
86.00,120.81,1
134.00,115.94,1
127.00,112.37,1
155.00,110.46,1
161.00,110.29,1
60.00,110.94,1
69.00,110.66,1
291.00,110.84,1
279.00,114.99,1
160.00,122.71,1
172.00,130.91,1
152.00,138.23,1
324.00,145.85,1
100.00,154.26,1
92.00,160.66,1
148.00,163.75,1
157.00,165.19,1
77.00,165.26,1
194.00,164.03,1
84.00,162.21,1
76.00,159.08,1
147.00,154.59,1
86.00,149.82,1
77.00,144.53,1
94.00,138.49,1
86.00,132.23,1
41.00,125.64,1
67.00,118.41,1
56.00,110.89,1
144.00,104.17,1
134.00,99.59,1
101.00,97.05,1
160.00,96.02,1
126.00,96.59,1
114.00,98.17,1
99.00,99.86,1
110.00,101.34,1
328.00,104.45,1
203.00,111.41,1
44.00,119.48,1
118.00,125.04,1
174.00,128.88,1
223.00,133.23,1
149.00,138.49,1
125.00,143.24,1
97.00,146.22,1
151.00,147.51,1
133.00,148.01,1
213.00,148.71,1
58.00,149.42,1
103.00,148.57,1
68.00,145.75,1
76.00,141.37,1
45.00,135.56,1
114.00,128.98,1
47.00,122.35,1
303.00,117.49,1
108.00,116.16,1
67.00,116.15,1
172.00,115.73,1
79.00,115.63,1
132.00,115.55,1
130.00,115.58,1
53.00,115.45,1
137.00,114.64,1
249.00,114.99,1
112.00,117.68,1
154.00,121.02,1
161.00,124.35,1
191.00,128.28,1
181.00,133.03,1
175.00,138.27,1
194.00,143.68,1
108.00,148.58,1
212.00,152.54,1
48.00,155.29,1
85.00,155.46,1
87.00,152.97,1
40.00,148.51,1
37.00,141.84,1
127.00,134.10,1
72.00,126.78,1
47.00,119.67,1
67.00,112.23,1
57.00,104.84,1
138.00,98.39,1
69.00,93.55,1
43.00,89.42,1
108.00,85.50,1
167.00,83.21,1
139.00,83.56,1
299.00,87.21,1
195.00,94.79,1
214.00,104.94,1
338.00,117.16,1
264.00,132.14,1
227.00,148.22,1
230.00,163.38,1
175.00,176.62,1
143.00,186.81,1
87.00,192.92,1
132.00,194.90,1
63.00,193.39,1
252.00,190.05,1
202.00,187.59,1
212.00,186.70,1
68.00,185.59,1
161.00,182.80,1
127.00,178.93,1
200.00,175.16,1
67.00,171.41,1
62.00,166.18,1
66.00,158.81,1
40.00,149.90,1
159.00,140.68,1
122.00,132.99,1
44.00,126.45,1
90.00,119.77,1
390.00,115.82,1
115.00,117.12,1
168.00,120.82,1
57.00,123.83,1
122.00,125.37,1
124.00,125.90,1
172.00,126.61,1
188.00,128.40,1
99.00,130.86,1
222.00,133.44,1
47.00,135.87,1
40.00,136.12,1
344.00,135.71,1
492.00,140.98,1
152.00,152.69,1
221.00,164.94,1
638.00,178.97,1
291.00,198.46,1
168.00,218.25,1
132.00,232.38,1
139.00,240.12,1
98.00,242.23,1
51.00,239.03,1
52.00,230.73,1
92.00,218.75,1
241.00,206.38,1
129.00,195.97,1
86.00,186.42,1
104.00,176.35,1
90.00,166.04,1
90.00,155.81,1
150.00,146.37,1
169.00,138.99,1
84.00,133.51,1
350.00,130.61,1
77.00,131.26,1
298.00,134.06,1
450.00,141.02,1
417.00,155.15,1
234.00,173.29,1
243.00,190.66,1
315.00,206.12,1
132.00,219.36,1
54.00,227.41,1
293.00,230.34,1
212.00,232.01,1
234.00,233.46,1
87.00,233.19,1
210.00,230.37,1
232.00,226.73,1
85.00,222.73,1
150.00,216.90,1
218.00,210.27,1
172.00,204.55,1
137.00,199.21,1
37.00,192.57,1
83.00,183.59,1
57.00,172.89,1
133.00,161.77,1
73.00,151.24,1
97.00,141.34,1
44.00,131.71,1
190.00,123.13,1
244.00,118.05,1
168.00,117.27,1
133.00,118.67,1
55.00,119.85,1
307.00,121.32,1
127.00,125.01,1
88.00,129.05,1
195.00,131.97,1
252.00,135.87,1
250.00,142.20,1
272.00,150.77,1
126.00,159.92,1
67.00,166.47,1
38.00,168.34,1
185.00,166.91,1
157.00,164.98,1
180.00,163.67,1
537.00,166.01,1
58.00,173.18,1
83.00,178.99,1
160.00,180.67,1
82.00,179.99,1
111.00,177.15,1
64.00,172.13,1
70.00,165.21,1
123.00,157.20,1
70.00,149.11,1
151.00,141.46,1
68.00,134.60,1
116.00,128.27,1
101.00,122.53,1
91.00,117.50,1
244.00,114.16,1
177.00,114.08,1
43.00,115.55,1
383.00,118.19,1
642.00,128.17,1
290.00,147.79,1
174.00,169.38,1
256.00,187.57,1
72.00,201.46,1
100.00,209.51,1
133.00,212.00,1
46.00,210.35,1
238.00,205.95,1
216.00,201.89,1
38.00,197.98,1
232.00,192.82,1
72.00,187.26,1
133.00,181.07,1
100.00,173.99,1
74.00,166.24,1
52.00,157.34,1
136.00,147.98,1
94.00,139.43,1
198.00,132.63,1
229.00,129.02,1
79.00,128.05,1
247.00,128.32,1
74.00,129.62,1
97.00,130.40,1
70.00,129.46,1
111.00,127.34,1
89.00,124.68,1
67.00,121.45,1
143.00,118.02,1
111.00,115.35,1
504.00,116.68,1
226.00,125.01,1
200.00,136.74,1
209.00,148.03,1
231.00,158.74,1
97.00,167.97,1
174.00,174.41,1
310.00,179.77,1
245.00,186.49,1
43.00,192.39,1
104.00,194.05,1
198.00,192.61,1
198.00,190.92,1
98.00,189.04,1
127.00,185.67,1
64.00,180.42,1
56.00,173.01,1
105.00,163.97,1
164.00,155.23,1
203.00,148.72,1
63.00,144.10,1
43.00,138.90,1
37.00,131.93,1
74.00,123.86,1
192.00,116.74,1
60.00,111.77,1
122.00,107.88,1
64.00,104.40,1
169.00,101.77,1
159.00,101.02,1
155.00,102.43,1
116.00,104.95,1
115.00,107.54,1
208.00,110.53,1
217.00,115.31,1
182.00,121.94,1
234.00,129.68,1
314.00,139.23,1
217.00,150.80,1
185.00,162.30,1
60.00,171.02,1
164.00,175.85,1
96.00,177.71,1
122.00,177.18,1
110.00,174.65,1
85.00,170.44,1
64.00,164.43,1
54.00,156.62,1
82.00,147.56,1
40.00,137.91,1
144.00,128.55,1
52.00,120.32,1
66.00,112.68,1
148.00,105.90,1
168.00,101.64,1
94.00,99.79,1
68.00,98.59,1
142.00,97.49,1
147.00,97.57,1
265.00,100.16,1
193.00,106.04,1
186.00,113.91,1
177.00,122.25,1
177.00,130.48,1
260.00,138.96,1
148.00,147.81,1
185.00,155.78,1
101.00,161.79,1
158.00,165.50,1
137.00,167.44,1
214.00,168.71,1
112.00,169.69,1
131.00,169.53,1
80.00,167.56,1
133.00,164.04,1
74.00,159.41,1
101.00,153.79,1
71.00,147.30,1
37.00,139.82,1
64.00,131.21,1
296.00,124.13,1
40.00,120.40,1
287.00,119.08,1
40.00,119.56,1
124.00,120.02,1
76.00,119.40,1
150.00,118.50,1
285.00,119.36,1
432.00,125.69,1
74.00,136.50,1
151.00,146.24,1
102.00,152.72,1
187.00,157.08,1
298.00,161.59,1
219.00,167.98,1
214.00,175.15,1
146.00,181.36,1
209.00,185.99,1
171.00,189.42,1
180.00,191.81,1
128.00,192.72,1
211.00,192.38,1
106.00,191.18,1
75.00,188.08,1
65.00,182.20,1
45.00,173.74,1
127.00,163.89,1
113.00,154.39,1
409.00,148.41,1
84.00,147.37,1
64.00,147.02,1
70.00,144.17,1
56.00,139.39,1
99.00,133.48,1
102.00,127.52,1
80.00,121.94,1
129.00,116.90,1
380.00,115.16,1
186.00,118.96,1
160.00,125.47,1
169.00,131.86,1
151.00,137.72,1
182.00,143.01,1
151.00,147.81,1
304.00,153.08,1
174.00,159.78,1
244.00,167.00,1
128.00,173.50,1
186.00,178.35,1
135.00,181.41,1
129.00,182.58,1
44.00,181.05,1
118.00,176.71,1
60.00,170.36,1
88.00,162.61,1
40.00,153.62,1
98.00,143.92,1
80.00,134.42,1
38.00,125.21,1
70.00,115.91,1
159.00,107.79,1
55.00,101.73,1
77.00,96.63,1
87.00,92.00,1
84.00,88.21,1
101.00,85.36,1
91.00,83.48,1
141.00,82.80,1
151.00,83.89,1
185.00,87.15,1
167.00,92.42,1
172.00,99.08,1
171.00,106.50,1
115.00,113.81,1
204.00,120.60,1
165.00,127.46,1
170.00,134.28,1
248.00,141.25,1
161.00,148.70,1
192.00,155.75,1
127.00,161.51,1
216.00,166.03,1
103.00,169.44,1
168.00,171.29,1
64.00,171.21,1
92.00,168.69,1
59.00,163.75,1
46.00,156.71,1
141.00,148.61,1
53.00,140.70,1
180.00,133.57,1
55.00,127.60,1
47.00,121.64,1
89.00,115.07,1
42.00,108.45,1
96.00,102.07,1
44.00,96.14,1
61.00,90.48,1
84.00,85.25,1
184.00,81.85,1
97.00,81.10,1
256.00,83.07,1
210.00,88.59,1
186.00,97.00,1
94.00,105.79,1
251.00,114.14,1
519.00,125.96,1
224.00,143.19,1
246.00,161.56,1
288.00,178.48,1
458.00,196.01,1
299.00,215.21,1
101.00,232.25,1
148.00,242.95,1
152.00,247.60,1
62.00,247.16,1
58.00,241.37,1
117.00,231.50,1
193.00,220.36,1
48.00,209.15,1
126.00,197.13,1
131.00,185.03,1
226.00,174.79,1
44.00,166.42,1
217.00,158.94,1
48.00,152.34,1
134.00,145.99,1
119.00,139.92,1
156.00,135.05,1
834.00,137.32,1
388.00,152.89,1
399.00,176.25,1
361.00,200.94,1
63.00,222.85,1
142.00,237.35,1
78.00,244.12,1
379.00,246.68,1
121.00,248.39,1
163.00,247.96,1
148.00,244.40,1
235.00,239.36,1
191.00,234.30,1
83.00,228.49,1
121.00,220.47,1
62.00,210.30,1
84.00,198.32,1
419.00,188.01,1
256.00,183.69,1
66.00,182.60,1
80.00,179.60,1
60.00,173.69,1
204.00,166.78,1
81.00,160.55,1
39.00,153.85,1
392.00,148.22,1
175.00,147.33,1
755.00,154.13,1
281.00,170.53,1
66.00,188.78,1
172.00,201.21,1
137.00,208.50,1
56.00,211.30,1
74.00,209.13,1
68.00,202.73,1
49.00,193.36,1
112.00,182.15,1
101.00,170.69,1
88.00,159.66,1
151.00,149.53,1
154.00,141.38,1
143.00,135.52,1
38.00,130.53,1
92.00,124.98,1
222.00,120.31,1
257.00,119.36,1
173.00,122.19,1
110.00,126.22,1
195.00,129.98,1
44.00,133.03,1
108.00,134.17,1
138.00,133.87,1
342.00,135.21,1
139.00,139.72,1
147.00,144.88,1
619.00,152.70,1
195.00,166.71,1
59.00,180.69,1
81.00,188.51,1
79.00,190.71,1
127.00,189.00,1
566.00,188.88,1
62.00,193.50,1
296.00,198.78,1
72.00,202.23,1
202.00,203.46,1
187.00,203.10,1
182.00,202.38,1
176.00,201.15,1
119.00,198.93,1
346.00,196.94,1
138.00,196.80,1
389.00,198.55,1
156.00,202.18,1
146.00,205.24,1
188.00,206.03,1
164.00,205.48,1
60.00,202.99,1
64.00,197.23,1
126.00,188.95,1
48.00,179.39,1
203.00,169.68,1
357.00,163.42,1
39.00,161.22,1
152.00,159.06,1
88.00,155.74,1
153.00,152.03,1
107.00,148.31,1
356.00,146.58,1
414.00,150.71,1
65.00,159.17,1
148.00,166.06,1
148.00,169.99,1
177.00,172.50,1
164.00,174.20,1
286.00,176.27,1
153.00,179.40,1
96.00,181.53,1
67.00,180.53,1
254.00,177.76,1
66.00,175.08,1
108.00,171.33,1
83.00,165.79,1
52.00,158.78,1
47.00,150.11,1
187.00,141.29,1
135.00,134.51,1
274.00,130.97,1
90.00,130.41,1
111.00,130.34,1
314.00,131.15,1
72.00,134.13,1
160.00,137.06,1
48.00,138.38,1
200.00,138.59,1
62.00,138.38,1
340.00,139.15,1
346.00,144.11,1
50.00,152.09,1
169.00,158.20,1
60.00,161.30,1
145.00,161.87,1
226.00,161.71,1
57.00,161.65,1
428.00,162.62,1
346.00,168.37,1
110.00,177.38,1
40.00,183.33,1
352.00,186.25,1
121.00,189.47,1
82.00,191.21,1
132.00,189.70,1
85.00,185.83,1
499.00,183.37,1
317.00,186.99,1
75.00,193.57,1
159.00,197.33,1
107.00,197.78,1
150.00,195.88,1
97.00,192.11,1
219.00,187.52,1
48.00,182.66,1
221.00,177.36,1
187.00,173.06,1
277.00,171.28,1
335.00,173.15,1
274.00,178.87,1
90.00,185.36,1
240.00,189.91,1
212.00,193.54,1
220.00,197.22,1
244.00,200.90,1
60.00,203.39,1
660.00,207.04,1
167.00,215.79,1
216.00,225.31,1
43.00,230.37,1
147.00,230.33,1
86.00,226.14,1
76.00,218.72,1
124.00,208.81,1
68.00,197.60,1
333.00,187.45,1
211.00,181.37,1
57.00,177.46,1
202.00,172.98,1
109.00,168.57,1
105.00,163.97,1
104.00,158.55,1
87.00,152.49,1
94.00,145.90,1
140.00,139.50,1
63.00,133.64,1
162.00,128.31,1
108.00,124.10,1
86.00,120.63,1
96.00,117.12,1
275.00,115.15,1
296.00,117.67,1
75.00,123.47,1
398.00,130.79,1
134.00,140.36,1
354.00,151.41,1
251.00,163.89,1
231.00,176.96,1
127.00,187.99,1
68.00,194.70,1
378.00,198.64,1
127.00,202.93,1
142.00,205.86,1
203.00,206.37,1
227.00,206.33,1
136.00,206.03,1
279.00,205.42,1
567.00,208.57,1
46.00,216.23,1
119.00,221.35,1
134.00,221.34,1
222.00,219.03,1
92.00,215.56,1
53.00,209.57,1
163.00,201.08,1
284.00,193.46,1
138.00,188.48,1
135.00,184.22,1
211.00,180.00,1
273.00,177.71,1
399.00,179.64,1
145.00,185.25,1
208.00,190.81,1
127.00,194.41,1
163.00,195.89,1
87.00,194.99,1
143.00,191.80,1
77.00,186.74,1
55.00,179.64,1
89.00,170.60,1
127.00,161.04,1
86.00,151.99,1
74.00,143.18,1
402.00,136.99,1
108.00,135.95,1
43.00,136.14,1
222.00,135.22,1
211.00,135.84,1
139.00,138.30,1
76.00,140.25,1
239.00,141.48,1
121.00,143.32,1
90.00,144.70,1
172.00,144.88,1
156.00,145.10,1
97.00,145.27,1
242.00,145.50,1
332.00,148.45,1
162.00,154.61,1
180.00,161.09,1
180.00,166.49,1
332.00,172.32,1
159.00,179.35,1
201.00,185.81,1
460.00,193.03,1
97.00,202.22,1
114.00,208.86,1
114.00,210.55,1
61.00,208.17,1
57.00,201.87,1
62.00,192.29,1
177.00,181.57,1
58.00,171.32,1
95.00,161.06,1
88.00,150.69,1
81.00,140.73,1
116.00,131.53,1
62.00,123.28,1
230.00,116.83,1
99.00,113.23,1
146.00,111.53,1
296.00,112.24,1
254.00,117.36,1
153.00,125.30,1
175.00,133.28,1
227.00,140.98,1
304.00,149.85,1
124.00,159.61,1
64.00,166.81,1
214.00,170.57,1
84.00,172.54,1
119.00,172.44,1
133.00,170.41,1
199.00,168.06,1
55.00,165.54,1
102.00,161.55,1
45.00,155.66,1
52.00,148.06,1
143.00,139.80,1
50.00,132.10,1
59.00,124.36,1
120.00,116.75,1
119.00,110.57,1
127.00,106.22,1
96.00,103.29,1
50.00,100.69,1
59.00,97.50,1
144.00,94.43,1
187.00,93.38,1
232.00,95.72,1
188.00,101.33,1
248.00,109.35,1
206.00,119.17,1
194.00,129.80,1
177.00,139.95,1
275.00,149.85,1
95.00,159.21,1
245.00,166.94,1
140.00,173.28,1
306.00,179.24,1
148.00,185.30,1
46.00,189.13,1
167.00,189.13,1
38.00,186.31,1
97.00,180.79,1
72.00,173.14,1
44.00,163.94,1
98.00,153.64,1
58.00,143.20,1
86.00,133.00,1
227.00,124.62,1
189.00,120.18,1
88.00,118.58,1
110.00,117.37,1
395.00,118.40,1
247.00,124.85,1
276.00,135.24,1
52.00,145.71,1
185.00,153.50,1
39.00,158.17,1
256.00,160.77,1
109.00,162.88,1
166.00,164.38,1
204.00,165.43,1
261.00,167.66,1
89.00,170.55,1
178.00,172.20,1
74.00,172.05,1
38.00,169.21,1
76.00,163.34,1
66.00,155.57,1
78.00,146.87,1
85.00,137.94,1
63.00,129.16,1
70.00,120.55,1
182.00,113.20,1
124.00,108.49,1
127.00,105.97,1
112.00,104.59,1
92.00,103.75,1
88.00,102.86,1
109.00,101.89,1
167.00,101.70,1
206.00,103.58,1
139.00,107.51,1
215.00,112.73,1
158.00,118.99,1
174.00,125.67,1
158.00,132.08,1
243.00,138.64,1
100.00,145.21,1
122.00,150.06,1
161.00,152.97,1
326.00,156.49,1
174.00,162.17,1
85.00,167.40,1
78.00,169.28,1
99.00,167.96,1
89.00,164.43,1
312.00,161.18,1
63.00,159.79,1
68.00,157.63,1
83.00,153.08,1
105.00,147.35,1
60.00,141.03,1
56.00,133.90,1
66.00,125.98,1
174.00,118.79,1
96.00,113.62,1
328.00,111.71,1
106.00,113.65,1
155.00,117.12,1
151.00,120.58,1
267.00,125.21,1
165.00,131.63,1
113.00,138.03,1
297.00,144.03,1
154.00,150.96,1
268.00,158.46,1
113.00,165.55,1
181.00,171.04,1
36.00,173.75,1
90.00,172.90,1
44.00,168.70,1
243.00,163.40,1
103.00,159.21,1
78.00,155.12,1
160.00,150.35,1
50.00,145.44,1
127.00,140.10,1
67.00,134.48,1
65.00,128.44,1
107.00,122.11,1
336.00,118.34,1
136.00,119.20,1
116.00,121.90,1
166.00,124.33,1
77.00,126.40,1
247.00,128.49,1
220.00,132.36,1
135.00,137.76,1
178.00,142.83,1
174.00,147.46,1
209.00,152.17,1
179.00,157.10,1
239.00,162.33,1
208.00,168.09,1
117.00,173.29,1
94.00,175.93,1
248.00,176.71,1
82.00,177.01,1
155.00,176.06,1
61.00,173.27,1
90.00,168.44,1
74.00,161.78,1
46.00,153.72,1
128.00,144.94,1
76.00,136.59,1
102.00,128.89,1
63.00,121.61,1
70.00,114.52,1
206.00,108.73,1
46.00,105.09,1
102.00,102.16,1
57.00,99.10,1
230.00,97.19,1
157.00,98.11,1
170.00,101.49,1
242.00,106.83,1
202.00,114.49,1
196.00,123.48,1
223.00,132.99,1
223.00,142.99,1
46.00,151.76,1
168.00,157.42,1
126.00,160.69,1
305.00,163.86,1
85.00,167.65,1
119.00,169.88,1
120.00,169.59,1
200.00,168.38,1
127.00,167.25,1
86.00,165.31,1
109.00,161.75,1
98.00,157.01,1
146.00,151.92,1
88.00,146.99,1
99.00,141.86,1
296.00,138.09,1
87.00,137.08,1
128.00,136.72,1
138.00,135.90,1
175.00,135.58,1
48.00,135.28,1
65.00,133.34,1
166.00,130.28,1
239.00,128.91,1
202.00,130.65,1
202.00,134.69,1
366.00,141.37,1
156.00,150.88,1
136.00,159.86,1
160.00,166.23,1
223.00,171.18,1
97.00,175.09,1
130.00,176.78,1
42.00,175.46,1
116.00,171.36,1
58.00,165.31,1
68.00,157.70,1
42.00,148.61,1
117.00,139.00,1
49.00,129.78,1
59.00,120.73,1
69.00,111.79,1
136.00,104.06,1
134.00,98.68,1
157.00,96.00,1
124.00,95.54,1
165.00,96.77,1
323.00,100.98,1
151.00,108.88,1
149.00,117.69,1
194.00,125.82,1
177.00,133.74,1
137.00,141.01,1
248.00,147.65,1
74.00,153.66,1
271.00,158.66,1
226.00,164.18,1
161.00,170.25,1
114.00,174.71,1
121.00,176.50,1
62.00,175.48,1
127.00,171.99,1
79.00,166.90,1
68.00,160.42,1
141.00,153.14,1
111.00,146.35,1
72.00,139.94,1
65.00,133.09,1
68.00,125.71,1
86.00,118.32,1
56.00,111.22,1
130.00,104.87,1
96.00,99.98,1
89.00,96.37,1
120.00,93.69,1
244.00,93.30,1
169.00,96.38,1
123.00,101.37,1
303.00,107.79,1
232.00,117.04,1
266.00,128.76,1
182.00,141.25,1
205.00,152.98,1
102.00,162.57,1
238.00,169.82,1
62.00,175.00,1
203.00,177.83,1
241.00,179.95,1
137.00,182.41,1
78.00,183.14,1
36.00,180.33,1
46.00,173.78,1
152.00,165.35,1
38.00,156.67,1
87.00,147.47,1
63.00,137.86,1
127.00,128.81,1
57.00,120.76,1
125.00,113.67,1
98.00,107.88,1
164.00,103.95,1
165.00,102.40,1
142.00,103.12,1
253.00,106.10,1
185.00,111.73,1
141.00,118.63,1
174.00,125.25,1
138.00,131.32,1
79.00,135.96,1
257.00,139.56,1
125.00,143.62,1
210.00,147.88,1
131.00,151.82,1
188.00,155.25,1
49.00,157.32,1
82.00,156.69,1
54.00,153.25,1
165.00,148.48,1
118.00,144.10,1
95.00,140.10,1
119.00,135.96,1
50.00,131.47,1
108.00,126.41,1
62.00,121.10,1
184.00,116.49,1
134.00,113.82,1
102.00,112.61,1
128.00,111.82,1
141.00,111.65,1
43.00,111.57,1
50.00,110.10,1
144.00,107.71,1
84.00,105.82,1
182.00,104.97,1
162.00,105.91,1
163.00,108.69,1
212.00,112.99,1
240.00,119.41,1
211.00,127.79,1
150.00,136.65,1
184.00,144.60,1
102.00,150.99,1
87.00,154.79,1
101.00,155.62,1
150.00,154.73,1
100.00,153.06,1
53.00,150.04,1
168.00,145.86,1
48.00,141.48,1
126.00,136.69,1
95.00,131.80,1
57.00,126.80,1
63.00,121.06,1
40.00,114.52,1
105.00,107.81,1
42.00,101.57,1
149.00,96.26,1
127.00,92.91,1
142.00,91.80,1
118.00,92.31,1
191.00,94.34,1
254.00,98.99,1
141.00,106.19,1
173.00,114.01,1
163.00,121.57,1
249.00,129.47,1
244.00,138.72,1
132.00,148.36,1
169.00,156.37,1
209.00,162.89,1
136.00,168.43,1
118.00,172.02,1
42.00,172.45,1
88.00,169.46,1
112.00,164.28,1
80.00,158.13,1
46.00,150.82,1
64.00,142.25,1
63.00,132.97,1
157.00,124.38,1
92.00,117.63,1
91.00,112.18,1
164.00,107.95,1
114.00,105.59,1
149.00,104.80,1
122.00,105.14,1
198.00,106.81,1
155.00,110.14,1
182.00,114.75,1
193.00,120.35,1
281.00,127.70,1
188.00,136.87,1
300.00,147.25,1
187.00,158.36,1
198.00,168.79,1
115.00,176.89,1
119.00,181.68,1
91.00,182.95,1
66.00,180.89,1
67.00,175.70,1
36.00,167.88,1
187.00,159.06,1
49.00,150.89,1
73.00,142.64,1
65.00,133.79,1
52.00,124.74,1
145.00,116.33,1
84.00,109.61,1
122.00,104.49,1
48.00,100.25,1
103.00,96.37,1
138.00,93.49,1
147.00,92.56,1
112.00,93.29,1
237.00,95.83,1
139.00,100.56,1
133.00,106.21,1
168.00,111.73,1
152.00,117.37,1
220.00,123.49,1
119.00,129.97,1
214.00,136.15,1
99.00,141.68,1
220.00,146.43,1
88.00,150.37,1
254.00,153.77,1
130.00,157.28,1
180.00,160.48,1
99.00,162.47,1
41.00,162.07,1
51.00,158.29,1
82.00,152.05,1
38.00,144.36,1
126.00,136.06,1
48.00,128.04,1
65.00,120.08,1
61.00,112.01,1
111.00,104.64,1
136.00,99.05,1
172.00,96.15,1
142.00,95.91,1
193.00,97.91,1
193.00,102.22,1
88.00,107.63,1
150.00,112.47,1
158.00,116.95,1
257.00,122.47,1
176.00,129.65,1
127.00,136.91,1
75.00,142.09,1
111.00,144.52,1
142.00,145.20,1
134.00,145.30,1
64.00,144.47,1
38.00,141.53,1
60.00,136.25,1
51.00,129.45,1
141.00,122.50,1
88.00,116.65,1
102.00,111.82,1
64.00,107.40,1
66.00,102.92,1
51.00,98.15,1
74.00,93.28,1
70.00,88.71,1
128.00,85.13,1
146.00,83.51,1
110.00,83.93,1
164.00,85.87,1
126.00,89.18,1
112.00,93.11,1
205.00,97.63,1
102.00,102.99,1
173.00,108.48,1
200.00,114.42,1
271.00,122.13,1
66.00,130.61,1
89.00,136.79,1
48.00,139.35,1
195.00,139.84,1
263.00,141.40,1
105.00,144.73,1
51.00,146.81,1
52.00,145.64,1
101.00,142.07,1
113.00,137.69,1
122.00,133.52,1
87.00,129.60,1
75.00,125.41,1
46.00,120.39,1
63.00,114.51,1
123.00,108.71,1
158.00,104.57,1
72.00,102.20,1
206.00,101.22,1
45.00,101.51,1
287.00,103.20,1
175.00,107.66,1
222.00,114.57,1
206.00,122.91,1
160.00,131.75,1
128.00,139.52,1
128.00,145.29,1
48.00,148.43,1
321.00,150.39,1
137.00,153.76,1
201.00,157.82,1
225.00,162.00,1
116.00,166.17,1
45.00,167.97,1
111.00,166.42,1
151.00,163.16,1
112.00,159.63,1
51.00,155.18,1
107.00,149.30,1
49.00,142.49,1
53.00,134.73,1
70.00,126.25,1
48.00,117.60,1
47.00,108.90,1
84.00,100.56,1
55.00,93.13,1
41.00,86.34,1
75.00,80.08,1
144.00,75.45,1
184.00,73.93,1
319.00,77.23,1
275.00,86.23,1
196.00,99.12,1
227.00,113.02,1
149.00,126.46,1
262.00,139.00,1
117.00,150.47,1
179.00,159.79,1
155.00,166.79,1
254.00,172.74,1
125.00,178.06,1
192.00,181.98,1
103.00,183.98,1
38.00,183.03,1
134.00,178.86,1
52.00,172.68,1
59.00,164.75,1
54.00,155.10,1
113.00,144.96,1
77.00,135.39,1
81.00,126.53,1
80.00,118.25,1
68.00,110.59,1
117.00,103.87,1
123.00,98.84,1
222.00,96.62,1
201.00,98.04,1
161.00,102.39,1
151.00,107.90,1
49.00,112.75,1
241.00,116.75,1
92.00,121.08,1
174.00,125.33,1
136.00,129.17,1
154.00,132.78,1
198.00,136.44,1
221.00,141.09,1
104.00,146.11,1
142.00,149.81,1
132.00,151.96,1
124.00,152.95,1
35.00,152.04,1
153.00,149.20,1
110.00,145.83,1
152.00,142.79,1
75.00,139.79,1
60.00,135.88,1
108.00,130.90,1
63.00,125.59,1
43.00,119.68,1
90.00,113.21,1
100.00,107.22,1
127.00,102.56,1
88.00,99.30,1
102.00,96.89,1
98.00,95.08,1
172.00,94.45,1
162.00,95.87,1
206.00,99.60,1
281.00,106.20,1
203.00,115.72,1
232.00,126.75,1
141.00,137.61,1
298.00,148.04,1
64.00,157.68,1
292.00,165.73,1
79.00,172.38,1
292.00,177.86,1
92.00,182.38,1
257.00,185.84,1
112.00,188.26,1
61.00,188.35,1
72.00,184.69,1
85.00,178.14,1
82.00,169.96,1
59.00,160.68,1
90.00,150.67,1
92.00,140.81,1
49.00,131.33,1
71.00,121.93,1
81.00,113.00,1
101.00,105.24,1
54.00,98.66,1
63.00,92.64,1
118.00,87.47,1
54.00,83.57,1
164.00,81.07,1
150.00,80.88,1
190.00,83.50,1
125.00,88.15,1
226.00,94.28,1
127.00,101.63,1
197.00,109.47,1
41.00,116.46,1
237.00,122.18,1
62.00,127.26,1
363.00,132.91,1
100.00,140.14,1
143.00,146.83,1
67.00,150.78,1
80.00,151.74,1
138.00,150.46,1
45.00,147.82,1
72.00,143.41,1
51.00,137.28,1
65.00,130.02,1
76.00,122.32,1
93.00,114.99,1
182.00,109.28,1
103.00,105.96,1
116.00,104.10,1
477.00,105.97,1
46.00,113.11,1
81.00,120.18,1
227.00,125.17,1
168.00,130.65,1
238.00,137.11,1
157.00,144.10,1
175.00,150.67,1
261.00,157.03,1
99.00,163.25,1
227.00,168.25,1
97.00,171.86,1
260.00,174.55,1
116.00,176.88,1
208.00,178.59,1
76.00,179.00,1
138.00,177.51,1
196.00,175.04,1
135.00,172.86,1
108.00,170.24,1
42.00,165.84,1
39.00,158.91,1
54.00,149.83,1
69.00,139.72,1
102.00,129.84,1
127.00,121.35,1
127.00,114.88,1
123.00,110.33,1
68.00,106.87,1
208.00,104.56,1
101.00,104.22,1
186.00,105.43,1
144.00,107.97,1
290.00,112.68,1
226.00,120.38,1
204.00,130.06,1
173.00,139.80,1
214.00,148.89,1
79.00,156.50,1
173.00,161.61,1
124.00,164.69,1
181.00,166.57,1
125.00,167.53,1
129.00,167.35,1
130.00,165.92,1
135.00,163.68,1
92.00,160.64,1
34.00,155.94,1
90.00,149.29,1
51.00,141.49,1
49.00,132.89,1
52.00,123.62,1
105.00,114.63,1
43.00,106.53,1
72.00,99.03,1
63.00,92.12,1
186.00,87.00,1
85.00,84.53,1
124.00,83.84,1
131.00,84.37,1
154.00,86.44,1
172.00,90.25,1
264.00,96.44,1
181.00,105.24,1
198.00,115.27,1
188.00,125.40,1
187.00,135.23,1
209.00,144.60,1
191.00,153.52,1
170.00,161.51,1
163.00,167.98,1
192.00,173.03,1
269.00,177.89,1
174.00,183.17,1
198.00,187.87,1
136.00,191.06,1
178.00,192.51,1
86.00,192.02,1
80.00,188.83,1
102.00,183.01,1
73.00,175.47,1
42.00,166.32,1
70.00,155.72,1
127.00,145.06,1
73.00,135.44,1
38.00,126.21,1
114.00,117.20,1
161.00,110.01,1
124.00,105.55,1
181.00,103.54,1
135.00,103.74,1
134.00,105.30,1
222.00,108.19,1
291.00,113.98,1
174.00,122.73,1
210.00,132.35,1
169.00,141.59,1
206.00,150.18,1
144.00,157.73,1
323.00,165.01,1
154.00,172.88,1
187.00,179.91,1
229.00,185.55,1
227.00,190.91,1
71.00,194.91,1
90.00,195.23,1
46.00,191.45,1
105.00,184.67,1
60.00,175.96,1
45.00,165.78,1
68.00,154.36,1
49.00,142.49,1
48.00,130.51,1
71.00,118.90,1
91.00,108.47,1
40.00,99.38,1
64.00,91.13,1
62.00,83.75,1
216.00,78.72,1
188.00,77.96,1
114.00,80.63,1
169.00,84.83,1
59.00,89.44,1
141.00,93.53,1
180.00,97.85,1
172.00,103.47,1
192.00,110.23,1
234.00,118.25,1
199.00,127.53,1
138.00,136.73,1
246.00,145.16,1
182.00,153.47,1
153.00,161.02,1
107.00,166.34,1
142.00,169.10,1
160.00,170.18,1
100.00,170.00,1
70.00,167.80,1
36.00,162.87,1
87.00,155.67,1
52.00,147.21,1
39.00,137.81,1
91.00,127.95,1
48.00,118.43,1
92.00,109.58,1
49.00,101.55,1
53.00,94.10,1
179.00,88.09,1
125.00,85.03,1
127.00,84.51,1
179.00,85.95,1
215.00,89.97,1
170.00,96.46,1
225.00,104.66,1
165.00,113.89,1
142.00,122.90,1
113.00,130.34,1
168.00,136.10,1
50.00,140.11,1
209.00,142.47,1
260.00,145.58,1
256.00,151.29,1
218.00,158.84,1
237.00,166.99,1
61.00,173.89,1
45.00,176.70,1
84.00,174.94,1
183.00,171.11,1
48.00,166.65,1
81.00,160.76,1
111.00,153.63,1
108.00,146.53,1
157.00,140.30,1
65.00,134.94,1
119.00,129.76,1
120.00,125.03,1
62.00,120.79,1
131.00,116.67,1
97.00,113.16,1
83.00,110.13,1
207.00,108.07,1
127.00,108.06,1
163.00,109.66,1
226.00,112.83,1
134.00,117.70,1
211.00,123.32,1
231.00,130.04,1
190.00,137.95,1
157.00,145.75,1
220.00,152.84,1
238.00,160.07,1
189.00,167.58,1
170.00,174.25,1
270.00,180.16,1
126.00,185.60,1
82.00,188.60,1
160.00,188.41,1
91.00,186.11,1
110.00,181.95,1
45.00,175.70,1
151.00,168.05,1
47.00,159.92,1
56.00,150.95,1
88.00,141.22,1
76.00,131.69,1
40.00,122.41,1
69.00,113.17,1
59.00,104.37,1
114.00,96.72,1
57.00,90.56,1
139.00,85.91,1
86.00,83.01,1
79.00,81.30,1
98.00,80.13,1
119.00,79.85,1
217.00,81.56,1
64.00,85.26,1
209.00,89.81,1
157.00,95.58,1
262.00,103.31,1
149.00,112.62,1
227.00,122.49,1
107.00,131.80,1
169.00,139.56,1
213.00,146.28,1
350.00,154.35,1
117.00,163.89,1
214.00,172.31,1
137.00,178.67,1
121.00,182.63,1
158.00,184.00,1
86.00,183.27,1
75.00,180.01,1
85.00,174.21,1
102.00,166.92,1
42.00,158.58,1
71.00,149.15,1
53.00,139.00,1
70.00,128.74,1
74.00,118.88,1
77.00,109.90,1
53.00,101.76,1
59.00,94.22,1
50.00,87.20,1
123.00,81.31,1
150.00,77.83,1
207.00,77.81,1
57.00,80.32,1
238.00,84.19,1
220.00,90.56,1
193.00,99.59,1
208.00,109.86,1
149.00,120.29,1
92.00,129.18,1
206.00,136.13,1
190.00,142.63,1
254.00,149.80,1
199.00,157.70,1
215.00,165.66,1
169.00,172.82,1
325.00,179.80,1
148.00,187.15,1
84.00,192.37,1
70.00,193.19,1
95.00,190.07,1
46.00,183.95,1
50.00,175.23,1
81.00,164.69,1
74.00,153.59,1
62.00,142.48,1
103.00,131.84,1
42.00,121.95,1
155.00,113.23,1
74.00,106.38,1
145.00,101.36,1
77.00,97.85,1
204.00,96.09,1
74.00,96.19,1
171.00,97.43,1
219.00,100.40,1
190.00,105.93,1
165.00,112.93,1
189.00,120.38,1
281.00,128.89,1
202.00,138.96,1
242.00,149.67,1
77.00,159.17,1
199.00,166.05,1
127.00,170.76,1
183.00,173.93,1
132.00,175.77,1
271.00,177.28,1
39.00,178.46,1
229.00,178.24,1
122.00,177.29,1
158.00,175.92,1
92.00,173.44,1
54.00,169.11,1
50.00,162.23,1
79.00,153.58,1
100.00,144.45,1
43.00,135.39,1
80.00,126.22,1
46.00,117.13,1
93.00,108.55,1
81.00,101.02,1
96.00,94.87,1
83.00,89.99,1
132.00,86.58,1
180.00,85.47,1
304.00,88.33,1
292.00,96.55,1
165.00,108.30,1
268.00,120.99,1
97.00,133.24,1
222.00,143.80,1
256.00,153.66,1
216.00,163.93,1
223.00,173.84,1
130.00,182.16,1
200.00,188.10,1
130.00,191.85,1
142.00,193.34,1
91.00,192.26,1
131.00,188.85,1
127.00,183.99,1
43.00,177.74,1
72.00,169.44,1
62.00,159.57,1
141.00,149.59,1
63.00,140.42,1
110.00,131.93,1
92.00,124.21,1
52.00,117.10,1
62.00,109.96,1
78.00,103.00,1
135.00,97.23,1
184.00,94.02,1
167.00,94.06,1
75.00,95.90,1
113.00,97.68,1
178.00,99.78,1
270.00,104.23,1
164.00,111.48,1
238.00,120.26,1
264.00,130.48,1
121.00,141.28,1
260.00,151.14,1
155.00,160.23,1
173.00,167.98,1
163.00,173.77,1
76.00,177.17,1
70.00,177.08,1
71.00,173.47,1
92.00,167.45,1
71.00,160.02,1
75.00,151.59,1
192.00,143.59,1
61.00,137.06,1
60.00,130.64,1
158.00,124.24,1
61.00,118.89,1
96.00,114.00,1
159.00,109.91,1
212.00,108.37,1
171.00,109.89,1
120.00,112.99,1
178.00,116.48,1
175.00,120.67,1
282.00,126.55,1
206.00,134.67,1
166.00,143.50,1
239.00,151.88,1
275.00,160.83,1
84.00,169.52,1
154.00,175.44,1
311.00,179.95,1
83.00,184.53,1
236.00,187.80,1
127.00,189.72,1
327.00,191.66,1
143.00,194.43,1
210.00,196.91,1
83.00,197.61,1
40.00,195.09,1
50.00,188.50,1
57.00,178.94,1
110.00,168.04,1
83.00,157.16,1
53.00,146.43,1
48.00,135.39,1
74.00,124.35,1
127.00,114.52,1
122.00,106.98,1
107.00,101.69,1
68.00,97.65,1
195.00,94.96,1
145.00,94.81,1
181.00,97.05,1
203.00,101.44,1
160.00,107.64,1
196.00,114.72,1
153.00,122.13,1
308.00,130.41,1
124.00,139.76,1
178.00,148.31,1
133.00,154.99,1
186.00,160.14,1
40.00,163.27,1
192.00,164.05,1
128.00,163.78,1
105.00,162.74,1
127.00,160.40,1
88.00,157.04,1
94.00,152.57,1
136.00,147.55,1
55.00,142.32,1
52.00,136.10,1
42.00,128.51,1
60.00,120.12,1
39.00,111.42,1
134.00,103.38,1
108.00,97.30,1
64.00,92.88,1
113.00,89.33,1
141.00,87.23,1
93.00,86.80,1
222.00,88.15,1
250.00,92.76,1
181.00,100.73,1
121.00,109.53,1
125.00,117.13,1
248.00,124.15,1
128.00,131.58,1
214.00,138.82,1
134.00,145.43,1
125.00,150.67,1
168.00,154.23,1
158.00,156.95,1
47.00,158.22,1
135.00,157.14,1
140.00,154.90,1
117.00,152.48,1
72.00,149.30,1
146.00,145.31,1
43.00,140.85,1
181.00,136.20,1
92.00,132.28,1
96.00,128.73,1
66.00,124.68,1
121.00,120.36,1
45.00,116.02,1
87.00,111.35,1
142.00,107.09,1
75.00,104.00,1
98.00,101.44,1
129.00,99.44,1
52.00,98.01,1
213.00,97.36,1
285.00,99.95,1
210.00,106.75,1
160.00,115.54,1
202.00,124.44,1
214.00,133.51,1
213.00,142.96,1
310.00,153.28,1
188.00,164.49,1
168.00,174.62,1
262.00,183.05,1
206.00,190.82,1
151.00,197.24,1
93.00,200.60,1
142.00,200.41,1
109.00,197.68,1
89.00,192.78,1
69.00,185.60,1
77.00,176.56,1
61.00,166.19,1
44.00,154.80,1
93.00,143.01,1
59.00,131.71,1
65.00,121.06,1
68.00,111.06,1
118.00,102.43,1
128.00,96.07,1
78.00,91.78,1
116.00,88.80,1
110.00,87.05,1
94.00,86.40,1
203.00,87.19,1
60.00,89.52,1
148.00,92.23,1
347.00,97.07,1
240.00,106.58,1
307.00,119.64,1
189.00,134.26,1
224.00,148.47,1
145.00,160.82,1
194.00,170.73,1
165.00,178.39,1
299.00,185.11,1
149.00,191.64,1
144.00,196.39,1
121.00,198.13,1
84.00,196.73,1
56.00,191.98,1
94.00,184.43,1
92.00,175.36,1
65.00,165.51,1
58.00,154.85,1
90.00,143.85,1
44.00,133.07,1
74.00,122.55,1
150.00,113.32,1
135.00,106.78,1
124.00,102.79,1
155.00,100.81,1
98.00,100.33,1
81.00,100.22,1
146.00,100.19,1
189.00,101.49,1
169.00,104.84,1
90.00,109.02,1
230.00,113.38,1
168.00,118.87,1
187.00,125.37,1
184.00,132.16,1
298.00,139.99,1
127.00,148.83,1
182.00,156.69,1
135.00,162.65,1
170.00,166.95,1
69.00,169.16,1
85.00,168.48,1
42.00,164.65,1
61.00,158.14,1
105.00,150.17,1
144.00,142.56,1
63.00,135.83,1
127.00,129.50,1
54.00,123.47,1
163.00,118.08,1
155.00,114.52,1
142.00,113.14,1
323.00,114.70,1
159.00,119.96,1
157.00,126.62,1
234.00,133.35,1
200.00,140.93,1
116.00,148.23,1
244.00,154.46,1
171.00,160.51,1
249.00,166.71,1
140.00,172.60,1
180.00,177.22,1
102.00,179.82,1
105.00,179.83,1
123.00,177.47,1
98.00,173.50,1
73.00,167.93,1
127.00,161.19,1
46.00,153.80,1
104.00,145.74,1
43.00,137.23,1
167.00,129.17,1
71.00,122.47,1
81.00,116.55,1
110.00,111.03,1
215.00,107.46,1
403.00,108.96,1
205.00,116.76,1
126.00,126.65,1
206.00,135.45,1
202.00,143.80,1
98.00,151.23,1
185.00,156.68,1
138.00,160.63,1
255.00,164.25,1
78.00,167.58,1
201.00,169.61,1
112.00,170.44,1
118.00,169.90,1
50.00,167.12,1
62.00,161.73,1
62.00,154.20,1
53.00,145.33,1
62.00,135.67,1
133.00,126.40,1
39.00,118.20,1
75.00,110.43,1
123.00,103.45,1
67.00,97.93,1
92.00,93.39,1
159.00,90.26,1
143.00,89.48,1
180.00,91.14,1
192.00,95.18,1
160.00,101.14,1
329.00,109.32,1
174.00,120.16,1
289.00,132.49,1
172.00,145.11,1
230.00,157.06,1
133.00,167.26,1
192.00,175.19,1
130.00,180.77,1
142.00,183.89,1
92.00,184.35,1
41.00,181.65,1
58.00,175.47,1
48.00,166.65,1
102.00,156.56,1
54.00,146.25,1
70.00,135.88,1
124.00,126.14,1
84.00,117.89,1
109.00,111.04,1
82.00,105.35,1
127.00,100.84,1
100.00,97.69,1
162.00,96.11,1
127.00,96.29,1
142.00,97.86,1
202.00,100.89,1
185.00,105.87,1
216.00,112.66,1
155.00,120.49,1
213.00,128.56,1
186.00,136.77,1
296.00,145.76,1
114.00,155.14,1
287.00,163.84,1
155.00,172.00,1
275.00,179.73,1
91.00,186.25,1
228.00,190.70,1
151.00,193.56,1
195.00,195.32,1
58.00,195.16,1
58.00,191.69,1
64.00,184.69,1
71.00,175.36,1
82.00,164.83,1
50.00,153.75,1
61.00,142.26,1
95.00,131.03,1
54.00,120.68,1
103.00,111.35,1
46.00,103.11,1
128.00,96.11,1
171.00,91.52,1
112.00,89.83,1
141.00,90.00,1
171.00,91.81,1
169.00,95.55,1
200.00,101.06,1
268.00,108.82,1
186.00,118.72,1
141.00,128.78,1
117.00,137.00,1
160.00,143.15,1
212.00,148.45,1
200.00,154.07,1
155.00,159.59,1
232.00,164.64,1
178.00,169.62,1
206.00,174.37,1
130.00,178.15,1
93.00,179.77,1
97.00,178.44,1
100.00,174.77,1
97.00,169.46,1
51.00,162.69,1
74.00,154.40,1
62.00,145.16,1
52.00,135.41,1
64.00,125.42,1
157.00,116.48,1
94.00,109.73,1
40.00,104.15,1
125.00,98.93,1
108.00,94.98,1
205.00,93.37,1
164.00,94.68,1
218.00,98.75,1
184.00,105.08,1
112.00,112.16,1
239.00,119.18,1
209.00,127.19,1
178.00,135.97,1
167.00,144.20,1
288.00,152.30,1
217.00,161.35,1
219.00,170.66,1
198.00,179.15,1
323.00,187.44,1
47.00,194.90,1
152.00,198.78,1
74.00,198.69,1
43.00,194.93,1
90.00,187.62,1
65.00,178.26,1
131.00,168.15,1
50.00,158.05,1
60.00,147.54,1
45.00,136.43,1
66.00,125.29,1
91.00,114.90,1
47.00,105.64,1
126.00,97.68,1
98.00,91.68,1
113.00,87.67,1
154.00,85.71,1
185.00,86.41,1
161.00,89.73,1
234.00,95.47,1
129.00,102.94,1
198.00,110.89,1
240.00,119.62,1
182.00,129.43,1
242.00,139.61,1
198.00,149.89,1
306.00,160.57,1
205.00,171.76,1
292.00,182.94,1
85.00,192.62,1
156.00,198.72,1
73.00,200.60,1
124.00,198.90,1
75.00,194.27,1
90.00,187.32,1
100.00,178.76,1
54.00,169.19,1
52.00,158.49,1
161.00,147.74,1
49.00,138.18,1
98.00,129.30,1
86.00,121.00,1
66.00,113.47,1
85.00,106.51,1
55.00,100.10,1
137.00,94.67,1
124.00,91.15,1
119.00,89.63,1
147.00,89.72,1
147.00,91.45,1
222.00,95.19,1
250.00,101.83,1
190.00,111.03,1
246.00,121.59,1
220.00,133.04,1
192.00,144.59,1
201.00,155.25,1
235.00,165.07,1
127.00,173.67,1
232.00,180.41,1
116.00,185.42,1
186.00,188.47,1
60.00,189.09,1
110.00,186.73,1
70.00,181.67,1
67.00,174.44,1
112.00,165.74,1
64.00,156.60,1
40.00,146.79,1
40.00,136.01,1
50.00,124.71,1
155.00,114.44,1
133.00,106.93,1
78.00,101.80,1
79.00,97.58,1
139.00,94.25,1
78.00,92.20,1
146.00,91.24,1
119.00,91.52,1
170.00,93.30,1
191.00,96.94,1
185.00,102.58,1
274.00,110.37,1
136.00,119.81,1
293.00,129.97,1
213.00,141.15,1
249.00,152.97,1
108.00,163.67,1
187.00,171.78,1
160.00,177.58,1
210.00,182.03,1
75.00,184.80,1
99.00,184.59,1
63.00,181.08,1
95.00,175.05,1
66.00,167.33,1
74.00,158.42,1
75.00,148.76,1
70.00,138.96,1
82.00,129.36,1
125.00,120.76,1
52.00,113.40,1
64.00,106.49,1
58.00,99.69,1
215.00,94.48,1
112.00,92.36,1
127.00,92.38,1
237.00,94.32,1
149.00,98.90,1
199.00,105.20,1
219.00,112.81,1
236.00,122.09,1
188.00,132.37,1
236.00,142.81,1
177.00,152.94,1
226.00,162.33,1
122.00,170.32,1
328.00,177.35,1
195.00,184.91,1
236.00,192.43,1
129.00,198.36,1
179.00,201.84,1
88.00,202.57,1
160.00,200.67,1
92.00,196.65,1
94.00,190.72,1
104.00,183.09,1
53.00,174.13,1
89.00,164.02,1
71.00,153.37,1
56.00,142.57,1
72.00,131.73,1
115.00,121.73,1
86.00,113.32,1
140.00,106.73,1
161.00,102.55,1
141.00,101.02,1
193.00,101.78,1
222.00,105.18,1
204.00,111.26,1
230.00,119.33,1
199.00,128.62,1
248.00,138.71,1
220.00,149.32,1
239.00,160.13,1
239.00,170.77,1
218.00,180.94,1
154.00,189.54,1
178.00,195.63,1
161.00,199.34,1
113.00,200.66,1
143.00,199.39,1
113.00,196.08,1
78.00,190.75,1
42.00,182.97,1
72.00,172.93,1
69.00,161.71,1
51.00,149.97,1
91.00,138.24,1
46.00,127.06,1
66.00,116.42,1
84.00,106.65,1
182.00,99.15,1
119.00,94.87,1
76.00,92.60,1
144.00,91.23,1
188.00,91.78,1
237.00,95.39,1
205.00,102.16,1
187.00,110.85,1
222.00,120.41,1
124.00,129.92,1
63.00,137.25,1
104.00,141.19,1
188.00,143.32,1
158.00,145.47,1
213.00,148.22,1
215.00,152.02,1
102.00,156.04,1
136.00,158.53,1
168.00,159.65,1
132.00,160.22,1
139.00,160.08,1
118.00,159.04,1
175.00,157.54,1
52.00,155.49,1
61.00,151.61,1
57.00,145.54,1
94.00,138.32,1
181.00,131.78,1
127.00,127.30,1
95.00,124.06,1
107.00,121.01,1
202.00,118.92,1
217.00,119.46,1
255.00,123.27,1
139.00,129.28,1
260.00,136.13,1
282.00,144.58,1
395.00,156.33,1
454.00,172.62,1
267.00,192.31,1
226.00,210.93,1
222.00,225.89,1
177.00,236.79,1
209.00,243.75,1
233.00,247.85,1
71.00,248.94,1
572.00,249.37,1
95.00,252.27,1
512.00,256.64,1
181.00,262.23,1
181.00,266.53,1
67.00,266.04,1
102.00,260.33,1
56.00,250.05,1
321.00,238.37,1
68.00,227.94,1
98.00,217.08,1
129.00,204.87,1
62.00,192.30,1
145.00,179.69,1
41.00,167.41,1
96.00,155.21,1
37.00,143.06,1
112.00,131.42,1
326.00,123.09,1
41.00,119.30,1
165.00,117.20,1
46.00,115.19,1
150.00,113.21,1
49.00,111.23,1
537.00,112.52,1
278.00,121.35,1
155.00,134.40,1
371.00,147.81,1
271.00,162.80,1
154.00,177.64,1
74.00,188.43,1
635.00,198.14,1
258.00,212.31,1
149.00,226.80,1
173.00,236.35,1
138.00,240.96,1
38.00,240.48,1
193.00,235.50,1
239.00,229.37,1
136.00,223.80,1
98.00,217.19,1
89.00,208.41,1
224.00,198.99,1
192.00,191.27,1
70.00,184.69,1
72.00,176.90,1
100.00,167.74,1
187.00,159.02,1
62.00,151.57,1
553.00,148.02,1
54.00,150.52,1
366.00,155.92,1
223.00,163.20,1
253.00,172.16,1
112.00,180.23,1
211.00,186.09,1
227.00,190.67,1
223.00,195.18,1
589.00,202.57,1
228.00,215.07,1
239.00,228.07,1
236.00,238.20,1
173.00,245.31,1
231.00,249.34,1
301.00,251.90,1
134.00,253.50,1
94.00,251.80,1
163.00,246.15,1
327.00,239.90,1
108.00,234.87,1
52.00,228.21,1
58.00,217.90,1
63.00,204.78,1
66.00,190.11,1
314.00,176.89,1
683.00,172.35,1
105.00,177.93,1
657.00,189.14,1
298.00,205.59,1
134.00,222.77,1
238.00,235.06,1
240.00,243.66,1
239.00,250.05,1
382.00,255.73,1
230.00,261.79,1
87.00,265.43,1
52.00,263.21,1
131.00,255.50,1
149.00,245.03,1
174.00,233.94,1
275.00,224.17,1
127.00,216.36,1
77.00,208.28,1
165.00,198.94,1
367.00,191.66,1
76.00,187.82,1
124.00,184.01,1
568.00,182.39,1
336.00,188.47,1
115.00,198.04,1
175.00,204.88,1
227.00,209.00,1
82.00,211.11,1
56.00,209.44,1
585.00,207.68,1
355.00,212.46,1
259.00,221.89,1
496.00,233.06,1
111.00,245.15,1
183.00,253.68,1
139.00,256.83,1
269.00,256.78,1
335.00,256.62,1
226.00,257.65,1
300.00,258.89,1
217.00,259.90,1
186.00,259.66,1
230.00,257.68,1
246.00,255.01,1
238.00,252.49,1
400.00,251.48,1
192.00,252.56,1
83.00,252.20,1
179.00,248.04,1
92.00,241.02,1
165.00,232.06,1
639.00,226.36,1
159.00,227.84,1
52.00,229.79,1
168.00,227.29,1
70.00,221.63,1
68.00,213.05,1
55.00,201.65,1
44.00,188.13,1
147.00,174.01,1
119.00,161.30,1
143.00,150.68,1
77.00,141.61,1
191.00,134.06,1
215.00,129.44,1
191.00,128.39,1
187.00,129.84,1
159.00,132.63,1
231.00,136.46,1
185.00,141.53,1
205.00,147.37,1
229.00,153.75,1
294.00,161.40,1
214.00,170.41,1
216.00,179.39,1
180.00,187.11,1
197.00,193.17,1
106.00,197.01,1
195.00,198.41,1
184.00,198.56,1
167.00,198.13,1
96.00,196.33,1
73.00,192.06,1
88.00,185.09,1
62.00,176.26,1
60.00,165.94,1
74.00,154.72,1
61.00,143.28,1
44.00,131.86,1
70.00,120.60,1
210.00,111.33,1
63.00,105.16,1
62.00,100.30,1
149.00,96.07,1
186.00,94.18,1
178.00,95.41,1
218.00,99.46,1
304.00,106.82,1
163.00,117.13,1
230.00,128.20,1
217.00,139.31,1
265.00,150.83,1
186.00,162.32,1
251.00,173.02,1
145.00,182.32,1
231.00,189.73,1
163.00,195.45,1
272.00,200.19,1
138.00,204.16,1
147.00,206.14,1
71.00,205.00,1
116.00,200.71,1
107.00,194.21,1
96.00,186.36,1
70.00,177.28,1
53.00,166.95,1
66.00,155.56,1
129.00,144.36,1
72.00,134.35,1
61.00,125.06,1
74.00,116.08,1
127.00,108.19,1
131.00,102.41,1
162.00,99.18,1
117.00,98.17,1
154.00,98.69,1
144.00,100.53,1
335.00,105.08,1
94.00,112.56,1
37.00,119.15,1
200.00,123.24,1
183.00,127.41,1
370.00,134.12,1
269.00,144.63,1
334.00,158.13,1
86.00,171.62,1
156.00,181.69,1
83.00,187.28,1
43.00,188.28,1
128.00,185.25,1
216.00,181.09,1
219.00,178.40,1
118.00,176.84,1
168.00,174.96,1
84.00,172.18,1
292.00,169.57,1
109.00,168.41,1
119.00,167.16,1
391.00,166.78,1
126.00,169.49,1
198.00,172.91,1
395.00,177.38,1
59.00,183.56,1
58.00,186.89,1
120.00,185.69,1
476.00,185.04,1
52.00,187.70,1
484.00,192.31,1
320.00,200.61,1
356.00,212.51,1
451.00,226.76,1
601.00,245.52,1
409.00,268.60,1
96.00,289.79,1
712.00,307.16,1
104.00,323.66,1
904.00,340.57,1
534.00,362.43,1
642.00,388.72,1
104.00,411.74,1
337.00,425.37,1
272.00,430.30,1
205.00,428.80,1
750.00,425.31,1
561.00,427.37,1
213.00,432.06,1
102.00,430.35,1
528.00,422.66,1
312.00,414.97,1
91.00,405.69,1
98.00,390.14,1
127.00,368.70,1
1023.00,351.58,1
194.00,346.59,1
273.00,345.24,1
258.00,341.07,1
976.00,341.24,1
449.00,351.91,1
667.00,369.64,1
150.00,386.86,1
82.00,395.84,1
189.00,393.66,1
112.00,383.74,1
1023.00,375.38,1
245.00,376.55,1
350.00,380.41,1
437.00,382.17,1
245.00,383.02,1
100.00,379.46,1
159.00,369.22,1
108.00,353.60,1
250.00,335.22,1
116.00,316.17,1
106.00,296.10,1
277.00,276.07,1
190.00,258.75,1
102.00,243.31,1
196.00,228.41,1
106.00,214.50,1
761.00,206.53,1
459.00,210.99,1
38.00,221.50,1
286.00,228.91,1
191.00,233.60,1
159.00,236.30,1
67.00,235.31,1
578.00,233.98,1
63.00,235.85,1
52.00,235.73,1
156.00,230.59,1
387.00,225.26,1
301.00,223.94,1
190.00,225.26,1
262.00,226.61,1
1023.00,234.49,1
102.00,252.60,1
92.00,268.92,1
91.00,275.49,1
209.00,275.38,1
422.00,273.89,1
86.00,273.12,1
228.00,270.28,1
504.00,267.83,1
159.00,268.64,1
426.00,270.68,1
179.00,273.12,1
233.00,274.37,1
60.00,272.08,1
140.00,265.33,1
213.00,255.98,1
71.00,245.70,1
168.00,234.04,1
109.00,221.69,1
236.00,210.10,1
200.00,200.83,1
344.00,195.29,1
801.00,198.73,1
236.00,212.91,1
253.00,229.28,1
324.00,242.96,1
259.00,254.91,1
383.00,265.69,1
736.00,279.59,1
173.00,297.78,1
317.00,313.33,1
65.00,322.00,1
381.00,324.81,1
160.00,324.34,1
195.00,320.67,1
106.00,312.67,1
861.00,306.73,1
266.00,309.35,1
71.00,313.22,1
105.00,309.92,1
41.00,299.84,1
61.00,284.35,1
38.00,264.85,1
404.00,245.71,1
135.00,231.14,1
46.00,218.38,1
69.00,203.91,1
65.00,188.25,1
136.00,172.90,1
57.00,158.78,1
176.00,146.32,1
256.00,137.48,1
358.00,134.85,1
194.00,138.07,1
283.00,144.49,1
257.00,152.95,1
262.00,163.14,1
197.00,173.56,1
230.00,183.07,1
129.00,190.73,1
46.00,194.61,1
121.00,193.97,1
200.00,191.08,1
76.00,187.49,1
65.00,181.99,1
110.00,174.42,1
118.00,166.22,1
131.00,158.42,1
141.00,151.57,1
32.00,145.02,1
167.00,138.34,1
78.00,132.35,1
111.00,127.02,1
210.00,122.97,1
235.00,122.19,1
61.00,123.70,1
78.00,124.34,1
117.00,123.47,1
177.00,122.77,1
112.00,123.01,1
59.00,122.93,1
230.00,122.60,1
122.00,123.60,1
141.00,125.36,1
184.00,127.41,1
243.00,130.94,1
380.00,138.06,1
223.00,148.96,1
274.00,161.41,1
462.00,175.71,1
262.00,192.83,1
57.00,208.08,1
224.00,217.72,1
120.00,222.96,1
395.00,226.67,1
48.00,229.91,1
156.00,230.10,1
114.00,226.61,1
134.00,220.72,1
91.00,212.87,1
314.00,205.06,1
95.00,199.08,1
64.00,192.64,1
42.00,183.54,1
123.00,172.75,1
527.00,165.56,1
126.00,165.51,1
151.00,167.68,1
167.00,168.69,1
218.00,169.69,1
245.00,171.85,1
214.00,175.46,1
214.00,179.75,1
212.00,184.14,1
186.00,188.19,1
203.00,191.56,1
293.00,195.11,1
162.00,199.23,1
214.00,202.65,1
299.00,205.90,1
111.00,209.19,1
159.00,210.36,1
260.00,209.98,1
162.00,209.71,1
236.00,209.34,1
93.00,208.14,1
116.00,204.78,1
194.00,199.72,1
69.00,194.00,1
85.00,186.70,1
98.00,177.77,1
164.00,168.79,1
383.00,163.06,1
66.00,161.58,1
91.00,160.12,1
202.00,157.44,1
127.00,155.34,1
47.00,152.76,1
156.00,148.85,1
217.00,145.72,1
232.00,145.36,1
180.00,147.37,1
184.00,150.44,1
203.00,154.03,1
212.00,158.29,1
280.00,163.78,1
467.00,172.77,1
242.00,185.97,1
200.00,199.35,1
216.00,210.02,1
228.00,218.28,1
288.00,225.28,1
274.00,232.05,1
150.00,237.68,1
121.00,239.81,1
68.00,237.28,1
106.00,230.52,1
103.00,220.94,1
226.00,210.77,1
70.00,201.24,1
276.00,192.64,1
127.00,185.93,1
154.00,180.34,1
176.00,175.17,1
64.00,170.16,1
62.00,163.74,1
188.00,156.54,1
177.00,150.98,1
297.00,148.68,1
51.00,148.84,1
240.00,149.31,1
153.00,150.39,1
167.00,152.12,1
469.00,156.31,1
112.00,164.37,1
263.00,172.95,1
155.00,180.31,1
241.00,186.67,1
219.00,192.41,1
139.00,197.17,1
238.00,200.35,1
250.00,203.29,1
46.00,205.29,1
89.00,203.59,1
67.00,198.03,1
101.00,189.95,1
60.00,180.25,1
48.00,169.13,1
100.00,157.15,1
87.00,145.63,1
45.00,134.71,1
39.00,123.75,1
147.00,113.56,1
61.00,105.32,1
49.00,98.20,1
115.00,91.81,1
187.00,87.77,1
55.00,86.28,1
100.00,85.57,1
186.00,85.88,1
59.00,87.64,1
356.00,91.53,1
202.00,99.53,1
288.00,110.98,1
214.00,124.23,1
153.00,137.37,1
227.00,148.99,1
252.00,159.99,1
212.00,170.85,1
133.00,180.14,1
172.00,186.60,1
135.00,190.39,1
358.00,193.58,1
147.00,197.87,1
130.00,201.05,1
183.00,201.72,1
119.00,200.65,1
93.00,197.41,1
134.00,192.08,1
161.00,186.01,1
61.00,179.50,1
235.00,172.92,1
53.00,167.02,1
147.00,161.06,1
76.00,154.70,1
51.00,147.66,1
93.00,139.66,1
150.00,132.18,1
53.00,125.81,1
116.00,119.88,1
247.00,115.81,1
112.00,114.90,1
91.00,115.07,1
90.00,114.56,1
446.00,116.31,1
257.00,124.16,1
241.00,135.87,1
262.00,148.57,1
108.00,160.53,1
230.00,170.16,1
242.00,178.55,1
70.00,185.50,1
58.00,188.26,1
115.00,186.59,1
191.00,183.09,1
127.00,179.54,1
167.00,175.97,1
57.00,171.72,1
78.00,165.79,1
39.00,157.89,1
130.00,149.02,1
64.00,140.35,1
62.00,131.76,1
70.00,123.00,1
132.00,115.04,1
274.00,110.22,1
105.00,109.40,1
106.00,110.02,1
107.00,110.35,1
284.00,111.98,1
152.00,116.30,1
124.00,121.64,1
190.00,126.56,1
170.00,131.67,1
239.00,137.56,1
231.00,144.75,1
218.00,153.01,1
232.00,161.68,1
245.00,170.56,1
166.00,179.02,1
214.00,186.08,1
223.00,192.04,1
241.00,197.67,1
310.00,203.81,1
160.00,210.18,1
158.00,214.60,1
192.00,216.36,1
207.00,216.74,1
194.00,216.47,1
164.00,215.39,1
41.00,212.10,1
137.00,205.73,1
166.00,198.07,1
84.00,190.27,1
80.00,181.49,1
83.00,171.52,1
41.00,160.65,1
67.00,149.01,1
125.00,137.71,1
49.00,127.61,1
57.00,118.01,1
59.00,108.65,1
98.00,100.20,1
76.00,93.20,1
127.00,87.93,1
198.00,85.38,1
250.00,87.03,1
228.00,93.10,1
162.00,101.80,1
268.00,111.82,1
77.00,122.14,1
208.00,131.14,1
254.00,139.82,1
190.00,149.28,1
274.00,159.03,1
215.00,169.06,1
78.00,177.55,1
170.00,182.62,1
289.00,186.27,1
42.00,189.42,1
105.00,189.51,1
40.00,185.66,1
89.00,178.90,1
70.00,170.21,1
42.00,160.25,1
83.00,149.30,1
40.00,138.08,1
182.00,127.85,1
265.00,121.39,1
117.00,119.36,1
104.00,118.84,1
121.00,118.21,1
102.00,117.52,1
124.00,116.82,1
102.00,116.17,1
178.00,116.02,1
209.00,117.56,1
236.00,121.74,1
197.00,128.15,1
293.00,136.40,1
278.00,146.95,1
187.00,158.67,1
117.00,168.68,1
207.00,175.90,1
144.00,181.13,1
147.00,184.44,1
203.00,186.15,1
186.00,187.40,1
160.00,188.23,1
180.00,188.31,1
55.00,186.90,1
136.00,183.17,1
72.00,177.57,1
44.00,170.12,1
43.00,160.56,1
68.00,149.60,1
161.00,139.12,1
45.00,130.15,1
93.00,121.88,1
129.00,114.53,1
145.00,109.26,1
150.00,106.32,1
155.00,105.56,1
149.00,106.52,1
227.00,109.37,1
154.00,114.19,1
58.00,118.98,1
230.00,122.82,1
175.00,127.39,1
279.00,133.74,1
136.00,141.32,1
257.00,149.09,1
54.00,155.88,1
287.00,161.26,1
236.00,167.17,1
217.00,174.20,1
152.00,180.58,1
142.00,184.92,1
130.00,186.75,1
79.00,185.93,1
92.00,182.27,1
127.00,176.67,1
225.00,171.28,1
53.00,166.73,1
103.00,161.35,1
94.00,154.82,1
62.00,147.64,1
64.00,139.63,1
60.00,130.97,1
149.00,122.81,1
93.00,116.28,1
198.00,111.90,1
151.00,110.15,1
172.00,110.73,1
218.00,113.40,1
235.00,118.64,1
349.00,127.25,1
282.00,139.62,1
211.00,153.68,1
198.00,166.74,1
320.00,178.81,1
237.00,190.95,1
177.00,201.89,1
150.00,209.63,1
155.00,213.82,1
118.00,214.71,1
148.00,212.73,1
68.00,208.15,1
107.00,201.03,1
58.00,191.76,1
147.00,181.42,1
54.00,170.92,1
56.00,159.86,1
77.00,148.17,1
190.00,137.69,1
70.00,129.53,1
70.00,122.35,1
42.00,114.93,1
118.00,107.73,1
163.00,102.33,1
133.00,99.60,1
173.00,99.23,1
121.00,100.62,1
196.00,103.41,1
251.00,108.45,1
144.00,115.65,1
212.00,123.49,1
347.00,132.93,1
176.00,144.63,1
356.00,157.43,1
212.00,171.09,1
159.00,183.57,1
213.00,193.14,1
427.00,202.38,1
251.00,213.63,1
78.00,223.44,1
74.00,227.45,1
195.00,226.47,1
163.00,223.42,1
86.00,218.75,1
160.00,212.06,1
142.00,204.49,1
66.00,196.19,1
86.00,186.38,1
58.00,175.19,1
81.00,163.21,1
75.00,151.16,1
61.00,139.42,1
63.00,128.03,1
63.00,117.21,1
66.00,107.23,1
157.00,99.00,1
124.00,93.64,1
154.00,91.06,1
328.00,92.40,1
166.00,98.47,1
177.00,106.77,1
169.00,115.24,1
297.00,124.57,1
221.00,135.66,1
323.00,148.41,1
169.00,161.75,1
241.00,173.99,1
82.00,183.60,1
201.00,189.85,1
180.00,193.82,1
261.00,197.21,1
203.00,200.76,1
101.00,203.17,1
161.00,202.94,1
135.00,200.68,1
60.00,196.39,1
77.00,189.43,1
104.00,180.48,1
46.00,170.48,1
145.00,160.05,1
69.00,150.19,1
82.00,140.74,1
98.00,131.64,1
42.00,123.02,1
63.00,114.41,1
94.00,106.26,1
111.00,99.53,1
111.00,94.66,1
124.00,91.62,1
90.00,89.97,1
187.00,89.81,1
240.00,92.56,1
94.00,97.88,1
161.00,103.53,1
175.00,109.29,1
251.00,116.36,1
193.00,125.08,1
192.00,134.41,1
153.00,143.11,1
230.00,151.00,1
215.00,158.86,1
248.00,167.11,1
237.00,175.68,1
162.00,183.68,1
151.00,189.57,1
126.00,192.66,1
175.00,193.43,1
39.00,191.87,1
156.00,187.71,1
48.00,181.62,1
45.00,173.45,1
83.00,163.30,1
50.00,152.34,1
65.00,141.03,1
63.00,129.76,1
175.00,119.94,1
100.00,112.74,1
98.00,107.47,1
220.00,104.19,1
217.00,104.49,1
220.00,108.48,1
224.00,115.22,1
326.00,124.71,1
66.00,135.57,1
260.00,145.28,1
182.00,154.20,1
266.00,163.23,1
234.00,172.55,1
336.00,182.81,1
101.00,192.88,1
220.00,200.40,1
208.00,205.66,1
153.00,209.39,1
102.00,210.40,1
126.00,208.21,1
41.00,202.90,1
86.00,194.56,1
68.00,184.16,1
55.00,172.46,1
95.00,160.11,1
88.00,148.18,1
74.00,137.07,1
180.00,127.53,1
76.00,120.28,1
57.00,114.01,1
51.00,107.46,1
118.00,101.23,1
104.00,96.37,1
191.00,93.80,1
196.00,94.37,1
136.00,97.65,1
139.00,101.94,1
90.00,105.99,1
219.00,110.02,1
172.00,115.23,1
325.00,122.70,1
223.00,132.95,1
277.00,145.00,1
167.00,157.14,1
249.00,168.28,1
127.00,177.72,1
77.00,183.80,1
184.00,186.22,1
223.00,187.41,1
75.00,187.95,1
209.00,186.94,1
175.00,185.51,1
77.00,183.54,1
181.00,180.20,1
43.00,175.66,1
56.00,169.11,1
46.00,160.17,1
66.00,149.89,1
120.00,139.59,1
56.00,130.14,1
136.00,121.70,1
154.00,115.23,1
78.00,110.82,1
57.00,106.83,1
124.00,102.89,1
128.00,100.08,1
183.00,99.30,1
245.00,101.53,1
259.00,107.51,1
226.00,116.70,1
227.00,127.58,1
178.00,138.71,1
223.00,149.25,1
182.00,158.99,1
205.00,167.68,1
194.00,175.24,1
94.00,180.88,1
176.00,183.80,1
169.00,185.02,1
201.00,185.74,1
196.00,186.48,1
125.00,186.81,1
87.00,185.28,1
50.00,180.85,1
64.00,173.55,1
73.00,164.32,1
62.00,154.12,1
68.00,143.46,1
56.00,132.70,1
106.00,122.49,1
115.00,113.85,1
94.00,107.07,1
113.00,101.82,1
193.00,98.72,1
169.00,98.61,1
138.00,100.79,1
182.00,104.31,1
254.00,109.78,1
253.00,118.17,1
146.00,128.14,1
196.00,137.61,1
194.00,146.31,1
236.00,154.86,1
201.00,163.41,1
269.00,171.98,1
152.00,180.19,1
333.00,187.95,1
131.00,195.48,1
128.00,200.71,1
145.00,202.43,1
130.00,201.58,1
63.00,198.12,1
68.00,191.62,1
54.00,182.45,1
70.00,171.46,1
54.00,159.50,1
59.00,147.08,1
39.00,134.51,1
104.00,122.51,1
156.00,112.68,1
116.00,105.90,1
109.00,101.35,1
188.00,98.86,1
154.00,98.96,1
217.00,101.67,1
173.00,106.62,1
207.00,113.22,1
211.00,121.08,1
103.00,129.11,1
237.00,136.35,1
230.00,144.02,1
300.00,153.29,1
130.00,163.20,1
196.00,171.58,1
188.00,178.15,1
225.00,183.83,1
202.00,189.02,1
258.00,194.05,1
137.00,198.52,1
164.00,201.11,1
137.00,201.41,1
76.00,199.24,1
160.00,194.72,1
98.00,188.96,1
102.00,182.08,1
56.00,173.80,1
126.00,164.58,1
90.00,155.41,1
42.00,146.20,1
102.00,136.65,1
98.00,127.72,1
137.00,120.31,1
130.00,114.85,1
173.00,111.60,1
103.00,110.21,1
163.00,110.00,1
302.00,112.21,1
243.00,118.57,1
253.00,128.15,1
201.00,139.07,1
291.00,150.59,1
217.00,162.64,1
454.00,176.16,1
160.00,191.22,1
221.00,204.56,1
158.00,214.18,1
248.00,220.92,1
232.00,226.07,1
120.00,229.38,1
221.00,230.03,1
219.00,229.37,1
116.00,227.70,1
165.00,224.00,1
112.00,218.40,1
143.00,211.31,1
121.00,203.22,1
92.00,194.31,1
68.00,184.20,1
50.00,172.71,1
71.00,160.25,1
75.00,147.65,1
115.00,135.98,1
111.00,126.05,1
51.00,117.55,1
186.00,110.49,1
185.00,106.48,1
110.00,105.40,1
185.00,105.97,1
198.00,108.50,1
204.00,113.31,1
185.00,119.73,1
220.00,127.25,1
155.00,135.19,1
215.00,142.92,1
163.00,150.26,1
269.00,157.56,1
221.00,165.53,1
232.00,173.93,1
110.00,181.12,1
256.00,186.47,1
164.00,190.87,1
272.00,194.98,1
160.00,198.83,1
50.00,200.47,1
116.00,198.17,1
65.00,192.71,1
130.00,185.30,1
72.00,176.82,1
101.00,167.59,1
48.00,157.68,1
40.00,146.90,1
43.00,135.25,1
114.00,123.91,1
100.00,114.26,1
122.00,106.78,1
80.00,101.05,1
123.00,96.71,1
67.00,93.47,1
225.00,91.89,1
111.00,92.85,1
237.00,96.17,1
118.00,101.31,1
234.00,107.70,1
174.00,115.25,1
301.00,124.47,1
201.00,135.49,1
259.00,147.33,1
214.00,159.17,1
177.00,170.04,1
120.00,178.38,1
180.00,183.75,1
168.00,187.09,1
101.00,188.55,1
80.00,187.15,1
72.00,182.63,1
143.00,176.19,1
178.00,169.91,1
43.00,163.99,1
58.00,156.74,1
58.00,147.85,1
91.00,138.39,1
49.00,129.01,1
83.00,119.86,1
182.00,112.23,1
128.00,107.46,1
85.00,104.64,1
133.00,102.59,1
122.00,101.54,1
95.00,101.30,1
140.00,101.51,1
256.00,103.52,1
200.00,108.65,1
211.00,116.19,1
309.00,125.76,1
123.00,136.73,1
200.00,146.80,1
127.00,154.98,1
144.00,161.00,1
184.00,165.18,1
196.00,168.75,1
139.00,171.80,1
109.00,173.24,1
73.00,172.17,1
127.00,168.86,1
123.00,164.45,1
67.00,159.30,1
106.00,153.13,1
38.00,146.02,1
89.00,138.03,1
69.00,129.75,1
40.00,121.36,1
155.00,113.49,1
92.00,107.41,1
46.00,102.43,1
120.00,97.77,1
176.00,94.82,1
197.00,95.00,1
206.00,98.40,1
151.00,103.97,1
256.00,111.13,1
220.00,120.18,1
61.00,129.36,1
270.00,137.10,1
164.00,144.77,1
255.00,152.85,1
229.00,161.42,1
154.00,169.78,1
213.00,176.71,1
196.00,182.55,1
116.00,186.91,1
74.00,188.17,1
99.00,185.88,1
46.00,180.56,1
63.00,172.62,1
40.00,162.61,1
76.00,151.39,1
75.00,140.07,1
63.00,129.22,1
82.00,119.02,1
45.00,109.58,1
110.00,101.12,1
137.00,94.68,1
103.00,90.65,1
125.00,88.49,1
127.00,87.88,1
188.00,89.20,1
202.00,93.10,1
217.00,99.66,1
186.00,108.14,1
281.00,118.19,1
182.00,129.60,1
140.00,140.47,1
183.00,149.41,1
225.00,157.31,1
199.00,164.98,1
198.00,172.16,1
184.00,178.36,1
129.00,182.93,1
142.00,185.14,1
104.00,184.98,1
146.00,182.87,1
60.00,179.00,1
112.00,173.24,1
78.00,166.14,1
48.00,157.84,1
48.00,148.16,1
46.00,137.49,1
35.00,126.28,1
353.00,117.46,1
64.00,113.52,1
104.00,111.62,1
73.00,109.34,1
91.00,106.80,1
120.00,104.44,1
127.00,102.97,1
132.00,102.64,1
137.00,103.37,1
201.00,105.52,1
108.00,109.00,1
154.00,112.78,1
219.00,117.18,1
159.00,122.85,1
157.00,128.84,1
172.00,134.45,1
205.00,140.10,1
107.00,145.46,1
164.00,149.53,1
75.00,151.89,1
129.00,152.34,1
127.00,151.43,1
91.00,149.67,1
85.00,146.64,1
107.00,142.54,1
131.00,138.26,1
43.00,133.85,1
80.00,128.55,1
49.00,122.34,1
57.00,115.51,1
73.00,108.45,1
70.00,101.75,1
47.00,95.45,1
47.00,89.25,1
64.00,83.29,1
77.00,78.08,1
121.00,74.35,1
118.00,72.68,1
183.00,73.51,1
165.00,77.13,1
65.00,82.10,1
284.00,87.96,1
206.00,96.43,1
202.00,107.17,1
124.00,117.86,1
212.00,127.57,1
94.00,136.03,1
159.00,142.58,1
171.00,147.64,1
167.00,152.13,1
182.00,156.19,1
98.00,159.31,1
100.00,160.37,1
72.00,158.97,1
217.00,156.45,1
71.00,154.13,1
84.00,150.92,1
72.00,146.07,1
58.00,139.88,1
59.00,132.60,1
66.00,124.69,1
115.00,117.08,1
139.00,111.03,1
92.00,106.77,1
147.00,103.91,1
261.00,103.64,1
228.00,107.37,1
200.00,114.22,1
160.00,122.17,1
176.00,129.93,1
239.00,137.74,1
172.00,145.97,1
252.00,154.29,1
66.00,161.65,1
228.00,166.96,1
200.00,171.44,1
251.00,176.44,1
147.00,181.42,1
308.00,186.25,1
92.00,190.84,1
88.00,192.80,1
62.00,190.65,1
113.00,185.37,1
73.00,178.19,1
86.00,169.71,1
57.00,160.13,1
75.00,149.83,1
114.00,139.71,1
74.00,130.51,1
71.00,121.96,1
144.00,114.40,1
111.00,108.76,1
120.00,104.90,1
88.00,102.12,1
109.00,99.98,1
127.00,98.63,1
149.00,98.56,1
178.00,100.24,1
205.00,104.03,1
276.00,110.60,1
146.00,119.43,1
262.00,129.04,1
183.00,139.15,1
265.00,149.60,1
204.00,160.17,1
218.00,170.26,1
190.00,179.16,1
244.00,186.96,1
125.00,193.34,1
108.00,196.78,1
127.00,196.70,1
113.00,194.07,1
180.00,190.06,1
56.00,185.09,1
55.00,178.08,1
37.00,168.51,1
90.00,157.48,1
82.00,146.36,1
47.00,135.54,1
52.00,124.75,1
132.00,114.75,1
110.00,106.88,1
67.00,100.83,1
60.00,95.41,1
149.00,90.92,1
200.00,89.13,1
248.00,91.40,1
239.00,97.86,1
185.00,107.06,1
250.00,117.60,1
180.00,128.91,1
199.00,139.93,1
262.00,150.62,1
167.00,161.12,1
317.00,171.32,1
221.00,181.85,1
278.00,192.39,1
101.00,201.29,1
270.00,207.62,1
109.00,211.77,1
167.00,213.34,1
136.00,212.27,1
92.00,208.84,1
132.00,203.07,1
73.00,195.53,1
75.00,186.20,1
45.00,175.14,1
52.00,162.75,1
52.00,149.63,1
80.00,136.64,1
134.00,125.12,1
101.00,115.93,1
55.00,108.36,1
118.00,101.73,1
211.00,97.50,1
204.00,97.24,1
122.00,99.94,1
195.00,103.99,1
270.00,110.06,1
224.00,118.96,1
127.00,128.76,1
202.00,137.57,1
172.00,145.52,1
146.00,152.48,1
240.00,158.54,1
146.00,164.28,1
118.00,168.60,1
286.00,171.81,1
81.00,174.95,1
216.00,177.03,1
98.00,177.78,1
307.00,178.42,1
174.00,180.35,1
168.00,182.66,1
178.00,184.07,1
53.00,183.79,1
98.00,180.61,1
71.00,174.90,1
44.00,167.11,1
89.00,157.64,1
53.00,147.50,1
121.00,137.53,1
71.00,128.42,1
111.00,120.34,1
174.00,114.08,1
135.00,110.50,1
131.00,108.85,1
229.00,109.17,1
175.00,112.14,1
214.00,117.26,1
220.00,124.05,1
160.00,131.83,1
229.00,139.75,1
204.00,147.93,1
254.00,156.60,1
135.00,165.02,1
229.00,172.17,1
168.00,178.21,1
203.00,183.26,1
114.00,186.72,1
140.00,187.87,1
196.00,187.39,1
175.00,186.68,1
99.00,185.29,1
104.00,182.06,1
142.00,177.30,1
127.00,172.08,1
80.00,166.36,1
36.00,159.20,1
195.00,151.36,1
72.00,144.51,1
104.00,138.20,1
76.00,131.76,1
38.00,124.94,1
88.00,117.63,1
61.00,110.45,1
176.00,104.54,1
150.00,101.24,1
235.00,101.25,1
189.00,104.59,1
218.00,110.53,1
243.00,118.58,1
257.00,128.68,1
284.00,140.73,1
241.00,154.07,1
301.00,167.93,1
223.00,181.71,1
245.00,194.36,1
216.00,205.23,1
251.00,214.38,1
116.00,221.15,1
226.00,224.85,1
156.00,226.18,1
108.00,225.05,1
146.00,221.05,1
78.00,214.66,1
123.00,206.23,1
67.00,196.24,1
115.00,185.20,1
67.00,173.67,1
146.00,162.43,1
69.00,152.04,1
110.00,142.37,1
89.00,133.43,1
146.00,125.81,1
217.00,120.84,1
174.00,119.32,1
204.00,120.63,1
247.00,124.53,1
252.00,131.27,1
225.00,140.16,1
231.00,150.02,1
266.00,160.46,1
204.00,171.10,1
251.00,181.17,1
259.00,190.84,1
241.00,200.24,1
147.00,208.09,1
230.00,213.48,1
79.00,216.17,1
118.00,215.19,1
104.00,210.72,1
78.00,203.67,1
69.00,194.32,1
72.00,183.14,1
54.00,170.80,1
57.00,157.74,1
115.00,144.92,1
38.00,133.07,1
227.00,123.12,1
148.00,116.82,1
135.00,113.61,1
156.00,112.15,1
167.00,112.42,1
212.00,114.75,1
220.00,119.42,1
240.00,126.39,1
300.00,135.79,1
198.00,147.02,1
257.00,158.57,1
168.00,169.38,1
278.00,179.21,1
235.00,188.66,1
354.00,198.73,1
117.00,208.58,1
179.00,215.53,1
82.00,218.27,1
189.00,217.50,1
84.00,214.24,1
122.00,208.61,1
85.00,200.85,1
43.00,191.07,1
90.00,179.48,1
49.00,167.00,1
69.00,154.12,1
60.00,141.27,1
42.00,128.74,1
75.00,116.78,1
104.00,106.28,1
126.00,98.16,1
99.00,92.52,1
148.00,89.08,1
117.00,87.77,1
119.00,88.01,1
283.00,90.60,1
232.00,97.19,1
295.00,107.58,1
345.00,121.66,1
313.00,139.05,1
165.00,157.08,1
265.00,173.10,1
244.00,187.31,1
287.00,200.52,1
202.00,212.37,1
189.00,221.63,1
216.00,227.91,1
138.00,231.38,1
104.00,231.27,1
114.00,227.31,1
80.00,220.16,1
89.00,210.42,1
125.00,199.21,1
58.00,187.34,1
63.00,174.63,1
70.00,161.27,1
78.00,148.08,1
148.00,136.26,1
149.00,127.08,1
190.00,121.23,1
220.00,118.95,1
157.00,119.82,1
170.00,122.37,1
207.00,126.07,1
216.00,131.33,1
211.00,138.04,1
311.00,146.42,1
233.00,156.71,1
255.00,167.88,1
132.00,178.04,1
307.00,186.71,1
183.00,194.79,1
244.00,202.07,1
135.00,207.59,1
197.00,210.80,1
127.00,211.72,1
92.00,209.86,1
66.00,204.63,1
45.00,196.18,1
106.00,185.44,1
41.00,173.59,1
47.00,160.77,1
59.00,147.33,1
50.00,133.98,1
66.00,121.28,1
49.00,109.51,1
70.00,98.88,1
128.00,90.15,1
101.00,84.07,1
102.00,80.24,1
160.00,78.53,1
180.00,79.63,1
213.00,83.92,1
200.00,91.06,1
215.00,100.34,1
204.00,110.99,1
204.00,122.26,1
258.00,133.97,1
162.00,145.74,1
224.00,156.54,1
225.00,166.46,1
246.00,176.12,1
146.00,184.76,1
208.00,191.39,1
148.00,195.97,1
120.00,198.12,1
45.00,196.79,1
115.00,191.93,1
115.00,185.15,1
40.00,177.06,1
69.00,167.23,1
53.00,156.11,1
42.00,144.30,1
62.00,132.17,1
61.00,120.45,1
46.00,109.47,1
138.00,99.91,1
99.00,92.83,1
109.00,88.08,1
203.00,85.88,1
163.00,87.01,1
204.00,91.07,1
180.00,97.43,1
225.00,105.56,1
267.00,115.65,1
228.00,127.68,1
293.00,141.02,1
244.00,155.26,1
253.00,169.53,1
189.00,182.53,1
244.00,193.60,1
204.00,202.90,1
263.00,210.82,1
136.00,217.03,1
120.00,219.99,1
54.00,218.44,1
197.00,213.57,1
111.00,207.41,1
125.00,200.38,1
97.00,192.18,1
143.00,183.41,1
56.00,174.32,1
84.00,164.44,1
45.00,153.72,1
116.00,142.88,1
122.00,133.21,1
54.00,124.88,1
137.00,117.46,1
236.00,112.59,1
192.00,111.82,1
245.00,114.67,1
232.00,120.59,1
171.00,128.37,1
194.00,136.38,1
162.00,143.92,1
300.00,151.63,1
250.00,160.87,1
303.00,171.64,1
224.00,183.10,1
292.00,194.35,1
207.00,204.88,1
245.00,213.97,1
65.00,220.11,1
146.00,221.81,1
173.00,220.13,1
142.00,216.82,1
63.00,211.44,1
122.00,203.60,1
83.00,194.11,1
64.00,183.39,1
73.00,171.49,1
72.00,159.11,1
104.00,147.11,1
114.00,136.38,1
55.00,126.92,1
80.00,118.05,1
101.00,110.01,1
134.00,103.72,1
174.00,99.98,1
190.00,99.42,1
181.00,101.77,1
229.00,106.67,1
260.00,114.28,1
212.00,124.19,1
268.00,135.47,1
272.00,147.99,1
190.00,160.88,1
206.00,172.45,1
247.00,182.56,1
166.00,191.36,1
230.00,198.41,1
223.00,204.23,1
277.00,209.79,1
210.00,215.22,1
162.00,219.33,1
149.00,220.84,1
125.00,219.49,1
163.00,215.86,1
383.00,212.86,1
130.00,212.29,1
43.00,210.51,1
56.00,204.51,1
65.00,195.02,1
37.00,183.22,1
106.00,170.22,1
51.00,157.21,1
99.00,144.66,1
44.00,132.76,1
88.00,121.62,1
77.00,111.58,1
41.00,102.61,1
222.00,95.55,1
219.00,92.86,1
200.00,94.85,1
133.00,99.46,1
231.00,105.44,1
280.00,113.74,1
328.00,125.63,1
234.00,140.22,1
279.00,155.57,1
273.00,170.94,1
265.00,186.00,1
173.00,199.37,1
399.00,211.29,1
156.00,222.67,1
180.00,231.33,1
134.00,235.60,1
206.00,236.45,1
135.00,234.91,1
113.00,230.85,1
101.00,223.96,1
42.00,214.28,1
115.00,202.37,1
88.00,189.61,1
75.00,176.68,1
69.00,163.57,1
101.00,150.81,1
95.00,139.14,1
86.00,128.80,1
132.00,119.97,1
119.00,113.17,1
178.00,108.81,1
150.00,107.05,1
129.00,107.19,1
228.00,109.00,1
290.00,114.00,1
273.00,122.95,1
240.00,134.56,1
318.00,147.79,1
215.00,161.99,1
244.00,175.63,1
185.00,187.53,1
284.00,197.80,1
259.00,207.43,1
234.00,216.47,1
179.00,223.68,1
191.00,228.20,1
171.00,230.15,1
208.00,230.13,1
173.00,228.79,1
108.00,225.69,1
154.00,220.31,1
64.00,212.88,1
68.00,203.10,1
78.00,191.27,1
83.00,178.46,1
65.00,165.42,1
127.00,152.85,1
141.00,142.05,1
178.00,133.98,1
145.00,128.71,1
234.00,126.30,1
203.00,127.03,1
214.00,130.47,1
184.00,135.51,1
206.00,141.40,1
242.00,148.11,1
218.00,155.82,1
212.00,163.89,1
256.00,172.02,1
264.00,180.68,1
286.00,190.12,1
284.00,200.26,1
166.00,209.78,1
134.00,216.27,1
144.00,218.78,1
110.00,217.82,1
174.00,214.35,1
68.00,208.98,1
94.00,201.34,1
139.00,192.15,1
49.00,182.29,1
90.00,171.46,1
47.00,159.88,1
47.00,147.68,1
101.00,135.50,1
112.00,124.75,1
57.00,115.61,1
127.00,107.77,1
106.00,101.68,1
138.00,97.64,1
166.00,95.88,1
151.00,96.53,1
211.00,99.43,1
210.00,104.81,1
228.00,112.56,1
225.00,122.08,1
236.00,132.83,1
298.00,144.79,1
290.00,158.40,1
388.00,173.95,1
134.00,189.93,1
301.00,203.70,1
64.00,214.06,1
151.00,219.63,1
163.00,220.98,1
256.00,220.75,1
49.00,219.28,1
274.00,216.11,1
66.00,212.01,1
123.00,206.26,1
168.00,199.05,1
96.00,191.57,1
46.00,182.91,1
109.00,172.74,1
62.00,162.01,1
39.00,150.75,1
52.00,138.80,1
127.00,127.37,1
74.00,117.61,1
124.00,109.62,1
439.00,106.20,1
179.00,109.91,1
286.00,118.13,1
231.00,128.62,1
323.00,141.18,1
235.00,155.28,1
273.00,169.68,1
254.00,183.58,1
255.00,196.65,1
204.00,208.07,1
210.00,217.10,1
162.00,223.28,1
220.00,226.81,1
122.00,227.99,1
214.00,226.95,1
174.00,224.64,1
140.00,221.26,1
92.00,215.89,1
84.00,208.06,1
126.00,198.43,1
128.00,188.37,1
69.00,178.23,1
80.00,167.50,1
59.00,156.17,1
127.00,145.09,1
42.00,134.81,1
137.00,125.42,1
48.00,117.14,1
100.00,109.73,1
166.00,103.90,1
174.00,101.04,1
123.00,100.78,1
232.00,102.62,1
190.00,107.06,1
224.00,113.77,1
338.00,123.20,1
197.00,135.35,1
309.00,148.73,1
306.00,163.21,1
275.00,178.69,1
257.00,193.74,1
267.00,207.51,1
157.00,218.94,1
231.00,227.11,1
136.00,232.03,1
210.00,234.02,1
39.00,232.73,1
216.00,228.23,1
82.00,221.84,1
127.00,213.85,1
130.00,204.54,1
50.00,194.29,1
92.00,182.76,1
92.00,170.63,1
49.00,158.46,1
143.00,146.73,1
43.00,136.09,1
80.00,126.05,1
95.00,116.71,1
130.00,109.07,1
157.00,103.87,1
171.00,101.57,1
110.00,101.49,1
111.00,102.21,1
191.00,103.70,1
246.00,107.56,1
273.00,114.83,1
244.00,125.10,1
230.00,136.96,1
160.00,148.58,1
266.00,159.24,1
223.00,169.65,1
262.00,180.02,1
229.00,190.01,1
341.00,200.08,1
143.00,209.82,1
164.00,216.81,1
165.00,220.22,1
210.00,221.35,1
146.00,220.94,1
70.00,218.03,1
69.00,211.56,1
83.00,202.02,1
55.00,190.43,1
54.00,177.37,1
68.00,163.53,1
64.00,149.67,1
66.00,136.36,1
122.00,124.37,1
127.00,114.75,1
73.00,107.36,1
133.00,101.55,1
234.00,98.50,1
189.00,99.45,1
263.00,104.10,1
229.00,111.99,1
300.00,122.70,1
279.00,135.98,1
254.00,150.75,1
312.00,166.07,1
264.00,181.63,1
385.00,197.57,1
216.00,213.47,1
222.00,227.09,1
211.00,237.11,1
215.00,244.00,1
176.00,247.92,1
237.00,249.33,1
164.00,248.90,1
149.00,246.22,1
81.00,240.58,1
120.00,231.92,1
95.00,221.11,1
67.00,208.68,1
52.00,194.67,1
44.00,179.31,1
61.00,163.34,1
74.00,147.78,1
46.00,133.18,1
98.00,119.85,1
118.00,108.74,1
110.00,100.36,1
149.00,94.71,1
184.00,92.18,1
218.00,93.31,1
256.00,98.39,1
249.00,107.09,1
250.00,118.44,1
255.00,131.47,1
277.00,145.59,1
253.00,160.26,1
255.00,174.69,1
290.00,188.59,1
209.00,201.54,1
229.00,212.46,1
219.00,221.06,1
204.00,227.49,1
172.00,231.47,1
166.00,232.74,1
104.00,231.05,1
162.00,226.57,1
157.00,220.51,1
102.00,213.38,1
123.00,204.91,1
88.00,195.34,1
106.00,184.96,1
54.00,173.85,1
173.00,162.85,1
126.00,153.46,1
54.00,145.21,1
58.00,136.56,1
74.00,127.51,1
99.00,118.94,1
182.00,112.24,1
94.00,108.04,1
229.00,106.24,1
193.00,107.51,1
190.00,111.53,1
224.00,117.54,1
268.00,125.66,1
239.00,135.93,1
348.00,148.34,1
167.00,161.97,1
243.00,174.61,1
269.00,186.07,1
253.00,197.17,1
202.00,207.16,1
226.00,215.21,1
97.00,220.42,1
241.00,222.54,1
99.00,222.40,1
112.00,219.44,1
110.00,213.53,1
65.00,205.27,1
151.00,195.41,1
48.00,184.88,1
68.00,173.35,1
48.00,160.80,1
40.00,147.63,1
39.00,134.12,1
76.00,121.01,1
122.00,109.64,1
71.00,100.60,1
168.00,93.97,1
200.00,90.86,1
220.00,92.00,1
187.00,96.65,1
309.00,104.44,1
268.00,115.86,1
283.00,129.97,1
286.00,145.65,1
215.00,161.63,1
288.00,176.73,1
240.00,190.88,1
345.00,204.51,1
266.00,218.01,1
273.00,230.57,1
129.00,240.28,1
242.00,246.11,1
174.00,248.88,1
95.00,248.41,1
115.00,243.80,1
161.00,236.27,1
65.00,226.93,1
69.00,215.31,1
55.00,201.46,1
56.00,186.23,1
99.00,170.71,1
40.00,155.70,1
83.00,141.30,1
76.00,128.02,1
93.00,116.40,1
148.00,107.12,1
158.00,101.06,1
133.00,98.04,1
175.00,97.50,1
181.00,99.34,1
207.00,103.63,1
299.00,110.92,1
258.00,121.61,1
204.00,134.16,1
262.00,146.95,1
323.00,160.51,1
290.00,175.41,1
208.00,190.11,1
275.00,203.10,1
183.00,214.04,1
167.00,221.94,1
136.00,226.01,1
110.00,226.14,1
151.00,222.93,1
127.00,217.58,1
127.00,210.71,1
46.00,202.05,1
100.00,191.44,1
74.00,179.70,1
48.00,167.29,1
76.00,154.37,1
66.00,141.65,1
56.00,129.48,1
85.00,118.14,1
102.00,108.32,1
138.00,100.81,1
68.00,95.47,1
219.00,92.34,1
220.00,92.94,1
261.00,97.91,1
224.00,106.47,1
235.00,117.25,1
158.00,128.62,1
267.00,139.76,1
246.00,151.36,1
282.00,163.82,1
267.00,176.76,1
272.00,189.74,1
118.00,201.01,1
211.00,208.88,1
134.00,213.53,1
186.00,215.51,1
133.00,215.20,1
130.00,212.61,1
82.00,207.58,1
82.00,200.02,1
114.00,190.64,1
45.00,180.15,1
62.00,168.43,1
61.00,155.86,1
48.00,143.06,1
78.00,130.55,1
40.00,118.75,1
127.00,108.21,1
122.00,100.06,1
145.00,94.82,1
128.00,92.13,1
131.00,91.48,1
209.00,92.90,1
216.00,97.19,1
330.00,105.25,1
256.00,117.34,1
242.00,131.56,1
216.00,145.93,1
223.00,159.45,1
240.00,171.91,1
318.00,184.13,1
185.00,196.07,1
282.00,206.69,1
158.00,215.42,1
272.00,222.14,1
149.00,226.93,1
177.00,229.26,1
127.00,228.66,1
177.00,225.65,1
119.00,220.84,1
55.00,213.78,1
108.00,204.15,1
63.00,192.84,1
38.00,180.07,1
46.00,165.95,1
67.00,151.37,1
102.00,137.61,1
38.00,125.15,1
81.00,113.70,1
84.00,103.58,1
84.00,95.21,1
105.00,88.67,1
137.00,84.32,1
200.00,83.01,1
243.00,85.74,1
228.00,92.48,1
252.00,102.39,1
236.00,114.56,1
234.00,127.90,1
276.00,141.91,1
252.00,156.43,1
300.00,171.22,1
180.00,185.32,1
214.00,197.13,1
124.00,205.66,1
248.00,211.23,1
130.00,214.66,1
239.00,216.34,1
147.00,216.73,1
115.00,215.18,1
64.00,210.58,1
117.00,203.10,1
144.00,194.34,1
42.00,184.96,1
44.00,173.98,1
39.00,161.25,1
39.00,147.58,1
69.00,133.88,1
37.00,120.81,1
93.00,108.84,1
58.00,98.46,1
137.00,90.18,1
160.00,84.97,1
151.00,83.22,1
174.00,84.42,1
247.00,88.65,1
186.00,95.99,1
272.00,105.82,1
257.00,117.90,1
237.00,131.63,1
219.00,145.60,1
252.00,159.06,1
294.00,172.47,1
215.00,185.69,1
300.00,198.05,1
307.00,210.17,1
208.00,221.70,1
192.00,230.70,1
214.00,236.58,1
143.00,239.54,1
153.00,239.28,1
129.00,235.95,1
163.00,230.41,1
171.00,223.75,1
138.00,216.61,1
115.00,208.66,1
65.00,199.31,1
