51.00,154.69,1
206.00,151.92,1
73.00,149.22,1
91.00,145.88,1
66.00,141.16,1
48.00,135.12,1
542.00,131.93,1
298.00,136.91,1
204.00,147.27,1
95.00,156.89,1
952.00,170.18,1
87.00,191.87,1
107.00,212.21,1
155.00,224.36,1
46.00,229.97,1
158.00,229.97,1
80.00,225.95,1
50.00,218.45,1
190.00,208.59,1
572.00,202.50,1
140.00,203.35,1
207.00,206.00,1
50.00,206.20,1
608.00,207.10,1
425.00,214.98,1
44.00,226.29,1
310.00,234.19,1
101.00,238.75,1
96.00,239.35,1
264.00,236.46,1
796.00,238.20,1
318.00,249.68,1
201.00,263.69,1
43.00,271.94,1
290.00,273.98,1
208.00,273.31,1
166.00,270.95,1
45.00,265.02,1
56.00,254.23,1
375.00,242.01,1
40.00,231.72,1
252.00,222.08,1
155.00,213.17,1
39.00,204.33,1
190.00,194.36,1
622.00,189.00,1
94.00,191.30,1
542.00,197.93,1
496.00,210.34,1
243.00,227.52,1
113.00,242.09,1
133.00,250.10,1
925.00,258.70,1
97.00,273.95,1
76.00,286.34,1
38.00,288.62,1
76.00,282.62,1
206.00,271.88,1
720.00,264.73,1
59.00,264.71,1
94.00,263.62,1
205.00,257.79,1
288.00,251.38,1
495.00,248.73,1
55.00,249.54,1
79.00,247.55,1
862.00,246.76,1
52.00,253.29,1
141.00,259.03,1
161.00,258.81,1
36.00,254.17,1
123.00,245.16,1
160.00,233.78,1
80.00,221.70,1
485.00,211.86,1
39.00,206.42,1
78.00,200.76,1
746.00,197.61,1
87.00,202.43,1
57.00,207.47,1
202.00,207.79,1
120.00,205.94,1
758.00,207.66,1
52.00,216.12,1
43.00,222.86,1
104.00,222.57,1
590.00,221.94,1
51.00,225.21,1
198.00,227.61,1
166.00,226.95,1
68.00,223.82,1
42.00,216.87,1
156.00,206.95,1
47.00,195.84,1
36.00,183.27,1
42.00,168.96,1
43.00,153.79,1
412.00,141.65,1
66.00,135.48,1
201.00,132.50,1
41.00,130.06,1
91.00,126.99,1
506.00,126.51,1
60.00,131.63,1
182.00,137.84,1
78.00,142.12,1
54.00,143.90,1
46.00,142.38,1
57.00,138.13,1
47.00,132.04,1
295.00,126.74,1
44.00,124.18,1
262.00,123.46,1
146.00,124.76,1
40.00,126.54,1
608.00,130.62,1
47.00,140.32,1
60.00,149.36,1
98.00,153.43,1
68.00,154.07,1
38.00,151.68,1
500.00,150.17,1
42.00,153.09,1
92.00,155.83,1
46.00,155.00,1
774.00,157.22,1
41.00,167.31,1
65.00,177.09,1
39.00,180.37,1
58.00,178.51,1
102.00,173.23,1
65.00,166.18,1
244.00,159.26,1
578.00,158.21,1
98.00,164.61,1
71.00,171.03,1
73.00,172.79,1
72.00,170.75,1
214.00,167.11,1
47.00,163.33,1
217.00,159.38,1
56.00,155.55,1
72.00,150.79,1
352.00,146.75,1
45.00,145.63,1
63.00,144.12,1
378.00,142.75,1
37.00,144.08,1
216.00,145.85,1
56.00,146.72,1
119.00,146.21,1
177.00,144.87,1
112.00,143.90,1
74.00,142.32,1
51.00,138.97,1
135.00,134.39,1
51.00,129.52,1
38.00,123.81,1
51.00,116.83,1
505.00,113.03,1
44.00,115.58,1
82.00,119.29,1
106.00,120.74,1
109.00,121.17,1
68.00,120.73,1
228.00,120.31,1
106.00,121.23,1
209.00,123.29,1
45.00,125.49,1
83.00,126.15,1
47.00,124.62,1
81.00,121.45,1
562.00,121.41,1
43.00,127.72,1
402.00,137.01,1
67.00,147.12,1
55.00,154.81,1
310.00,159.54,1
50.00,163.86,1
390.00,168.34,1
88.00,173.78,1
173.00,178.27,1
43.00,179.72,1
54.00,177.46,1
64.00,171.58,1
536.00,167.39,1
84.00,168.72,1
137.00,171.13,1
62.00,170.77,1
50.00,167.42,1
355.00,163.59,1
90.00,162.32,1
69.00,160.98,1
68.00,157.04,1
114.00,151.48,1
115.00,145.64,1
87.00,139.93,1
58.00,133.83,1
322.00,129.12,1
59.00,127.58,1
65.00,126.38,1
50.00,123.24,1
644.00,123.52,1
62.00,131.25,1
92.00,139.91,1
742.00,150.04,1
87.00,166.57,1
72.00,181.80,1
49.00,189.65,1
127.00,191.77,1
59.00,190.05,1
252.00,186.54,1
118.00,183.34,1
161.00,180.20,1
90.00,176.23,1
92.00,170.94,1
108.00,164.41,1
44.00,156.89,1
78.00,148.23,1
102.00,139.24,1
71.00,130.70,1
78.00,122.55,1
360.00,117.17,1
61.00,116.37,1
46.00,116.29,1
124.00,114.66,1
111.00,112.97,1
48.00,111.20,1
136.00,109.01,1
42.00,106.73,1
82.00,103.96,1
39.00,100.43,1
38.00,96.04,1
43.00,90.81,1
105.00,85.72,1
142.00,82.28,1
79.00,80.83,1
444.00,83.31,1
36.00,90.78,1
122.00,98.74,1
91.00,104.57,1
59.00,108.54,1
83.00,110.39,1
53.00,110.42,1
120.00,109.34,1
58.00,107.80,1
94.00,105.80,1
46.00,103.19,1
101.00,100.16,1
77.00,97.22,1
51.00,94.30,1
58.00,90.92,1
177.00,88.19,1
43.00,86.97,1
49.00,85.74,1
84.00,83.83,1
63.00,81.92,1
41.00,79.84,1
56.00,77.27,1
70.00,74.61,1
43.00,72.09,1
50.00,69.50,1
120.00,67.41,1
95.00,66.78,1
418.00,70.13,1
67.00,78.64,1
46.00,87.46,1
92.00,93.34,1
146.00,97.82,1
82.00,101.84,1
434.00,107.68,1
85.00,117.12,1
80.00,126.09,1
44.00,131.12,1
48.00,132.39,1
51.00,130.51,1
83.00,126.68,1
85.00,122.08,1
96.00,117.41,1
111.00,113.19,1
85.00,109.58,1
81.00,106.19,1
68.00,102.71,1
55.00,98.91,1
76.00,94.85,1
197.00,91.96,1
46.00,91.01,1
37.00,89.97,1
47.00,87.57,1
100.00,84.76,1
46.00,82.24,1
37.00,79.50,1
67.00,76.34,1
37.00,73.12,1
72.00,70.02,1
56.00,67.31,1
46.00,64.93,1
118.00,63.16,1
87.00,62.79,1
78.00,63.49,1
173.00,65.38,1
108.00,69.06,1
96.00,73.59,1
74.00,77.69,1
54.00,80.70,1
82.00,82.49,1
102.00,83.77,1
127.00,85.39,1
294.00,89.17,1
115.00,95.95,1
88.00,103.00,1
51.00,107.77,1
39.00,109.71,1
80.00,109.26,1
195.00,108.56,1
36.00,108.63,1
85.00,108.00,1
111.00,106.57,1
80.00,105.16,1
81.00,103.52,1
77.00,101.48,1
51.00,98.92,1
43.00,95.54,1
124.00,91.96,1
70.00,89.19,1
152.00,87.58,1
37.00,86.85,1
113.00,86.23,1
91.00,85.83,1
50.00,85.55,1
68.00,84.64,1
144.00,83.88,1
145.00,84.67,1
76.00,86.69,1
129.00,88.89,1
148.00,91.60,1
137.00,95.28,1
181.00,99.92,1
284.00,106.62,1
44.00,114.74,1
51.00,120.61,1
66.00,122.82,1
41.00,122.28,1
466.00,122.91,1
58.00,127.88,1
44.00,132.60,1
89.00,133.74,1
110.00,132.91,1
78.00,131.10,1
45.00,127.96,1
322.00,125.40,1
151.00,126.25,1
184.00,129.39,1
111.00,132.70,1
135.00,135.30,1
200.00,137.60,1
709.00,145.10,1
137.00,160.62,1
326.00,177.89,1
140.00,192.82,1
212.00,204.54,1
281.00,213.66,1
84.00,220.61,1
426.00,225.83,1
210.00,231.81,1
106.00,236.56,1
194.00,237.42,1
59.00,234.73,1
162.00,228.81,1
91.00,220.65,1
83.00,210.62,1
484.00,202.15,1
217.00,199.58,1
68.00,199.21,1
84.00,195.93,1
140.00,190.06,1
227.00,184.18,1
103.00,179.39,1
127.00,174.44,1
553.00,172.47,1
200.00,177.17,1
91.00,183.54,1
377.00,188.58,1
187.00,194.71,1
207.00,200.85,1
102.00,204.67,1
204.00,205.86,1
78.00,204.83,1
50.00,200.59,1
263.00,194.37,1
147.00,189.20,1
235.00,185.57,1
217.00,183.57,1
46.00,181.89,1
160.00,178.44,1
158.00,174.25,1
104.00,170.09,1
72.00,164.90,1
464.00,161.39,1
127.00,162.75,1
271.00,166.58,1
125.00,170.56,1
162.00,173.58,1
604.00,178.88,1
264.00,190.54,1
63.00,202.99,1
411.00,212.33,1
183.00,221.24,1
285.00,229.48,1
45.00,234.73,1
115.00,234.97,1
104.00,230.40,1
77.00,222.60,1
50.00,211.83,1
230.00,199.96,1
257.00,190.67,1
134.00,184.59,1
328.00,180.92,1
87.00,179.40,1
124.00,177.48,1
72.00,173.50,1
330.00,169.68,1
46.00,167.61,1
130.00,165.05,1
294.00,162.61,1
95.00,162.11,1
118.00,161.34,1
162.00,159.47,1
605.00,161.47,1
143.00,170.17,1
80.00,179.20,1
94.00,183.40,1
68.00,183.27,1
77.00,179.58,1
238.00,174.63,1
237.00,171.65,1
176.00,171.07,1
284.00,172.20,1
146.00,174.76,1
212.00,177.44,1
114.00,179.26,1
147.00,179.54,1
153.00,178.45,1
81.00,176.12,1
180.00,172.59,1
150.00,169.09,1
83.00,165.49,1
257.00,162.02,1
97.00,159.76,1
217.00,158.29,1
58.00,156.81,1
90.00,153.99,1
205.00,150.41,1
286.00,149.22,1
158.00,151.17,1
86.00,153.33,1
141.00,153.79,1
112.00,153.00,1
46.00,150.74,1
224.00,147.58,1
110.00,145.30,1
49.00,142.83,1
69.00,138.52,1
242.00,134.20,1
148.00,132.28,1
141.00,132.08,1
138.00,132.24,1
260.00,133.61,1
312.00,138.25,1
277.00,146.80,1
92.00,156.39,1
271.00,164.56,1
84.00,171.26,1
63.00,174.79,1
92.00,174.16,1
255.00,172.06,1
114.00,170.70,1
141.00,169.19,1
162.00,167.04,1
99.00,164.54,1
303.00,162.68,1
182.00,163.25,1
496.00,167.93,1
40.00,176.00,1
165.00,182.44,1
119.00,185.33,1
175.00,186.16,1
289.00,186.90,1
77.00,188.16,1
366.00,189.58,1
281.00,193.42,1
118.00,198.62,1
112.00,201.19,1
41.00,199.65,1
184.00,194.95,1
81.00,188.99,1
141.00,182.22,1
101.00,174.88,1
105.00,167.22,1
105.00,159.30,1
103.00,151.45,1
168.00,144.44,1
132.00,139.06,1
177.00,135.42,1
215.00,133.99,1
80.00,134.15,1
242.00,134.94,1
279.00,138.06,1
145.00,143.70,1
42.00,148.27,1
746.00,154.94,1
196.00,169.17,1
178.00,185.27,1
154.00,197.19,1
421.00,207.22,1
74.00,216.84,1
48.00,222.04,1
326.00,222.75,1
127.00,222.76,1
58.00,220.65,1
278.00,216.06,1
163.00,211.85,1
269.00,208.88,1
110.00,206.42,1
60.00,202.24,1
210.00,195.97,1
223.00,190.54,1
81.00,186.22,1
166.00,181.30,1
58.00,175.45,1
169.00,168.91,1
300.00,164.14,1
376.00,164.56,1
144.00,169.37,1
81.00,173.58,1
302.00,176.06,1
39.00,178.11,1
246.00,178.94,1
140.00,179.20,1
115.00,178.76,1
84.00,176.25,1
152.00,172.09,1
200.00,168.10,1
124.00,165.10,1
105.00,161.94,1
56.00,157.39,1
349.00,153.41,1
60.00,152.07,1
143.00,151.08,1
300.00,150.68,1
260.00,153.69,1
206.00,159.36,1
121.00,164.97,1
215.00,169.25,1
178.00,172.94,1
47.00,175.13,1
391.00,176.48,1
146.00,179.73,1
94.00,182.68,1
414.00,185.06,1
96.00,189.18,1
101.00,191.90,1
119.00,191.03,1
195.00,188.45,1
192.00,186.05,1
65.00,183.38,1
57.00,178.42,1
174.00,171.67,1
148.00,165.42,1
188.00,160.65,1
179.00,157.53,1
115.00,155.43,1
70.00,152.64,1
139.00,148.72,1
106.00,144.57,1
232.00,141.45,1
86.00,139.83,1
111.00,138.23,1
90.00,135.73,1
214.00,133.52,1
71.00,132.30,1
245.00,131.97,1
242.00,134.00,1
243.00,139.19,1
74.00,145.16,1
47.00,148.50,1
128.00,148.59,1
158.00,147.55,1
84.00,146.24,1
102.00,143.96,1
155.00,141.11,1
56.00,138.15,1
577.00,138.31,1
125.00,145.01,1
144.00,153.34,1
186.00,159.54,1
102.00,164.08,1
144.00,166.51,1
488.00,170.11,1
220.00,178.34,1
325.00,189.07,1
132.00,199.26,1
87.00,205.95,1
211.00,208.48,1
475.00,211.66,1
87.00,217.42,1
190.00,221.53,1
87.00,221.89,1
249.00,219.89,1
144.00,217.12,1
159.00,213.57,1
160.00,208.91,1
122.00,203.43,1
144.00,197.06,1
305.00,191.63,1
72.00,187.99,1
74.00,183.32,1
172.00,176.90,1
111.00,170.55,1
83.00,164.03,1
43.00,156.29,1
255.00,148.73,1
162.00,143.99,1
77.00,141.06,1
158.00,138.09,1
135.00,135.63,1
601.00,137.75,1
184.00,147.41,1
40.00,158.21,1
286.00,165.74,1
160.00,172.36,1
442.00,180.37,1
80.00,189.78,1
194.00,197.24,1
123.00,201.23,1
334.00,204.00,1
98.00,206.71,1
160.00,207.62,1
114.00,205.84,1
175.00,202.32,1
176.00,198.23,1
157.00,194.22,1
108.00,189.69,1
101.00,183.88,1
121.00,176.94,1
44.00,169.01,1
86.00,159.82,1
98.00,150.12,1
100.00,140.93,1
69.00,132.32,1
89.00,124.10,1
55.00,116.23,1
62.00,108.56,1
225.00,102.48,1
73.00,99.31,1
478.00,100.70,1
463.00,110.85,1
184.00,128.08,1
246.00,145.91,1
354.00,163.15,1
195.00,180.37,1
219.00,195.45,1
63.00,206.19,1
55.00,210.80,1
158.00,210.00,1
47.00,205.89,1
290.00,200.45,1
165.00,196.24,1
227.00,193.55,1
96.00,191.03,1
383.00,189.42,1
173.00,190.54,1
84.00,191.81,1
68.00,189.81,1
93.00,184.52,1
310.00,179.06,1
112.00,175.82,1
175.00,173.42,1
182.00,171.18,1
154.00,169.55,1
69.00,167.32,1
181.00,163.98,1
264.00,161.78,1
112.00,161.56,1
186.00,161.63,1
166.00,161.71,1
84.00,161.39,1
147.00,159.78,1
78.00,157.04,1
53.00,152.69,1
177.00,147.31,1
181.00,143.21,1
218.00,141.64,1
173.00,142.29,1
109.00,143.65,1
100.00,143.98,1
109.00,142.92,1
52.00,140.42,1
285.00,137.99,1
105.00,137.61,1
82.00,137.54,1
422.00,138.67,1
146.00,143.84,1
58.00,149.41,1
47.00,151.20,1
318.00,151.44,1
127.00,153.33,1
115.00,155.37,1
60.00,155.22,1
114.00,152.86,1
95.00,149.13,1
79.00,144.53,1
118.00,139.31,1
95.00,134.13,1
88.00,129.02,1
101.00,123.95,1
132.00,119.48,1
255.00,117.26,1
288.00,119.41,1
62.00,124.54,1
202.00,129.41,1
275.00,134.96,1
70.00,141.53,1
227.00,147.15,1
162.00,152.23,1
176.00,157.06,1
160.00,161.12,1
114.00,163.91,1
62.00,164.31,1
54.00,161.58,1
74.00,156.17,1
216.00,150.34,1
47.00,145.51,1
448.00,143.32,1
50.00,145.19,1
224.00,148.20,1
69.00,150.27,1
73.00,150.44,1
114.00,148.29,1
88.00,144.96,1
70.00,140.60,1
137.00,135.66,1
247.00,132.31,1
127.00,131.70,1
205.00,132.73,1
146.00,134.78,1
165.00,137.36,1
103.00,139.57,1
132.00,140.79,1
174.00,141.52,1
167.00,142.75,1
82.00,143.85,1
210.00,144.39,1
122.00,145.19,1
176.00,146.20,1
141.00,147.22,1
105.00,147.79,1
194.00,147.83,1
176.00,148.52,1
235.00,150.59,1
182.00,154.04,1
225.00,158.40,1
108.00,162.59,1
144.00,165.24,1
127.00,166.08,1
86.00,165.22,1
207.00,163.28,1
88.00,161.25,1
304.00,160.06,1
121.00,160.63,1
141.00,161.43,1
51.00,160.44,1
152.00,157.63,1
107.00,154.09,1
80.00,149.97,1
337.00,146.89,1
148.00,147.21,1
236.00,149.77,1
112.00,152.83,1
127.00,154.94,1
130.00,155.51,1
90.00,154.73,1
319.00,154.23,1
155.00,156.06,1
113.00,158.43,1
176.00,159.59,1
37.00,159.33,1
231.00,157.84,1
53.00,156.04,1
121.00,153.29,1
128.00,149.64,1
93.00,145.78,1
422.00,144.14,1
235.00,147.85,1
157.00,154.51,1
142.00,160.18,1
184.00,164.35,1
171.00,167.72,1
59.00,169.56,1
260.00,169.88,1
146.00,170.50,1
170.00,171.31,1
161.00,171.60,1
57.00,170.68,1
269.00,168.83,1
167.00,168.14,1
185.00,168.59,1
112.00,168.71,1
167.00,167.99,1
324.00,168.27,1
93.00,170.43,1
107.00,171.53,1
43.00,169.59,1
108.00,164.97,1
170.00,159.55,1
52.00,154.27,1
289.00,149.81,1
250.00,148.78,1
216.00,151.45,1
336.00,156.91,1
229.00,165.15,1
180.00,174.01,1
44.00,180.21,1
86.00,181.87,1
62.00,179.37,1
183.00,174.79,1
96.00,169.85,1
241.00,165.58,1
353.00,164.57,1
303.00,168.73,1
229.00,176.18,1
36.00,182.60,1
53.00,184.35,1
46.00,181.07,1
291.00,176.18,1
271.00,174.06,1
106.00,174.49,1
92.00,173.81,1
85.00,170.64,1
63.00,165.26,1
139.00,158.60,1
141.00,152.28,1
45.00,146.29,1
264.00,141.00,1
229.00,138.95,1
141.00,139.94,1
170.00,141.70,1
80.00,142.99,1
212.00,143.72,1
107.00,144.57,1
104.00,144.82,1
80.00,143.48,1
100.00,140.70,1
97.00,137.05,1
88.00,132.89,1
366.00,130.64,1
191.00,132.98,1
237.00,138.52,1
197.00,145.32,1
62.00,151.40,1
90.00,154.41,1
70.00,154.12,1
79.00,151.33,1
89.00,146.82,1
102.00,141.51,1
197.00,136.85,1
355.00,135.84,1
119.00,139.10,1
124.00,142.91,1
36.00,144.40,1
200.00,143.99,1
62.00,143.04,1
75.00,140.89,1
197.00,137.96,1
103.00,135.91,1
92.00,133.94,1
56.00,130.83,1
69.00,126.40,1
100.00,121.28,1
50.00,116.00,1
252.00,111.89,1
37.00,109.96,1
127.00,108.61,1
233.00,108.33,1
151.00,110.71,1
212.00,115.07,1
201.00,120.99,1
55.00,127.03,1
86.00,130.68,1
112.00,131.92,1
105.00,131.95,1
170.00,131.67,1
183.00,132.30,1
118.00,133.82,1
233.00,135.94,1
213.00,139.66,1
83.00,144.01,1
178.00,147.16,1
207.00,150.02,1
246.00,154.18,1
112.00,158.95,1
151.00,162.44,1
72.00,163.73,1
56.00,162.17,1
145.00,158.33,1
51.00,153.47,1
129.00,147.80,1
290.00,143.56,1
92.00,142.24,1
165.00,141.82,1
76.00,140.93,1
47.00,138.56,1
124.00,134.60,1
58.00,130.06,1
41.00,124.60,1
114.00,118.43,1
56.00,112.51,1
122.00,107.17,1
57.00,102.52,1
227.00,99.42,1
192.00,99.63,1
127.00,102.60,1
206.00,106.85,1
123.00,112.06,1
250.00,118.12,1
91.00,124.74,1
43.00,129.57,1
274.00,132.68,1
243.00,137.55,1
316.00,145.61,1
128.00,155.22,1
71.00,162.71,1
159.00,166.54,1
52.00,167.56,1
774.00,171.40,1
180.00,183.30,1
36.00,195.98,1
174.00,202.64,1
104.00,205.02,1
189.00,204.73,1
164.00,203.08,1
152.00,200.65,1
76.00,196.62,1
58.00,190.04,1
324.00,183.04,1
210.00,179.27,1
208.00,178.35,1
73.00,177.53,1
51.00,174.37,1
110.00,168.53,1
519.00,165.06,1
106.00,167.31,1
77.00,170.19,1
96.00,169.67,1
113.00,166.83,1
128.00,162.85,1
241.00,159.48,1
175.00,158.13,1
64.00,157.29,1
66.00,154.50,1
153.00,150.14,1
119.00,145.92,1
246.00,143.15,1
169.00,142.76,1
93.00,143.35,1
418.00,145.47,1
82.00,150.64,1
140.00,155.57,1
252.00,159.24,1
115.00,163.05,1
126.00,165.58,1
119.00,166.04,1
66.00,164.44,1
84.00,160.56,1
106.00,155.09,1
52.00,148.66,1
123.00,141.62,1
129.00,135.11,1
204.00,130.54,1
118.00,128.18,1
110.00,126.70,1
68.00,124.74,1
229.00,123.05,1
51.00,122.48,1
124.00,121.75,1
367.00,122.68,1
126.00,127.54,1
77.00,132.78,1
196.00,136.29,1
194.00,139.93,1
132.00,144.00,1
110.00,147.02,1
77.00,148.00,1
95.00,146.79,1
159.00,144.54,1
46.00,141.84,1
142.00,138.33,1
196.00,135.44,1
96.00,133.97,1
85.00,132.33,1
246.00,130.94,1
58.00,130.81,1
125.00,130.41,1
105.00,129.20,1
64.00,127.32,1
77.00,124.24,1
211.00,121.33,1
183.00,120.74,1
107.00,121.98,1
74.00,122.78,1
80.00,122.09,1
140.00,120.62,1
132.00,119.59,1
110.00,119.10,1
138.00,118.84,1
131.00,118.99,1
127.00,119.53,1
84.00,119.86,1
64.00,119.10,1
129.00,117.40,1
107.00,115.78,1
114.00,114.49,1
129.00,113.56,1
132.00,113.27,1
127.00,113.61,1
147.00,114.52,1
213.00,116.66,1
81.00,119.86,1
107.00,122.30,1
288.00,124.93,1
134.00,129.55,1
514.00,137.63,1
216.00,150.66,1
72.00,164.00,1
201.00,173.35,1
216.00,180.42,1
391.00,188.30,1
180.00,197.83,1
174.00,206.17,1
316.00,212.67,1
227.00,219.12,1
172.00,224.56,1
410.00,229.38,1
171.00,235.08,1
270.00,240.09,1
128.00,242.89,1
120.00,242.29,1
171.00,238.26,1
205.00,232.84,1
257.00,227.95,1
188.00,224.20,1
234.00,221.10,1
115.00,217.80,1
174.00,213.34,1
114.00,207.66,1
169.00,201.18,1
89.00,194.06,1
108.00,185.98,1
377.00,179.33,1
210.00,177.29,1
315.00,179.07,1
187.00,183.00,1
124.00,186.66,1
135.00,187.96,1
251.00,188.07,1
392.00,190.48,1
495.00,198.72,1
463.00,213.72,1
290.00,232.28,1
354.00,250.28,1
240.00,265.91,1
125.00,276.88,1
245.00,282.10,1
323.00,284.48,1
200.00,285.89,1
440.00,287.12,1
356.00,290.43,1
122.00,293.89,1
316.00,294.37,1
96.00,291.99,1
79.00,285.26,1
152.00,274.02,1
193.00,261.17,1
250.00,249.27,1
132.00,238.80,1
115.00,228.15,1
200.00,217.14,1
363.00,208.85,1
202.00,205.01,1
251.00,203.75,1
114.00,202.81,1
231.00,201.27,1
338.00,201.01,1
256.00,203.80,1
409.00,209.62,1
422.00,219.54,1
220.00,232.01,1
210.00,242.68,1
255.00,250.13,1
288.00,255.85,1
264.00,260.79,1
340.00,265.47,1
428.00,271.61,1
168.00,278.57,1
297.00,283.42,1
110.00,284.91,1
150.00,282.11,1
261.00,276.21,1
130.00,269.21,1
143.00,260.47,1
139.00,249.81,1
202.00,238.61,1
108.00,227.57,1
273.00,217.37,1
150.00,209.08,1
293.00,203.03,1
377.00,200.94,1
598.00,206.34,1
300.00,219.26,1
175.00,233.18,1
261.00,243.55,1
187.00,250.66,1
198.00,254.65,1
241.00,256.06,1
320.00,256.92,1
321.00,259.03,1
128.00,261.08,1
184.00,260.27,1
186.00,256.68,1
291.00,252.46,1
150.00,248.49,1
284.00,244.49,1
268.00,241.53,1
90.00,238.81,1
140.00,233.70,1
103.00,226.00,1
105.00,216.39,1
78.00,205.17,1
150.00,193.27,1
147.00,182.18,1
227.00,173.28,1
257.00,167.87,1
119.00,165.32,1
325.00,164.69,1
140.00,166.33,1
129.00,168.15,1
384.00,170.46,1
118.00,174.98,1
381.00,180.93,1
430.00,190.38,1
341.00,204.39,1
113.00,218.42,1
319.00,229.16,1
137.00,237.07,1
266.00,242.35,1
179.00,245.32,1
436.00,248.24,1
164.00,252.29,1
107.00,254.20,1
292.00,252.76,1
85.00,249.72,1
173.00,244.36,1
236.00,237.72,1
141.00,231.31,1
146.00,224.27,1
193.00,216.66,1
216.00,209.91,1
290.00,205.42,1
264.00,204.01,1
218.00,204.75,1
112.00,205.26,1
150.00,203.72,1
304.00,201.74,1
383.00,203.02,1
347.00,209.05,1
266.00,217.85,1
110.00,225.51,1
146.00,229.06,1
247.00,229.53,1
253.00,229.68,1
350.00,231.32,1
376.00,235.94,1
189.00,242.36,1
387.00,248.67,1
108.00,254.09,1
412.00,258.19,1
181.00,261.96,1
127.00,263.60,1
312.00,262.28,1
103.00,259.66,1
376.00,256.45,1
182.00,254.12,1
322.00,252.74,1
155.00,251.43,1
351.00,250.25,1
179.00,249.65,1
213.00,248.54,1
192.00,246.05,1
387.00,244.16,1
152.00,243.92,1
357.00,244.33,1
235.00,245.68,1
225.00,247.29,1
392.00,249.23,1
216.00,252.61,1
356.00,256.60,1
287.00,261.19,1
298.00,266.21,1
314.00,271.13,1
72.00,274.14,1
82.00,271.78,1
136.00,264.03,1
356.00,255.27,1
160.00,248.51,1
176.00,242.18,1
149.00,234.82,1
517.00,229.66,1
253.00,230.12,1
310.00,233.90,1
260.00,238.41,1
307.00,243.37,1
209.00,248.04,1
241.00,251.37,1
225.00,253.14,1
211.00,253.56,1
364.00,253.85,1
289.00,255.85,1
275.00,258.98,1
300.00,262.23,1
155.00,264.54,1
192.00,264.15,1
199.00,261.21,1
202.00,256.86,1
169.00,251.44,1
339.00,246.27,1
86.00,241.92,1
109.00,235.72,1
147.00,226.92,1
87.00,216.74,1
189.00,206.03,1
169.00,196.33,1
453.00,190.59,1
286.00,191.19,1
199.00,195.48,1
575.00,202.72,1
108.00,213.56,1
140.00,222.43,1
182.00,226.49,1
415.00,229.68,1
137.00,234.01,1
214.00,237.03,1
350.00,239.05,1
148.00,241.45,1
332.00,243.39,1
278.00,245.83,1
114.00,247.84,1
201.00,247.00,1
264.00,244.62,1
402.00,244.08,1
127.00,245.47,1
355.00,246.78,1
116.00,247.48,1
103.00,245.51,1
131.00,239.56,1
110.00,231.04,1
181.00,221.31,1
287.00,212.87,1
128.00,206.73,1
170.00,201.11,1
192.00,195.65,1
418.00,193.07,1
209.00,194.98,1
188.00,198.44,1
262.00,201.52,1
146.00,204.28,1
195.00,205.82,1
384.00,207.79,1
147.00,211.57,1
235.00,215.01,1
324.00,218.28,1
191.00,222.44,1
183.00,225.59,1
338.00,227.92,1
351.00,232.19,1
154.00,237.62,1
403.00,242.67,1
286.00,248.81,1
246.00,255.33,1
199.00,259.91,1
89.00,260.85,1
166.00,257.45,1
68.00,250.39,1
104.00,240.09,1
386.00,229.76,1
127.00,222.62,1
82.00,215.80,1
218.00,207.64,1
49.00,199.25,1
42.00,189.23,1
58.00,176.86,1
216.00,164.70,1
37.00,154.37,1
68.00,144.36,1
148.00,134.62,1
254.00,127.90,1
56.00,124.48,1
71.00,121.38,1
75.00,117.25,1
93.00,112.83,1
58.00,108.37,1
338.00,105.93,1
141.00,107.87,1
453.00,114.68,1
331.00,127.48,1
273.00,144.57,1
224.00,161.91,1
198.00,177.33,1
124.00,189.32,1
173.00,197.27,1
95.00,201.40,1
53.00,201.28,1
71.00,196.82,1
108.00,189.35,1
148.00,181.00,1
150.00,173.25,1
132.00,166.42,1
82.00,159.82,1
52.00,152.38,1
97.00,143.99,1
165.00,136.25,1
126.00,130.45,1
121.00,126.18,1
51.00,122.23,1
44.00,117.39,1
99.00,111.77,1
142.00,106.98,1
120.00,103.96,1
128.00,102.47,1
134.00,102.17,1
42.00,102.18,1
79.00,101.25,1
67.00,99.40,1
49.00,96.86,1
308.00,95.66,1
66.00,97.64,1
36.00,99.85,1
106.00,100.22,1
108.00,100.13,1
129.00,100.48,1
51.00,100.87,1
196.00,101.36,1
135.00,103.19,1
330.00,107.78,1
147.00,115.54,1
326.00,125.52,1
86.00,136.31,1
74.00,144.72,1
43.00,148.53,1
261.00,149.98,1
94.00,151.57,1
173.00,152.91,1
112.00,153.43,1
102.00,152.86,1
125.00,151.00,1
422.00,151.00,1
118.00,155.02,1
123.00,159.43,1
92.00,161.27,1
36.00,160.14,1
144.00,156.51,1
219.00,153.05,1
47.00,150.57,1
142.00,147.47,1
232.00,144.88,1
140.00,144.30,1
104.00,144.18,1
159.00,143.51,1
89.00,142.48,1
58.00,140.24,1
230.00,137.48,1
72.00,135.72,1
99.00,133.80,1
384.00,133.31,1
123.00,136.69,1
88.00,140.69,1
164.00,142.90,1
185.00,144.83,1
147.00,147.14,1
247.00,150.03,1
76.00,153.19,1
329.00,156.55,1
247.00,162.06,1
139.00,168.84,1
83.00,173.44,1
183.00,175.19,1
240.00,176.42,1
268.00,179.22,1
109.00,182.74,1
128.00,184.45,1
62.00,183.18,1
112.00,179.14,1
102.00,173.34,1
129.00,166.90,1
177.00,160.92,1
169.00,156.45,1
123.00,153.17,1
99.00,149.85,1
196.00,146.65,1
48.00,143.82,1
42.00,139.67,1
214.00,134.75,1
59.00,130.93,1
267.00,128.64,1
198.00,129.18,1
41.00,131.15,1
53.00,131.05,1
74.00,128.47,1
47.00,124.29,1
72.00,118.97,1
261.00,114.73,1
291.00,115.11,1
87.00,119.25,1
150.00,123.53,1
168.00,127.29,1
56.00,130.42,1
43.00,131.15,1
40.00,128.87,1
180.00,125.36,1
165.00,123.23,1
289.00,124.15,1
120.00,127.92,1
162.00,132.27,1
42.00,135.22,1
152.00,136.27,1
128.00,136.47,1
49.00,135.90,1
41.00,133.14,1
43.00,128.08,1
93.00,121.82,1
136.00,116.05,1
135.00,111.96,1
64.00,109.04,1
210.00,107.14,1
93.00,106.93,1
306.00,109.05,1
109.00,113.83,1
205.00,119.73,1
44.00,124.90,1
45.00,127.47,1
131.00,127.39,1
144.00,126.85,1
98.00,126.52,1
155.00,126.17,1
58.00,125.59,1
333.00,125.99,1
276.00,130.43,1
52.00,137.25,1
74.00,141.64,1
64.00,142.44,1
151.00,141.25,1
127.00,139.75,1
88.00,138.06,1
111.00,135.62,1
194.00,133.46,1
47.00,131.92,1
84.00,129.46,1
131.00,126.16,1
75.00,122.96,1
168.00,120.17,1
38.00,117.79,1
362.00,117.12,1
193.00,120.66,1
57.00,126.02,1
86.00,129.17,1
207.00,130.88,1
150.00,133.22,1
105.00,135.65,1
109.00,136.89,1
188.00,137.52,1
425.00,140.95,1
44.00,147.83,1
49.00,152.81,1
146.00,153.90,1
34.00,152.70,1
211.00,150.26,1
70.00,147.77,1
68.00,144.45,1
192.00,140.43,1
292.00,138.90,1
211.00,141.35,1
331.00,147.22,1
439.00,157.70,1
199.00,172.17,1
279.00,186.70,1
167.00,199.21,1
198.00,208.81,1
308.00,216.40,1
301.00,224.25,1
343.00,233.19,1
117.00,241.40,1
188.00,245.97,1
134.00,246.40,1
200.00,244.01,1
256.00,240.64,1
206.00,237.71,1
174.00,234.57,1
306.00,231.54,1
183.00,229.60,1
306.00,228.61,1
114.00,227.82,1
292.00,226.51,1
307.00,226.35,1
230.00,228.16,1
252.00,230.42,1
188.00,232.14,1
220.00,232.77,1
580.00,235.52,1
193.00,242.87,1
237.00,250.37,1
226.00,255.18,1
179.00,257.56,1
284.00,258.02,1
273.00,258.27,1
326.00,259.47,1
126.00,260.49,1
188.00,258.96,1
131.00,254.45,1
245.00,248.33,1
97.00,241.38,1
174.00,233.18,1
261.00,225.06,1
239.00,219.19,1
178.00,215.07,1
309.00,212.30,1
234.00,211.69,1
384.00,213.84,1
302.00,219.21,1
487.00,228.29,1
133.00,239.30,1
273.00,248.24,1
282.00,254.75,1
258.00,260.32,1
396.00,265.81,1
479.00,273.89,1
353.00,285.12,1
151.00,295.27,1
196.00,300.21,1
365.00,301.56,1
225.00,302.12,1
473.00,303.22,1
176.00,305.16,1
144.00,304.55,1
155.00,299.08,1
155.00,290.03,1
169.00,278.79,1
112.00,266.00,1
175.00,252.14,1
113.00,238.02,1
253.00,224.83,1
294.00,214.94,1
208.00,209.02,1
151.00,204.73,1
93.00,199.67,1
300.00,194.48,1
255.00,191.96,1
156.00,191.72,1
241.00,191.88,1
215.00,192.72,1
178.00,194.01,1
350.00,196.20,1
227.00,200.51,1
181.00,205.32,1
156.00,208.32,1
201.00,209.44,1
255.00,210.08,1
207.00,211.22,1
304.00,213.15,1
211.00,216.06,1
283.00,219.48,1
138.00,222.38,1
127.00,222.85,1
210.00,220.80,1
246.00,218.50,1
224.00,217.19,1
149.00,215.98,1
175.00,213.68,1
207.00,210.67,1
164.00,207.65,1
184.00,204.41,1
151.00,200.83,1
340.00,198.31,1
426.00,200.26,1
248.00,207.02,1
186.00,214.47,1
277.00,220.45,1
352.00,226.75,1
333.00,234.92,1
97.00,242.57,1
255.00,246.81,1
286.00,249.25,1
264.00,251.88,1
531.00,256.72,1
158.00,264.19,1
150.00,269.38,1
119.00,269.10,1
178.00,264.64,1
105.00,257.29,1
71.00,246.94,1
163.00,234.29,1
207.00,221.92,1
155.00,211.23,1
170.00,201.80,1
186.00,193.60,1
176.00,186.90,1
192.00,181.67,1
280.00,178.64,1
381.00,179.85,1
215.00,185.23,1
436.00,193.52,1
357.00,205.42,1
241.00,219.19,1
442.00,233.01,1
434.00,248.74,1
197.00,264.94,1
204.00,277.02,1
399.00,285.34,1
238.00,292.48,1
446.00,299.14,1
294.00,306.10,1
196.00,311.43,1
115.00,311.80,1
162.00,306.62,1
98.00,296.87,1
91.00,283.33,1
169.00,267.35,1
138.00,251.03,1
113.00,234.93,1
168.00,219.33,1
420.00,207.42,1
152.00,201.14,1
146.00,196.91,1
309.00,193.41,1
176.00,192.14,1
195.00,191.91,1
258.00,192.20,1
104.00,192.80,1
172.00,192.15,1
176.00,190.45,1
365.00,190.21,1
163.00,192.59,1
127.00,194.79,1
257.00,195.59,1
178.00,196.50,1
358.00,198.72,1
595.00,206.19,1
213.00,219.56,1
181.00,232.40,1
128.00,240.29,1
154.00,243.16,1
299.00,243.38,1
110.00,242.63,1
127.00,239.32,1
197.00,233.53,1
209.00,227.44,1
230.00,222.28,1
154.00,217.81,1
150.00,212.89,1
185.00,207.39,1
307.00,203.19,1
169.00,201.29,1
310.00,201.12,1
394.00,204.09,1
303.00,211.19,1
339.00,220.72,1
172.00,230.18,1
365.00,238.43,1
167.00,245.65,1
242.00,250.78,1
203.00,253.44,1
150.00,253.67,1
234.00,251.53,1
290.00,249.09,1
161.00,247.06,1
172.00,243.81,1
162.00,238.78,1
134.00,232.26,1
177.00,224.61,1
267.00,217.61,1
98.00,211.79,1
321.00,206.84,1
183.00,203.87,1
197.00,202.18,1
278.00,201.29,1
218.00,201.97,1
279.00,204.03,1
186.00,206.79,1
116.00,208.39,1
270.00,208.37,1
314.00,209.49,1
310.00,213.45,1
250.00,219.19,1
134.00,224.11,1
282.00,227.05,1
278.00,229.83,1
138.00,232.42,1
354.00,234.20,1
203.00,236.48,1
157.00,237.97,1
127.00,236.51,1
246.00,233.02,1
161.00,229.10,1
93.00,224.00,1
129.00,216.65,1
104.00,207.64,1
138.00,197.84,1
83.00,187.68,1
127.00,177.30,1
153.00,167.59,1
245.00,160.28,1
190.00,156.31,1
246.00,155.32,1
347.00,157.95,1
169.00,163.91,1
225.00,170.54,1
183.00,176.57,1
127.00,181.24,1
276.00,184.69,1
224.00,188.68,1
400.00,194.78,1
206.00,203.13,1
236.00,211.43,1
502.00,220.53,1
302.00,232.90,1
534.00,248.14,1
270.00,265.12,1
426.00,281.68,1
282.00,296.55,1
193.00,307.81,1
162.00,313.02,1
120.00,311.86,1
186.00,305.48,1
149.00,295.82,1
212.00,284.42,1
168.00,272.44,1
178.00,260.32,1
193.00,248.42,1
124.00,236.84,1
207.00,225.55,1
356.00,216.90,1
162.00,212.16,1
110.00,208.07,1
164.00,202.59,1
130.00,196.39,1
181.00,190.19,1
349.00,186.15,1
228.00,186.13,1
398.00,189.93,1
232.00,196.95,1
283.00,205.25,1
172.00,212.78,1
189.00,218.21,1
299.00,222.14,1
266.00,226.49,1
188.00,230.75,1
141.00,232.81,1
320.00,233.19,1
194.00,233.83,1
178.00,233.91,1
268.00,232.98,1
148.00,231.69,1
198.00,229.34,1
143.00,225.62,1
160.00,220.65,1
347.00,216.27,1
299.00,215.35,1
333.00,218.12,1
256.00,223.14,1
353.00,229.50,1
169.00,236.11,1
216.00,240.81,1
145.00,242.55,1
153.00,241.27,1
285.00,238.40,1
364.00,237.35,1
203.00,238.76,1
490.00,242.37,1
318.00,249.58,1
214.00,257.88,1
238.00,263.79,1
160.00,266.53,1
119.00,265.35,1
201.00,260.57,1
100.00,253.45,1
176.00,244.41,1
106.00,234.06,1
150.00,222.88,1
217.00,212.15,1
166.00,203.19,1
258.00,196.35,1
289.00,192.69,1
138.00,191.60,1
102.00,189.94,1
167.00,186.61,1
409.00,184.91,1
182.00,187.22,1
546.00,193.70,1
181.00,204.26,1
250.00,215.14,1
297.00,224.38,1
188.00,232.51,1
261.00,238.72,1
191.00,242.98,1
208.00,245.22,1
251.00,245.89,1
229.00,246.02,1
219.00,245.67,1
137.00,243.89,1
127.00,239.58,1
260.00,233.74,1
233.00,228.86,1
126.00,224.62,1
133.00,219.07,1
145.00,212.02,1
231.00,205.05,1
171.00,199.40,1
138.00,194.40,1
198.00,189.49,1
197.00,185.54,1
299.00,183.81,1
121.00,184.00,1
173.00,183.97,1
162.00,183.04,1
249.00,182.45,1
424.00,184.96,1
294.00,192.32,1
177.00,201.43,1
265.00,209.23,1
387.00,217.30,1
148.00,226.06,1
235.00,232.82,1
322.00,238.02,1
364.00,244.40,1
248.00,251.91,1
81.00,257.05,1
168.00,257.23,1
154.00,253.59,1
106.00,247.24,1
129.00,238.31,1
140.00,227.81,1
120.00,216.62,1
154.00,205.38,1
254.00,195.68,1
334.00,190.10,1
175.00,188.62,1
114.00,187.85,1
309.00,186.94,1
195.00,187.73,1
193.00,189.50,1
247.00,191.43,1
390.00,195.51,1
362.00,203.65,1
237.00,214.27,1
127.00,223.21,1
238.00,228.64,1
198.00,231.84,1
342.00,234.67,1
278.00,238.67,1
325.00,243.95,1
167.00,248.96,1
156.00,251.25,1
177.00,250.07,1
134.00,246.19,1
137.00,239.89,1
295.00,232.94,1
228.00,227.86,1
152.00,223.94,1
244.00,219.96,1
232.00,216.88,1
252.00,215.31,1
564.00,217.77,1
282.00,226.24,1
272.00,236.77,1
180.00,245.25,1
210.00,250.53,1
398.00,254.51,1
128.00,258.50,1
298.00,260.84,1
425.00,263.49,1
130.00,267.36,1
189.00,268.65,1
346.00,267.82,1
328.00,268.33,1
403.00,271.50,1
159.00,275.62,1
269.00,277.81,1
187.00,277.58,1
171.00,274.95,1
179.00,269.70,1
117.00,262.12,1
223.00,252.95,1
289.00,244.65,1
133.00,237.99,1
127.00,230.68,1
254.00,222.78,1
233.00,216.60,1
320.00,213.35,1
211.00,212.80,1
341.00,214.34,1
145.00,217.00,1
358.00,220.02,1
520.00,226.47,1
150.00,236.70,1
539.00,247.87,1
146.00,259.52,1
135.00,267.76,1
191.00,270.14,1
262.00,269.46,1
329.00,268.66,1
341.00,269.60,1
186.00,271.29,1
380.00,272.63,1
146.00,273.67,1
222.00,272.79,1
202.00,269.65,1
79.00,264.16,1
210.00,255.96,1
198.00,247.02,1
183.00,238.57,1
159.00,230.23,1
171.00,221.83,1
127.00,213.29,1
121.00,204.26,1
278.00,195.98,1
269.00,191.07,1
235.00,189.71,1
292.00,190.94,1
365.00,195.33,1
432.00,204.25,1
131.00,215.53,1
177.00,224.16,1
272.00,229.53,1
335.00,234.76,1
305.00,241.28,1
395.00,249.38,1
549.00,260.91,1
133.00,274.48,1
160.00,283.75,1
289.00,287.50,1
121.00,287.93,1
138.00,284.20,1
160.00,276.56,1
127.00,266.39,1
136.00,254.34,1
308.00,242.60,1
136.00,233.01,1
115.00,223.75,1
171.00,213.74,1
361.00,205.84,1
277.00,202.75,1
402.00,204.59,1
201.00,209.84,1
157.00,214.84,1
124.00,216.84,1
217.00,216.32,1
155.00,214.64,1
216.00,212.40,1
280.00,210.85,1
149.00,210.36,1
181.00,209.30,1
153.00,207.05,1
242.00,204.51,1
286.00,203.44,1
199.00,204.30,1
187.00,205.40,1
133.00,205.27,1
227.00,203.99,1
117.00,202.09,1
127.00,198.81,1
311.00,195.38,1
173.00,193.96,1
124.00,192.93,1
214.00,191.00,1
104.00,188.64,1
138.00,185.22,1
183.00,181.15,1
242.00,178.24,1
153.00,176.92,1
122.00,175.60,1
446.00,175.76,1
219.00,180.31,1
156.00,186.44,1
225.00,191.17,1
129.00,194.53,1
173.00,196.05,1
154.00,195.92,1
285.00,195.68,1
242.00,197.00,1
288.00,200.26,1
314.00,205.50,1
194.00,211.87,1
105.00,216.37,1
123.00,216.99,1
232.00,215.13,1
78.00,212.07,1
73.00,206.53,1
100.00,198.18,1
108.00,188.37,1
90.00,178.04,1
78.00,167.31,1
126.00,156.67,1
120.00,147.12,1
85.00,138.72,1
253.00,132.27,1
131.00,128.97,1
72.00,127.06,1
127.00,124.72,1
124.00,122.53,1
116.00,120.88,1
138.00,119.71,1
84.00,118.80,1
154.00,117.98,1
100.00,117.53,1
118.00,117.20,1
99.00,116.67,1
91.00,115.77,1
114.00,114.52,1
61.00,112.92,1
208.00,111.64,1
207.00,112.65,1
82.00,115.54,1
72.00,117.57,1
50.00,117.51,1
112.00,115.92,1
72.00,113.73,1
221.00,112.25,1
125.00,112.72,1
108.00,114.15,1
158.00,115.58,1
219.00,118.19,1
83.00,121.88,1
216.00,125.62,1
74.00,129.18,1
51.00,131.06,1
210.00,131.35,1
98.00,131.92,1
97.00,132.16,1
163.00,131.73,1
208.00,132.27,1
319.00,135.76,1
109.00,141.79,1
68.00,146.69,1
312.00,150.15,1
72.00,154.14,1
383.00,159.02,1
164.00,165.78,1
129.00,172.37,1
177.00,176.64,1
116.00,179.00,1
116.00,179.22,1
67.00,176.88,1
68.00,171.87,1
166.00,165.41,1
166.00,159.70,1
74.00,154.82,1
300.00,151.07,1
46.00,149.19,1
336.00,148.84,1
76.00,150.23,1
106.00,151.24,1
127.00,150.42,1
155.00,149.08,1
38.00,147.05,1
81.00,143.24,1
203.00,138.93,1
169.00,136.51,1
305.00,137.17,1
163.00,140.93,1
67.00,144.91,1
147.00,146.81,1
288.00,148.76,1
206.00,153.03,1
48.00,157.40,1
136.00,159.12,1
222.00,159.64,1
227.00,161.42,1
93.00,163.80,1
56.00,164.04,1
191.00,162.07,1
155.00,160.11,1
115.00,158.42,1
110.00,155.98,1
108.00,152.62,1
139.00,148.86,1
74.00,144.88,1
110.00,140.33,1
105.00,135.53,1
84.00,130.74,1
123.00,126.05,1
290.00,123.44,1
172.00,124.65,1
82.00,127.37,1
187.00,129.55,1
83.00,131.38,1
184.00,132.87,1
62.00,133.84,1
192.00,134.28,1
222.00,135.70,1
220.00,139.38,1
41.00,143.38,1
283.00,146.52,1
119.00,150.06,1
131.00,153.19,1
92.00,154.40,1
53.00,153.24,1
43.00,149.24,1
111.00,143.32,1
103.00,137.12,1
238.00,132.47,1
50.00,129.77,1
92.00,126.97,1
132.00,123.68,1
224.00,121.90,1
98.00,122.13,1
142.00,122.91,1
169.00,124.01,1
146.00,125.92,1
214.00,128.78,1
48.00,131.85,1
69.00,132.95,1
126.00,131.97,1
115.00,130.45,1
139.00,129.07,1
169.00,128.41,1
169.00,129.00,1
176.00,130.84,1
296.00,134.68,1
89.00,140.27,1
121.00,144.80,1
131.00,147.25,1
70.00,147.97,1
155.00,147.12,1
104.00,145.61,1
127.00,143.68,1
757.00,146.72,1
85.00,158.51,1
49.00,170.31,1
108.00,176.03,1
207.00,178.43,1
123.00,179.68,1
300.00,180.91,1
129.00,182.91,1
120.00,183.98,1
149.00,183.01,1
70.00,180.24,1
146.00,175.73,1
130.00,170.56,1
79.00,164.98,1
257.00,159.79,1
58.00,155.95,1
157.00,152.25,1
164.00,148.84,1
55.00,145.78,1
127.00,141.95,1
119.00,137.88,1
99.00,134.06,1
109.00,130.25,1
59.00,126.13,1
86.00,121.41,1
130.00,116.80,1
312.00,114.90,1
209.00,117.59,1
347.00,124.66,1
157.00,134.72,1
144.00,144.56,1
127.00,151.97,1
97.00,156.69,1
247.00,159.79,1
165.00,163.12,1
59.00,165.51,1
141.00,165.35,1
200.00,164.22,1
41.00,162.74,1
275.00,160.83,1
106.00,159.83,1
175.00,159.25,1
91.00,158.08,1
144.00,156.09,1
99.00,153.37,1
250.00,151.13,1
70.00,149.95,1
42.00,147.67,1
97.00,143.14,1
160.00,138.23,1
94.00,134.16,1
260.00,131.66,1
67.00,131.04,1
207.00,131.21,1
130.00,132.06,1
127.00,133.25,1
106.00,133.80,1
48.00,132.99,1
241.00,131.64,1
262.00,132.84,1
221.00,137.53,1
154.00,143.65,1
124.00,148.94,1
53.00,151.80,1
143.00,152.03,1
62.00,150.47,1
78.00,147.15,1
149.00,142.79,1
178.00,139.34,1
49.00,136.69,1
94.00,133.21,1
39.00,128.45,1
219.00,123.80,1
207.00,121.84,1
162.00,122.91,1
232.00,125.98,1
70.00,129.92,1
56.00,132.15,1
89.00,131.67,1
415.00,132.32,1
214.00,137.83,1
140.00,145.65,1
276.00,153.15,1
77.00,160.13,1
178.00,165.15,1
125.00,168.12,1
56.00,168.84,1
182.00,167.22,1
101.00,164.77,1
80.00,161.28,1
74.00,156.03,1
230.00,150.66,1
69.00,146.59,1
110.00,142.60,1
145.00,138.44,1
187.00,135.55,1
45.00,133.54,1
67.00,130.44,1
91.00,125.99,1
41.00,120.84,1
84.00,115.04,1
63.00,109.08,1
84.00,103.37,1
57.00,97.98,1
76.00,92.92,1
281.00,90.05,1
58.00,90.68,1
60.00,91.94,1
42.00,91.67,1
40.00,89.96,1
108.00,87.58,1
126.00,86.02,1
210.00,86.70,1
88.00,89.61,1
82.00,92.73,1
211.00,95.86,1
113.00,100.18,1
167.00,105.15,1
310.00,111.72,1
257.00,121.65,1
120.00,133.01,1
111.00,142.26,1
214.00,149.19,1
121.00,154.98,1
200.00,159.67,1
94.00,163.04,1
61.00,163.89,1
77.00,161.55,1
89.00,156.93,1
78.00,150.98,1
66.00,144.03,1
163.00,137.08,1
63.00,131.02,1
195.00,126.09,1
178.00,123.39,1
63.00,122.34,1
85.00,120.70,1
65.00,117.92,1
91.00,114.42,1
165.00,111.39,1
102.00,109.74,1
158.00,109.21,1
196.00,110.28,1
113.00,112.94,1
154.00,116.00,1
198.00,119.61,1
155.00,124.24,1
108.00,128.75,1
87.00,131.70,1
157.00,133.21,1
216.00,135.05,1
203.00,138.53,1
94.00,142.52,1
211.00,145.82,1
165.00,149.14,1
155.00,152.48,1
63.00,154.42,1
261.00,155.26,1
54.00,156.05,1
147.00,155.74,1
94.00,154.00,1
79.00,151.01,1
83.00,146.49,1
134.00,141.36,1
89.00,136.42,1
104.00,131.59,1
318.00,128.66,1
115.00,129.26,1
383.00,133.17,1
120.00,140.03,1
201.00,147.41,1
119.00,153.44,1
211.00,158.32,1
54.00,161.71,1
116.00,162.52,1
250.00,162.18,1
240.00,163.65,1
91.00,166.14,1
298.00,168.50,1
45.00,170.77,1
438.00,173.68,1
247.00,179.85,1
167.00,187.68,1
97.00,193.03,1
102.00,194.49,1
52.00,192.08,1
227.00,187.47,1
243.00,183.96,1
203.00,182.80,1
98.00,182.05,1
171.00,180.15,1
96.00,177.18,1
112.00,172.98,1
44.00,167.07,1
130.00,159.78,1
256.00,153.58,1
58.00,149.58,1
147.00,145.88,1
162.00,142.50,1
38.00,139.42,1
94.00,135.21,1
106.00,130.27,1
60.00,125.24,1
68.00,119.69,1
223.00,114.97,1
137.00,112.98,1
70.00,112.41,1
130.00,111.63,1
120.00,111.07,1
147.00,111.24,1
40.00,111.45,1
232.00,111.72,1
107.00,113.29,1
271.00,116.69,1
51.00,121.22,1
190.00,125.30,1
110.00,128.73,1
113.00,131.40,1
48.00,132.26,1
179.00,131.74,1
200.00,132.00,1
185.00,134.17,1
220.00,137.94,1
138.00,142.57,1
133.00,146.57,1
126.00,149.12,1
44.00,149.67,1
66.00,147.45,1
174.00,143.76,1
110.00,140.53,1
272.00,138.94,1
253.00,140.69,1
136.00,144.93,1
48.00,148.10,1
63.00,148.00,1
185.00,145.99,1
130.00,144.29,1
115.00,142.85,1
89.00,140.74,1
164.00,138.26,1
94.00,136.03,1
116.00,133.70,1
110.00,131.11,1
40.00,127.91,1
81.00,123.47,1
312.00,120.26,1
103.00,120.58,1
127.00,122.18,1
137.00,123.44,1
218.00,125.45,1
138.00,128.70,1
107.00,131.89,1
54.00,133.28,1
80.00,132.38,1
65.00,129.61,1
103.00,125.79,1
79.00,121.61,1
128.00,117.63,1
67.00,114.03,1
224.00,111.56,1
83.00,110.94,1
87.00,110.75,1
106.00,109.94,1
107.00,109.04,1
135.00,108.52,1
149.00,108.88,1
79.00,109.78,1
62.00,109.88,1
62.00,108.50,1
98.00,106.20,1
102.00,103.91,1
197.00,102.87,1
104.00,103.65,1
114.00,105.11,1
397.00,108.79,1
104.00,116.37,1
92.00,124.05,1
63.00,128.67,1
108.00,130.61,1
78.00,130.71,1
210.00,130.38,1
207.00,131.66,1
83.00,134.13,1
114.00,135.59,1
92.00,135.54,1
77.00,134.12,1
66.00,131.15,1
51.00,126.68,1
120.00,121.47,1
76.00,116.52,1
115.00,112.11,1
107.00,108.46,1
72.00,105.42,1
93.00,102.46,1
300.00,101.46,1
117.00,104.08,1
202.00,108.73,1
49.00,113.39,1
72.00,116.23,1
174.00,117.58,1
179.00,119.67,1
151.00,122.97,1
168.00,126.79,1
166.00,130.90,1
91.00,134.58,1
217.00,137.60,1
78.00,140.32,1
105.00,141.69,1
89.00,141.15,1
167.00,139.79,1
67.00,138.17,1
242.00,136.86,1
40.00,136.23,1
161.00,135.23,1
57.00,133.46,1
50.00,130.38,1
51.00,125.41,1
68.00,119.29,1
59.00,112.72,1
176.00,106.99,1
46.00,102.88,1
126.00,99.62,1
81.00,96.98,1
91.00,94.90,1
77.00,93.00,1
136.00,91.63,1
224.00,92.30,1
220.00,96.41,1
86.00,102.60,1
79.00,107.81,1
154.00,111.48,1
92.00,114.54,1
119.00,116.85,1
43.00,117.82,1
201.00,118.02,1
225.00,119.81,1
164.00,123.94,1
159.00,128.88,1
208.00,134.08,1
62.00,138.87,1
174.00,142.08,1
48.00,143.61,1
117.00,143.20,1
172.00,141.90,1
127.00,141.08,1
91.00,140.06,1
102.00,138.05,1
86.00,135.10,1
85.00,131.36,1
55.00,126.72,1
82.00,121.29,1
181.00,116.47,1
82.00,113.31,1
100.00,110.84,1
301.00,110.13,1
195.00,113.39,1
61.00,118.34,1
52.00,121.22,1
46.00,121.14,1
162.00,119.59,1
102.00,118.35,1
147.00,117.75,1
94.00,117.44,1
109.00,117.00,1
244.00,117.39,1
284.00,121.15,1
40.00,127.05,1
52.00,130.76,1
100.00,131.24,1
74.00,129.94,1
100.00,127.53,1
79.00,124.37,1
72.00,120.59,1
92.00,116.33,1
46.00,111.72,1
143.00,107.23,1
106.00,103.89,1
83.00,101.54,1
68.00,99.20,1
90.00,96.70,1
253.00,95.75,1
201.00,98.49,1
91.00,103.49,1
91.00,107.79,1
323.00,112.43,1
218.00,120.16,1
127.00,129.39,1
61.00,136.53,1
109.00,140.41,1
136.00,142.14,1
142.00,143.09,1
101.00,143.38,1
215.00,143.48,1
353.00,146.13,1
101.00,151.80,1
98.00,156.50,1
232.00,159.27,1
115.00,161.71,1
184.00,163.55,1
91.00,164.30,1
76.00,163.07,1
43.00,159.08,1
272.00,154.37,1
86.00,151.26,1
162.00,148.90,1
47.00,145.97,1
99.00,141.84,1
211.00,137.78,1
212.00,136.21,1
81.00,136.42,1
114.00,136.10,1
170.00,135.31,1
54.00,134.43,1
105.00,132.47,1
137.00,129.92,1
209.00,128.55,1
133.00,128.96,1
64.00,129.46,1
170.00,129.12,1
56.00,128.40,1
102.00,126.77,1
76.00,124.11,1
91.00,120.83,1
91.00,117.22,1
127.00,113.90,1
225.00,112.33,1
77.00,112.85,1
240.00,114.63,1
50.00,117.21,1
42.00,118.45,1
160.00,117.90,1
48.00,116.97,1
72.00,115.09,1
76.00,112.07,1
54.00,108.36,1
145.00,104.67,1
60.00,101.75,1
94.00,99.13,1
128.00,96.97,1
133.00,96.11,1
56.00,96.01,1
50.00,95.19,1
108.00,93.60,1
279.00,93.81,1
90.00,97.12,1
244.00,102.25,1
154.00,108.83,1
179.00,116.27,1
258.00,124.46,1
112.00,133.27,1
216.00,141.33,1
127.00,148.33,1
82.00,153.28,1
52.00,154.80,1
46.00,152.75,1
189.00,148.87,1
132.00,145.59,1
122.00,143.04,1
257.00,141.61,1
95.00,141.90,1
207.00,142.84,1
192.00,144.64,1
71.00,146.69,1
92.00,146.92,1
64.00,144.84,1
329.00,143.01,1
341.00,145.67,1
136.00,152.45,1
177.00,159.09,1
156.00,164.22,1
136.00,167.84,1
152.00,169.83,1
216.00,171.15,1
146.00,172.53,1
69.00,172.64,1
246.00,171.38,1
78.00,170.03,1
124.00,167.73,1
164.00,164.48,1
132.00,161.40,1
188.00,158.81,1
224.00,157.65,1
46.00,157.20,1
183.00,155.79,1
184.00,154.48,1
135.00,154.06,1
263.00,154.58,1
63.00,155.86,1
87.00,155.58,1
47.00,152.55,1
146.00,147.89,1
128.00,143.31,1
142.00,139.59,1
158.00,136.86,1
143.00,135.25,1
137.00,134.35,1
71.00,133.25,1
83.00,130.99,1
157.00,128.19,1
94.00,125.88,1
223.00,124.66,1
49.00,124.49,1
186.00,124.43,1
108.00,124.65,1
105.00,124.88,1
98.00,124.37,1
115.00,123.30,1
166.00,122.49,1
240.00,123.51,1
131.00,126.64,1
44.00,129.35,1
97.00,129.74,1
50.00,128.12,1
111.00,125.17,1
67.00,121.59,1
368.00,119.91,1
73.00,121.96,1
116.00,124.70,1
77.00,125.82,1
70.00,125.32,1
189.00,124.15,1
99.00,123.68,1
192.00,124.02,1
110.00,125.09,1
205.00,126.88,1
95.00,129.12,1
127.00,130.87,1
80.00,131.42,1
61.00,130.36,1
102.00,127.73,1
68.00,124.25,1
216.00,121.25,1
156.00,120.40,1
217.00,121.93,1
173.00,125.38,1
41.00,128.85,1
105.00,130.19,1
56.00,129.44,1
142.00,127.55,1
203.00,126.38,1
232.00,127.78,1
151.00,131.40,1
182.00,135.74,1
133.00,139.91,1
228.00,144.04,1
70.00,147.87,1
139.00,150.07,1
89.00,150.39,1
162.00,149.61,1
274.00,149.75,1
201.00,152.43,1
291.00,157.44,1
281.00,164.86,1
48.00,172.50,1
196.00,177.34,1
78.00,179.42,1
209.00,179.70,1
213.00,179.83,1
118.00,180.21,1
246.00,180.29,1
324.00,182.10,1
63.00,185.38,1
51.00,185.88,1
112.00,182.38,1
54.00,176.42,1
44.00,168.21,1
209.00,159.32,1
67.00,151.66,1
228.00,145.56,1
75.00,141.05,1
102.00,136.93,1
51.00,131.97,1
93.00,126.29,1
271.00,122.01,1
83.00,120.70,1
69.00,119.90,1
48.00,117.55,1
82.00,113.88,1
221.00,110.90,1
209.00,111.05,1
83.00,113.45,1
127.00,115.67,1
41.00,116.66,1
118.00,116.25,1
88.00,115.11,1
180.00,114.35,1
389.00,116.92,1
82.00,123.70,1
83.00,130.02,1
147.00,133.77,1
131.00,136.39,1
49.00,137.65,1
79.00,136.58,1
238.00,134.92,1
374.00,136.90,1
365.00,145.05,1
117.00,156.59,1
82.00,165.81,1
89.00,170.39,1
50.00,170.77,1
170.00,168.35,1
210.00,165.91,1
57.00,163.92,1
177.00,161.12,1
248.00,159.11,1
253.00,160.01,1
211.00,163.36,1
160.00,167.41,1
141.00,170.51,1
39.00,171.18,1
84.00,168.53,1
46.00,163.01,1
54.00,155.30,1
78.00,146.23,1
156.00,137.52,1
96.00,130.38,1
51.00,123.94,1
56.00,117.04,1
168.00,110.66,1
141.00,106.58,1
71.00,104.26,1
147.00,102.61,1
54.00,101.43,1
107.00,100.17,1
105.00,98.98,1
95.00,98.21,1
72.00,97.42,1
78.00,96.20,1
114.00,94.93,1
84.00,94.04,1
246.00,94.64,1
127.00,97.81,1
52.00,101.54,1
38.00,103.25,1
128.00,103.23,1
131.00,103.31,1
80.00,103.85,1
59.00,103.71,1
67.00,102.36,1
218.00,101.36,1
115.00,102.36,1
158.00,104.77,1
57.00,107.17,1
95.00,108.48,1
41.00,108.26,1
42.00,106.31,1
121.00,103.35,1
169.00,101.43,1
159.00,101.75,1
138.00,103.80,1
92.00,106.28,1
118.00,108.30,1
177.00,110.42,1
80.00,112.96,1
103.00,114.79,1
210.00,116.48,1
367.00,121.31,1
103.00,129.64,1
94.00,137.20,1
282.00,143.13,1
196.00,149.99,1
76.00,156.43,1
227.00,160.91,1
201.00,165.04,1
266.00,170.13,1
147.00,175.64,1
55.00,179.08,1
61.00,178.39,1
110.00,174.32,1
302.00,170.28,1
166.00,168.86,1
46.00,167.82,1
45.00,163.96,1
80.00,157.39,1
86.00,149.61,1
142.00,142.01,1
207.00,136.32,1
54.00,132.54,1
223.00,129.73,1
258.00,129.61,1
121.00,132.38,1
127.00,135.29,1
69.00,136.69,1
63.00,135.94,1
148.00,133.71,1
66.00,131.11,1
291.00,129.52,1
222.00,131.20,1
154.00,135.51,1
153.00,139.96,1
135.00,143.64,1
75.00,145.79,1
51.00,145.35,1
76.00,142.31,1
62.00,137.47,1
361.00,133.90,1
114.00,134.19,1
96.00,135.65,1
83.00,135.48,1
88.00,133.75,1
263.00,132.33,1
261.00,134.16,1
109.00,138.52,1
46.00,141.59,1
172.00,142.30,1
159.00,142.67,1
161.00,143.62,1
54.00,144.01,1
87.00,142.47,1
62.00,139.00,1
149.00,134.73,1
122.00,131.02,1
239.00,129.09,1
195.00,129.93,1
67.00,132.03,1
68.00,132.54,1
117.00,131.18,1
142.00,129.48,1
84.00,127.90,1
58.00,125.52,1
118.00,122.17,1
69.00,118.57,1
135.00,115.15,1
164.00,112.92,1
224.00,113.18,1
80.00,115.36,1
47.00,116.76,1
102.00,116.23,1
123.00,115.08,1
97.00,114.08,1
245.00,114.20,1
98.00,116.19,1
235.00,119.47,1
240.00,124.70,1
55.00,130.92,1
72.00,134.79,1
58.00,135.39,1
41.00,133.28,1
107.00,129.32,1
434.00,127.73,1
45.00,130.75,1
164.00,134.41,1
305.00,138.37,1
117.00,144.17,1
100.00,149.10,1
112.00,151.43,1
169.00,152.27,1
315.00,154.20,1
104.00,158.04,1
246.00,162.09,1
118.00,165.71,1
111.00,167.88,1
143.00,167.96,1
229.00,167.64,1
174.00,168.26,1
231.00,169.85,1
127.00,171.75,1
120.00,172.51,1
239.00,172.40,1
103.00,172.40,1
122.00,171.39,1
60.00,168.29,1
103.00,163.20,1
36.00,156.44,1
294.00,150.01,1
246.00,147.38,1
123.00,148.03,1
122.00,148.71,1
61.00,147.82,1
53.00,144.69,1
123.00,139.93,1
149.00,135.39,1
194.00,132.55,1
205.00,132.14,1
203.00,134.15,1
110.00,137.22,1
193.00,140.11,1
45.00,142.15,1
175.00,142.77,1
167.00,143.17,1
357.00,145.90,1
226.00,152.38,1
143.00,160.14,1
58.00,165.45,1
184.00,167.65,1
222.00,169.13,1
80.00,170.51,1
63.00,169.57,1
196.00,166.56,1
211.00,164.27,1
106.00,163.10,1
214.00,162.09,1
111.00,161.29,1
212.00,160.70,1
80.00,160.03,1
115.00,158.25,1
140.00,155.38,1
81.00,151.99,1
39.00,147.20,1
105.00,140.86,1
148.00,134.65,1
68.00,129.36,1
66.00,123.95,1
253.00,119.48,1
52.00,117.30,1
299.00,117.18,1
65.00,119.16,1
58.00,120.74,1
98.00,120.27,1
130.00,119.11,1
156.00,118.54,1
142.00,119.02,1
107.00,119.97,1
95.00,120.45,1
90.00,120.03,1
218.00,119.81,1
146.00,121.27,1
98.00,123.40,1
81.00,124.43,1
113.00,124.17,1
232.00,124.32,1
225.00,126.94,1
138.00,131.54,1
85.00,135.54,1
225.00,138.49,1
56.00,141.04,1
255.00,143.21,1
362.00,147.79,1
78.00,155.17,1
114.00,160.87,1
125.00,163.46,1
66.00,163.54,1
160.00,161.63,1
186.00,159.56,1
182.00,158.63,1
106.00,158.09,1
68.00,156.27,1
212.00,153.44,1
77.00,150.93,1
176.00,148.50,1
74.00,145.90,1
53.00,142.21,1
385.00,139.37,1
155.00,140.77,1
62.00,143.45,1
214.00,144.82,1
336.00,147.90,1
115.00,153.66,1
80.00,158.29,1
208.00,160.58,1
49.00,161.50,1
204.00,161.08,1
106.00,160.09,1
249.00,159.54,1
108.00,159.73,1
232.00,160.36,1
127.00,161.32,1
85.00,161.43,1
129.00,159.69,1
156.00,157.20,1
207.00,155.47,1
91.00,154.48,1
106.00,152.70,1
69.00,149.37,1
112.00,144.83,1
65.00,139.53,1
241.00,134.88,1
78.00,132.06,1
44.00,129.19,1
113.00,125.02,1
46.00,120.33,1
127.00,115.52,1
195.00,112.15,1
127.00,111.20,1
260.00,112.72,1
167.00,116.88,1
111.00,122.01,1
55.00,125.54,1
124.00,126.90,1
140.00,127.40,1
76.00,127.53,1
107.00,126.71,1
614.00,129.38,1
63.00,138.82,1
123.00,148.53,1
108.00,154.42,1
77.00,157.19,1
74.00,156.86,1
86.00,154.00,1
95.00,149.51,1
300.00,145.92,1
69.00,144.68,1
384.00,145.79,1
139.00,149.89,1
238.00,155.48,1
113.00,160.60,1
72.00,163.60,1
60.00,163.11,1
69.00,159.48,1
221.00,154.91,1
244.00,152.56,1
78.00,152.24,1
305.00,152.81,1
45.00,154.25,1
79.00,154.15,1
116.00,151.57,1
64.00,147.70,1
189.00,143.46,1
190.00,140.72,1
453.00,142.47,1
157.00,149.41,1
70.00,156.67,1
71.00,160.01,1
53.00,159.46,1
46.00,155.60,1
122.00,149.67,1
200.00,144.27,1
142.00,140.89,1
205.00,139.36,1
121.00,139.16,1
46.00,138.48,1
56.00,135.58,1
91.00,130.95,1
85.00,125.77,1
183.00,121.35,1
92.00,118.47,1
309.00,117.96,1
81.00,120.27,1
122.00,122.95,1
53.00,124.05,1
106.00,123.51,1
141.00,122.38,1
72.00,121.27,1
301.00,121.27,1
84.00,123.54,1
201.00,126.72,1
180.00,130.48,1
248.00,135.71,1
151.00,142.05,1
146.00,147.93,1
153.00,152.43,1
283.00,156.88,1
216.00,162.84,1
212.00,169.66,1
274.00,176.80,1
215.00,184.46,1
318.00,192.64,1
241.00,201.51,1
336.00,210.98,1
118.00,219.72,1
334.00,226.59,1
155.00,232.10,1
202.00,235.59,1
380.00,238.22,1
363.00,243.29,1
279.00,250.62,1
154.00,256.78,1
156.00,259.10,1
84.00,256.77,1
80.00,249.83,1
95.00,239.07,1
199.00,226.82,1
195.00,215.70,1
82.00,205.66,1
65.00,194.73,1
65.00,182.26,1
65.00,168.89,1
113.00,155.65,1
158.00,144.16,1
458.00,138.01,1
178.00,139.25,1
148.00,143.55,1
134.00,147.10,1
324.00,151.06,1
316.00,158.17,1
185.00,167.80,1
223.00,177.11,1
240.00,185.52,1
203.00,193.28,1
182.00,199.62,1
130.00,203.58,1
218.00,205.30,1
300.00,206.98,1
90.00,208.92,1
159.00,208.76,1
296.00,207.53,1
240.00,207.94,1
89.00,208.54,1
92.00,206.28,1
160.00,201.32,1
78.00,194.90,1
53.00,186.61,1
111.00,176.56,1
311.00,167.94,1
296.00,164.33,1
216.00,165.37,1
100.00,167.53,1
136.00,168.18,1
239.00,168.16,1
122.00,168.68,1
324.00,170.17,1
220.00,173.87,1
380.00,180.41,1
322.00,190.14,1
208.00,201.49,1
309.00,212.10,1
181.00,221.48,1
234.00,228.75,1
186.00,233.60,1
206.00,236.28,1
138.00,236.55,1
113.00,233.84,1
126.00,228.07,1
181.00,220.61,1
72.00,212.27,1
167.00,203.00,1
65.00,193.10,1
98.00,182.47,1
48.00,170.92,1
87.00,158.80,1
230.00,148.08,1
243.00,141.58,1
229.00,139.79,1
144.00,140.83,1
125.00,142.27,1
148.00,143.15,1
450.00,146.32,1
326.00,155.28,1
299.00,168.52,1
254.00,182.79,1
325.00,196.95,1
228.00,210.55,1
139.00,221.51,1
352.00,229.61,1
98.00,235.96,1
320.00,240.13,1
200.00,243.11,1
62.00,243.79,1
141.00,240.00,1
83.00,232.70,1
152.00,223.23,1
86.00,212.54,1
150.00,201.30,1
174.00,190.72,1
93.00,181.27,1
52.00,171.47,1
176.00,161.42,1
275.00,154.06,1
227.00,151.30,1
159.00,151.56,1
286.00,153.60,1
233.00,158.07,1
163.00,163.79,1
155.00,168.62,1
153.00,171.88,1
188.00,174.04,1
159.00,175.61,1
182.00,176.69,1
213.00,177.74,1
242.00,179.70,1
258.00,183.16,1
173.00,187.44,1
230.00,191.38,1
225.00,195.15,1
56.00,197.63,1
154.00,197.01,1
68.00,193.60,1
42.00,187.32,1
442.00,181.26,1
290.00,180.71,1
127.00,183.85,1
88.00,185.37,1
82.00,183.56,1
235.00,180.12,1
356.00,179.05,1
266.00,182.39,1
167.00,187.66,1
281.00,192.75,1
155.00,197.55,1
125.00,200.58,1
167.00,200.95,1
138.00,199.51,1
332.00,198.22,1
121.00,198.34,1
144.00,197.80,1
139.00,195.34,1
121.00,191.49,1
483.00,189.37,1
177.00,192.05,1
182.00,196.17,1
87.00,197.99,1
121.00,196.75,1
167.00,193.40,1
65.00,188.75,1
49.00,181.79,1
60.00,172.36,1
148.00,162.12,1
184.00,153.45,1
88.00,146.77,1
127.00,140.87,1
300.00,137.03,1
211.00,137.37,1
148.00,140.29,1
259.00,144.21,1
120.00,148.93,1
182.00,153.23,1
234.00,157.36,1
149.00,161.91,1
172.00,165.83,1
169.00,168.80,1
419.00,173.15,1
163.00,180.49,1
248.00,188.31,1
191.00,195.05,1
126.00,199.95,1
187.00,202.26,1
238.00,203.42,1
132.00,204.15,1
186.00,203.63,1
247.00,202.71,1
161.00,202.27,1
73.00,200.54,1
200.00,196.77,1
53.00,191.71,1
154.00,185.32,1
130.00,178.40,1
161.00,172.00,1
203.00,166.86,1
230.00,164.02,1
245.00,163.95,1
387.00,167.67,1
272.00,175.63,1
179.00,185.06,1
219.00,193.12,1
262.00,200.13,1
324.00,207.65,1
310.00,216.60,1
170.00,225.44,1
155.00,231.35,1
331.00,234.88,1
185.00,238.07,1
182.00,239.92,1
323.00,240.59,1
263.00,242.16,1
147.00,243.58,1
81.00,241.89,1
169.00,236.50,1
331.00,230.79,1
159.00,226.99,1
180.00,223.46,1
105.00,218.53,1
133.00,211.87,1
134.00,203.94,1
158.00,195.79,1
398.00,190.13,1
322.00,190.13,1
412.00,195.82,1
185.00,204.69,1
180.00,212.61,1
295.00,218.53,1
393.00,225.44,1
285.00,234.52,1
417.00,245.07,1
252.00,256.30,1
516.00,268.25,1
409.00,282.50,1
523.00,299.37,1
610.00,319.42,1
568.00,343.26,1
254.00,366.58,1
426.00,384.59,1
576.00,399.46,1
367.00,413.64,1
154.00,422.81,1
174.00,422.88,1
170.00,414.32,1
321.00,401.00,1
192.00,385.91,1
185.00,369.00,1
146.00,349.80,1
311.00,330.13,1
210.00,312.34,1
240.00,296.52,1
267.00,282.61,1
294.00,271.52,1
157.00,262.48,1
279.00,254.26,1
264.00,247.70,1
244.00,243.23,1
282.00,240.34,1
155.00,238.16,1
346.00,236.39,1
212.00,235.97,1
460.00,238.04,1
245.00,243.16,1
304.00,249.38,1
301.00,255.39,1
298.00,261.48,1
275.00,267.14,1
261.00,271.78,1
127.00,273.94,1
229.00,272.67,1
285.00,269.88,1
172.00,266.86,1
153.00,262.17,1
176.00,255.32,1
152.00,247.11,1
107.00,237.52,1
238.00,227.36,1
292.00,219.35,1
182.00,214.33,1
355.00,211.77,1
180.00,211.70,1
175.00,212.00,1
250.00,211.67,1
455.00,213.76,1
338.00,220.74,1
222.00,229.92,1
220.00,237.58,1
320.00,243.66,1
201.00,248.99,1
253.00,252.87,1
122.00,254.30,1
130.00,252.12,1
376.00,248.41,1
201.00,246.33,1
324.00,245.71,1
85.00,244.84,1
187.00,241.68,1
84.00,235.71,1
161.00,227.64,1
171.00,218.74,1
124.00,209.93,1
129.00,200.81,1
370.00,193.46,1
153.00,189.94,1
275.00,188.86,1
432.00,191.22,1
160.00,197.43,1
312.00,204.42,1
302.00,211.97,1
307.00,220.82,1
343.00,230.69,1
343.00,241.61,1
333.00,253.19,1
199.00,263.61,1
342.00,271.67,1
262.00,278.29,1
180.00,282.74,1
244.00,283.92,1
493.00,285.02,1
627.00,291.87,1
306.00,304.41,1
307.00,316.67,1
309.00,325.64,1
324.00,332.02,1
231.00,335.69,1
209.00,335.59,1
200.00,331.44,1
170.00,323.75,1
468.00,315.52,1
221.00,309.83,1
328.00,305.49,1
295.00,301.78,1
239.00,298.55,1
283.00,294.94,1
401.00,292.43,1
445.00,293.52,1
203.00,296.99,1
186.00,298.38,1
243.00,296.32,1
456.00,294.28,1
385.00,295.72,1
175.00,298.63,1
217.00,298.82,1
285.00,296.46,1
172.00,292.80,1
406.00,288.90,1
501.00,288.67,1
321.00,293.28,1
405.00,299.94,1
187.00,305.97,1
173.00,308.30,1
222.00,306.14,1
184.00,300.95,1
285.00,294.28,1
156.00,287.00,1
202.00,278.54,1
200.00,269.17,1
272.00,260.37,1
314.00,253.83,1
357.00,250.87,1
330.00,251.55,1
193.00,253.77,1
297.00,255.44,1
484.00,258.77,1
193.00,264.83,1
226.00,269.73,1
341.00,272.68,1
470.00,277.32,1
236.00,284.20,1
313.00,290.41,1
359.00,295.62,1
497.00,302.45,1
277.00,311.13,1
327.00,318.82,1
287.00,324.20,1
271.00,327.25,1
241.00,327.61,1
237.00,325.18,1
197.00,320.11,1
194.00,312.48,1
147.00,302.35,1
174.00,290.12,1
235.00,277.25,1
197.00,265.26,1
255.00,254.69,1
162.00,245.41,1
290.00,237.43,1
305.00,232.19,1
426.00,231.51,1
265.00,235.07,1
196.00,239.55,1
484.00,244.45,1
268.00,251.95,1
432.00,261.31,1
438.00,272.79,1
275.00,285.59,1
378.00,297.16,1
378.00,307.78,1
390.00,318.27,1
503.00,329.45,1
455.00,342.34,1
553.00,357.08,1
390.00,372.59,1
550.00,387.62,1
275.00,400.81,1
216.00,408.44,1
382.00,409.73,1
133.00,406.34,1
198.00,397.31,1
149.00,382.93,1
196.00,365.03,1
259.00,345.95,1
153.00,327.17,1
276.00,309.02,1
458.00,294.65,1
358.00,286.78,1
335.00,283.76,1
208.00,282.32,1
334.00,280.86,1
546.00,282.23,1
364.00,288.71,1
329.00,297.37,1
383.00,305.73,1
300.00,313.51,1
471.00,321.07,1
555.00,331.07,1
539.00,345.23,1
531.00,362.50,1
407.00,380.22,1
820.00,399.01,1
458.00,420.76,1
693.00,443.50,1
552.00,465.93,1
306.00,484.94,1
320.00,495.53,1
278.00,497.31,1
328.00,492.16,1
427.00,483.16,1
321.00,472.75,1
487.00,462.07,1
355.00,452.32,1
420.00,443.31,1
481.00,435.66,1
264.00,429.05,1
374.00,421.25,1
395.00,413.02,1
543.00,407.22,1
646.00,407.00,1
425.00,412.04,1
529.00,418.99,1
371.00,425.75,1
434.00,430.91,1
485.00,434.83,1
471.00,438.93,1
333.00,442.07,1
366.00,442.23,1
217.00,438.37,1
542.00,432.03,1
652.00,429.10,1
215.00,429.74,1
268.00,427.12,1
253.00,419.30,1
261.00,408.03,1
199.00,394.03,1
149.00,377.04,1
161.00,357.06,1
271.00,336.18,1
228.00,316.89,1
188.00,299.32,1
285.00,283.41,1
257.00,270.34,1
235.00,260.01,1
308.00,252.13,1
199.00,246.47,1
220.00,241.67,1
288.00,237.70,1
246.00,235.44,1
248.00,234.44,1
319.00,234.70,1
291.00,236.87,1
141.00,239.30,1
221.00,239.81,1
149.00,238.33,1
361.00,236.60,1
428.00,238.24,1
218.00,243.50,1
150.00,247.82,1
206.00,248.89,1
231.00,248.03,1
218.00,246.50,1
132.00,243.79,1
151.00,238.88,1
290.00,233.23,1
141.00,228.43,1
246.00,224.00,1
147.00,219.66,1
186.00,215.12,1
188.00,210.38,1
182.00,205.97,1
226.00,202.24,1
285.00,200.31,1
136.00,199.94,1
292.00,200.06,1
200.00,201.15,1
222.00,202.89,1
382.00,205.98,1
476.00,213.64,1
251.00,225.57,1
109.00,236.16,1
366.00,243.30,1
505.00,251.84,1
352.00,264.30,1
200.00,276.69,1
637.00,288.44,1
184.00,301.55,1
445.00,313.52,1
148.00,322.34,1
198.00,326.15,1
364.00,325.74,1
134.00,323.43,1
383.00,319.37,1
162.00,314.51,1
227.00,308.16,1
99.00,299.08,1
183.00,287.32,1
146.00,273.93,1
245.00,260.65,1
195.00,248.80,1
383.00,239.99,1
241.00,235.29,1
248.00,233.14,1
210.00,231.61,1
172.00,229.74,1
330.00,228.03,1
356.00,229.04,1
243.00,232.87,1
326.00,237.74,1
435.00,244.62,1
197.00,253.29,1
404.00,261.69,1
518.00,272.05,1
456.00,286.57,1
610.00,305.02,1
375.00,325.96,1
293.00,344.76,1
345.00,358.44,1
357.00,368.06,1
416.00,375.37,1
181.00,379.83,1
248.00,379.15,1
332.00,374.41,1
176.00,367.42,1
294.00,358.04,1
256.00,347.49,1
194.00,336.23,1
238.00,323.85,1
232.00,311.17,1
272.00,299.29,1
313.00,289.38,1
206.00,281.39,1
445.00,275.72,1
313.00,273.92,1
358.00,275.32,1
321.00,278.46,1
265.00,282.10,1
508.00,286.77,1
332.00,294.21,1
350.00,302.71,1
372.00,310.78,1
320.00,318.33,1
384.00,325.08,1
220.00,330.28,1
321.00,332.77,1
362.00,333.78,1
174.00,333.58,1
201.00,329.92,1
206.00,322.65,1
224.00,313.37,1
186.00,302.92,1
308.00,292.40,1
464.00,285.21,1
181.00,282.00,1
234.00,279.00,1
314.00,275.45,1
235.00,272.71,1
205.00,269.78,1
215.00,265.73,1
471.00,263.00,1
245.00,263.84,1
201.00,265.37,1
127.00,264.13,1
195.00,259.83,1
193.00,253.84,1
120.00,246.67,1
378.00,239.77,1
245.00,235.85,1
173.00,233.71,1
370.00,232.30,1
422.00,234.58,1
395.00,241.99,1
224.00,251.49,1
113.00,258.28,1
148.00,259.78,1
148.00,256.92,1
295.00,252.34,1
212.00,248.37,1
138.00,244.22,1
228.00,238.92,1
170.00,233.29,1
152.00,227.26,1
260.00,221.22,1
290.00,217.28,1
508.00,218.29,1
179.00,224.08,1
214.00,230.02,1
478.00,235.89,1
180.00,243.70,1
148.00,249.73,1
249.00,252.01,1
167.00,252.12,1
316.00,251.29,1
238.00,250.94,1
304.00,251.43,1
246.00,252.51,1
338.00,254.37,1
359.00,257.95,1
418.00,264.33,1
191.00,271.88,1
281.00,277.56,1
281.00,281.23,1
186.00,283.22,1
324.00,283.44,1
291.00,283.54,1
157.00,283.03,1
177.00,279.70,1
343.00,274.98,1
177.00,270.91,1
249.00,266.67,1
130.00,261.30,1
348.00,255.66,1
206.00,251.45,1
246.00,248.26,1
278.00,245.69,1
258.00,244.38,1
270.00,244.09,1
447.00,246.14,1
202.00,250.86,1
180.00,254.67,1
110.00,254.64,1
236.00,251.43,1
89.00,246.22,1
125.00,238.55,1
427.00,231.16,1
198.00,227.64,1
62.00,224.75,1
109.00,218.69,1
76.00,209.78,1
127.00,199.27,1
129.00,188.50,1
321.00,179.92,1
182.00,175.32,1
59.00,172.19,1
94.00,167.40,1
143.00,161.44,1
164.00,156.06,1
84.00,151.41,1
218.00,147.41,1
156.00,145.11,1
66.00,143.50,1
290.00,142.31,1
92.00,142.79,1
160.00,143.68,1
150.00,144.25,1
91.00,144.47,1
222.00,144.44,1
228.00,145.93,1
127.00,148.90,1
167.00,151.59,1
233.00,154.36,1
196.00,158.20,1
150.00,162.30,1
49.00,164.55,1
153.00,164.11,1
78.00,161.93,1
75.00,158.09,1
138.00,152.97,1
229.00,148.82,1
214.00,147.43,1
189.00,148.53,1
117.00,150.32,1
90.00,150.95,1
463.00,152.74,1
184.00,159.01,1
146.00,166.59,1
87.00,171.50,1
220.00,174.00,1
171.00,175.92,1
83.00,176.88,1
158.00,175.86,1
72.00,173.16,1
243.00,169.89,1
61.00,166.91,1
77.00,162.78,1
97.00,156.84,1
152.00,150.63,1
81.00,144.91,1
238.00,140.33,1
147.00,138.07,1
143.00,137.36,1
326.00,138.54,1
206.00,143.18,1
130.00,149.13,1
392.00,155.82,1
78.00,163.96,1
309.00,171.81,1
287.00,180.22,1
191.00,189.55,1
66.00,196.45,1
126.00,198.94,1
196.00,198.46,1
352.00,198.73,1
187.00,201.39,1
183.00,204.27,1
110.00,205.19,1
87.00,203.13,1
61.00,197.68,1
153.00,190.02,1
146.00,182.15,1
100.00,174.64,1
160.00,167.34,1
227.00,161.61,1
318.00,159.63,1
156.00,161.29,1
114.00,163.36,1
127.00,163.74,1
158.00,162.96,1
175.00,162.09,1
174.00,161.70,1
192.00,161.97,1
191.00,163.01,1
80.00,163.81,1
89.00,162.63,1
232.00,160.40,1
168.00,159.37,1
121.00,159.02,1
96.00,157.66,1
226.00,155.87,1
234.00,155.83,1
72.00,157.00,1
117.00,156.80,1
118.00,154.95,1
131.00,152.42,1
54.00,149.03,1
64.00,144.05,1
297.00,139.46,1
251.00,138.87,1
209.00,142.19,1
108.00,146.43,1
142.00,149.49,1
206.00,151.82,1
142.00,154.32,1
123.00,156.19,1
138.00,156.80,1
520.00,159.66,1
275.00,168.52,1
58.00,179.03,1
138.00,185.48,1
162.00,188.37,1
163.00,189.51,1
344.00,190.99,1
248.00,194.86,1
175.00,199.76,1
499.00,205.96,1
158.00,214.90,1
106.00,222.21,1
96.00,224.23,1
202.00,222.45,1
56.00,218.34,1
103.00,211.41,1
746.00,207.51,1
184.00,212.43,1
76.00,218.99,1
90.00,220.18,1
70.00,216.51,1
113.00,209.40,1
123.00,200.50,1
47.00,190.46,1
62.00,178.84,1
89.00,166.24,1
224.00,155.00,1
331.00,148.50,1
116.00,146.97,1
154.00,146.89,1
162.00,146.82,1
127.00,146.91,1
348.00,148.46,1
56.00,152.00,1
506.00,157.66,1
84.00,166.31,1
157.00,174.25,1
85.00,178.52,1
166.00,179.91,1
120.00,179.46,1
261.00,178.70,1
75.00,178.14,1
139.00,176.37,1
224.00,173.96,1
48.00,171.62,1
75.00,167.41,1
153.00,161.57,1
141.00,156.11,1
47.00,150.77,1
83.00,144.37,1
83.00,137.19,1
264.00,131.44,1
70.00,128.35,1
178.00,126.56,1
150.00,125.77,1
102.00,125.80,1
218.00,126.39,1
165.00,128.46,1
393.00,133.56,1
236.00,142.85,1
146.00,153.56,1
420.00,164.44,1
271.00,177.69,1
206.00,191.53,1
114.00,202.30,1
103.00,208.21,1
208.00,210.15,1
360.00,211.95,1
73.00,214.58,1
110.00,214.54,1
58.00,210.31,1
165.00,203.36,1
47.00,194.93,1
152.00,185.48,1
78.00,175.71,1
52.00,165.47,1
243.00,155.72,1
96.00,148.40,1
206.00,143.23,1
67.00,139.31,1
216.00,136.32,1
137.00,134.79,1
196.00,134.86,1
78.00,135.47,1
221.00,136.19,1
241.00,138.53,1
200.00,143.23,1
235.00,149.30,1
153.00,155.78,1
104.00,160.88,1
154.00,163.70,1
139.00,164.97,1
250.00,166.12,1
65.00,167.32,1
110.00,166.75,1
61.00,163.64,1
131.00,158.83,1
100.00,153.42,1
136.00,148.08,1
120.00,143.20,1
132.00,138.95,1
207.00,136.02,1
330.00,136.54,1
111.00,140.53,1
147.00,144.69,1
44.00,146.75,1
301.00,147.90,1
68.00,149.77,1
279.00,152.18,1
144.00,155.34,1
226.00,159.15,1
309.00,164.28,1
88.00,170.45,1
88.00,174.23,1
157.00,174.81,1
397.00,176.07,1
52.00,179.49,1
105.00,181.17,1
72.00,179.22,1
259.00,176.00,1
280.00,174.92,1
130.00,176.14,1
114.00,176.66,1
163.00,175.51,1
126.00,173.51,1
121.00,170.70,1
294.00,168.39,1
122.00,167.92,1
140.00,167.62,1
85.00,165.86,1
193.00,163.20,1
86.00,160.38,1
114.00,156.90,1
128.00,152.72,1
347.00,150.41,1
283.00,152.85,1
83.00,157.87,1
88.00,160.90,1
74.00,160.63,1
109.00,157.98,1
155.00,154.43,1
67.00,150.64,1
241.00,147.16,1
88.00,144.92,1
48.00,142.27,1
184.00,138.61,1
110.00,135.59,1
328.00,134.86,1
202.00,137.87,1
258.00,143.82,1
262.00,151.69,1
122.00,160.14,1
219.00,167.26,1
119.00,172.74,1
110.00,175.88,1
107.00,176.15,1
165.00,174.56,1
56.00,171.66,1
319.00,168.71,1
232.00,168.52,1
100.00,170.14,1
102.00,170.15,1
119.00,168.05,1
53.00,164.10,1
169.00,158.94,1
370.00,156.06,1
208.00,158.03,1
120.00,161.77,1
80.00,163.64,1
225.00,163.82,1
138.00,164.06,1
272.00,165.22,1
472.00,170.20,1
238.00,180.36,1
406.00,193.33,1
136.00,206.60,1
81.00,216.13,1
149.00,219.94,1
224.00,220.54,1
141.00,219.81,1
196.00,217.77,1
201.00,215.09,1
91.00,211.64,1
168.00,206.54,1
106.00,200.24,1
164.00,193.34,1
50.00,185.71,1
86.00,176.66,1
101.00,166.62,1
179.00,157.34,1
94.00,149.66,1
205.00,143.61,1
112.00,139.34,1
230.00,136.94,1
85.00,136.01,1
113.00,135.05,1
90.00,133.18,1
127.00,130.83,1
318.00,130.18,1
171.00,133.12,1
67.00,136.98,1
138.00,139.03,1
335.00,141.59,1
119.00,146.51,1
50.00,150.56,1
173.00,151.90,1
254.00,153.26,1
66.00,155.42,1
127.00,156.15,1
93.00,154.96,1
192.00,153.11,1
97.00,151.38,1
76.00,148.89,1
98.00,144.93,1
232.00,141.29,1
148.00,139.73,1
332.00,141.06,1
285.00,146.54,1
64.00,153.84,1
156.00,158.99,1
73.00,161.34,1
182.00,161.81,1
104.00,161.28,1
101.00,159.61,1
49.00,155.97,1
197.00,151.33,1
68.00,147.03,1
45.00,142.00,1
84.00,135.48,1
53.00,128.24,1
177.00,121.53,1
170.00,117.17,1
137.00,115.39,1
155.00,115.20,1
114.00,115.88,1
379.00,118.90,1
122.00,125.54,1
146.00,132.81,1
97.00,138.15,1
104.00,141.29,1
134.00,142.61,1
120.00,142.96,1
50.00,141.97,1
99.00,139.16,1
157.00,135.76,1
81.00,132.77,1
170.00,130.15,1
157.00,128.64,1
80.00,127.92,1
124.00,126.78,1
338.00,127.27,1
353.00,132.99,1
321.00,144.30,1
132.00,157.52,1
273.00,169.46,1
54.00,178.97,1
100.00,184.19,1
139.00,185.29,1
167.00,184.48,1
335.00,184.46,1
111.00,186.19,1
161.00,187.29,1
129.00,186.54,1
59.00,183.75,1
263.00,179.76,1
292.00,178.06,1
69.00,178.44,1
80.00,177.05,1
104.00,172.86,1
76.00,166.95,1
131.00,160.14,1
98.00,153.28,1
179.00,147.18,1
89.00,142.19,1
226.00,138.51,1
166.00,136.97,1
133.00,136.99,1
163.00,137.40,1
572.00,141.70,1
208.00,152.80,1
208.00,166.07,1
101.00,176.65,1
121.00,183.24,1
69.00,185.57,1
146.00,184.54,1
64.00,181.18,1
105.00,175.75,1
115.00,169.02,1
122.00,162.10,1
127.00,155.49,1
152.00,149.69,1
248.00,145.96,1
87.00,144.39,1
70.00,142.49,1
180.00,139.70,1
123.00,137.52,1
278.00,137.15,1
132.00,139.04,1
163.00,141.72,1
476.00,146.82,1
317.00,157.66,1
67.00,170.42,1
126.00,179.24,1
50.00,183.05,1
212.00,183.46,1
67.00,182.16,1
241.00,180.00,1
43.00,177.28,1
320.00,174.70,1
91.00,173.35,1
392.00,174.01,1
389.00,179.23,1
220.00,188.79,1
224.00,198.53,1
195.00,206.50,1
118.00,211.77,1
82.00,212.99,1
127.00,210.24,1
141.00,205.15,1
210.00,199.61,1
87.00,194.15,1
240.00,188.73,1
114.00,184.01,1
123.00,179.21,1
165.00,173.99,1
225.00,169.87,1
78.00,166.86,1
143.00,163.39,1
76.00,158.99,1
83.00,153.53,1
114.00,147.24,1
80.00,140.84,1
108.00,134.46,1
141.00,128.79,1
101.00,124.27,1
259.00,121.71,1
117.00,121.82,1
381.00,125.11,1
71.00,131.33,1
280.00,138.37,1
117.00,145.33,1
138.00,151.20,1
147.00,155.13,1
276.00,158.84,1
72.00,162.78,1
370.00,166.93,1
296.00,173.76,1
55.00,181.61,1
175.00,186.39,1
50.00,187.62,1
144.00,185.80,1
135.00,182.20,1
134.00,177.97,1
114.00,173.16,1
46.00,167.15,1
139.00,159.93,1
42.00,152.16,1
274.00,145.34,1
71.00,140.82,1
200.00,137.83,1
203.00,136.57,1
326.00,138.79,1
144.00,144.15,1
248.00,150.59,1
86.00,156.51,1
282.00,161.63,1
205.00,167.24,1
186.00,173.25,1
62.00,177.36,1
205.00,178.89,1
72.00,178.61,1
59.00,175.88,1
67.00,170.09,1
62.00,162.16,1
43.00,152.67,1
51.00,142.06,1
165.00,131.86,1
95.00,123.69,1
127.00,117.38,1
197.00,113.23,1
217.00,112.47,1
192.00,114.96,1
111.00,118.95,1
178.00,122.95,1
136.00,126.90,1
341.00,132.26,1
58.00,139.21,1
139.00,144.81,1
332.00,149.80,1
205.00,156.97,1
158.00,164.69,1
174.00,170.86,1
62.00,174.58,1
204.00,175.73,1
128.00,175.73,1
164.00,175.08,1
68.00,173.12,1
84.00,169.07,1
220.00,164.17,1
239.00,161.34,1
124.00,160.63,1
120.00,159.80,1
97.00,157.69,1
216.00,155.25,1
79.00,153.28,1
138.00,150.96,1
64.00,147.65,1
175.00,143.89,1
64.00,140.23,1
265.00,137.52,1
73.00,136.43,1
144.00,135.68,1
58.00,134.07,1
101.00,131.41,1
165.00,128.55,1
158.00,127.01,1
181.00,127.12,1
131.00,128.38,1
86.00,129.46,1
139.00,129.66,1
178.00,130.00,1
42.00,130.39,1
210.00,130.28,1
176.00,131.16,1
128.00,133.20,1
243.00,135.91,1
196.00,140.18,1
93.00,144.82,1
98.00,147.52,1
178.00,148.54,1
190.00,149.73,1
201.00,151.94,1
293.00,155.94,1
300.00,162.79,1
302.00,172.50,1
275.00,183.90,1
164.00,194.90,1
155.00,203.08,1
40.00,206.82,1
253.00,206.80,1
267.00,206.67,1
389.00,209.49,1
171.00,214.77,1
230.00,219.62,1
216.00,223.06,1
48.00,224.15,1
222.00,221.94,1
141.00,218.15,1
361.00,215.21,1
140.00,214.17,1
182.00,213.10,1
187.00,210.96,1
213.00,208.70,1
342.00,207.98,1
137.00,209.09,1
133.00,209.23,1
98.00,206.52,1
293.00,202.77,1
220.00,200.71,1
156.00,199.85,1
49.00,197.38,1
104.00,191.94,1
128.00,184.62,1
95.00,176.74,1
76.00,168.16,1
134.00,159.25,1
216.00,151.84,1
177.00,147.35,1
338.00,146.55,1
82.00,148.86,1
189.00,151.41,1
135.00,153.26,1
330.00,156.12,1
135.00,160.83,1
197.00,165.68,1
91.00,169.01,1
514.00,173.36,1
80.00,180.82,1
48.00,186.47,1
52.00,186.40,1
187.00,182.99,1
71.00,178.46,1
112.00,172.74,1
98.00,165.94,1
72.00,158.42,1
145.00,150.67,1
189.00,144.36,1
149.00,140.36,1
249.00,138.75,1
179.00,139.78,1
178.00,142.42,1
140.00,145.30,1
230.00,148.37,1
269.00,153.00,1
235.00,159.75,1
125.00,166.73,1
105.00,171.37,1
115.00,172.94,1
71.00,171.74,1
124.00,168.27,1
156.00,163.99,1
250.00,160.98,1
137.00,159.95,1
101.00,159.04,1
62.00,156.41,1
62.00,151.62,1
58.00,144.96,1
159.00,137.89,1
89.00,131.80,1
260.00,127.77,1
203.00,127.19,1
316.00,130.63,1
127.00,136.86,1
97.00,142.58,1
146.00,146.07,1
266.00,149.31,1
58.00,152.94,1
84.00,154.48,1
159.00,153.73,1
137.00,152.52,1
197.00,151.77,1
218.00,152.38,1
82.00,153.72,1
90.00,153.55,1
40.00,150.83,1
95.00,145.94,1
179.00,140.78,1
422.00,139.45,1
137.00,143.43,1
98.00,148.29,1
274.00,152.10,1
191.00,156.87,1
168.00,162.15,1
244.00,167.17,1
234.00,172.82,1
334.00,180.09,1
127.00,188.17,1
76.00,193.58,1
270.00,195.80,1
113.00,197.05,1
73.00,196.19,1
75.00,191.84,1
189.00,185.60,1
124.00,179.50,1
96.00,173.32,1
107.00,166.37,1
146.00,159.36,1
147.00,153.27,1
109.00,148.12,1
140.00,143.48,1
97.00,139.23,1
143.00,135.34,1
250.00,133.14,1
198.00,133.99,1
184.00,137.08,1
269.00,141.78,1
117.00,147.62,1
170.00,152.73,1
127.00,156.39,1
249.00,159.57,1
149.00,163.10,1
184.00,166.44,1
276.00,170.02,1
176.00,174.65,1
95.00,178.37,1
110.00,179.23,1
52.00,176.95,1
306.00,173.67,1
101.00,171.77,1
294.00,171.28,1
122.00,171.94,1
110.00,172.12,1
74.00,169.97,1
101.00,165.67,1
114.00,160.13,1
63.00,153.87,1
153.00,147.26,1
364.00,143.44,1
92.00,143.89,1
319.00,146.64,1
137.00,151.05,1
315.00,156.91,1
240.00,164.53,1
115.00,172.41,1
124.00,177.61,1
305.00,181.20,1
275.00,186.30,1
130.00,192.16,1
182.00,196.19,1
389.00,200.07,1
220.00,206.16,1
213.00,212.58,1
111.00,216.67,1
191.00,217.77,1
127.00,216.54,1
445.00,215.81,1
156.00,217.81,1
168.00,219.78,1
106.00,218.89,1
98.00,214.96,1
114.00,208.28,1
108.00,199.86,1
82.00,190.24,1
256.00,181.00,1
306.00,175.48,1
126.00,173.69,1
113.00,172.13,1
204.00,169.84,1
294.00,169.24,1
242.00,171.71,1
256.00,176.46,1
273.00,182.75,1
195.00,189.73,1
314.00,196.84,1
171.00,203.97,1
223.00,209.91,1
212.00,214.33,1
256.00,218.06,1
540.00,224.11,1
206.00,234.07,1
233.00,243.71,1
146.00,249.73,1
174.00,251.80,1
147.00,250.32,1
278.00,247.07,1
132.00,243.33,1
136.00,238.04,1
69.00,230.06,1
499.00,222.78,1
236.00,220.62,1
127.00,220.80,1
148.00,218.88,1
178.00,215.16,1
157.00,210.67,1
119.00,205.33,1
228.00,199.65,1
163.00,194.82,1
176.00,190.75,1
147.00,186.83,1
165.00,182.91,1
183.00,179.34,1
219.00,176.90,1
409.00,177.72,1
239.00,183.07,1
243.00,190.41,1
297.00,198.15,1
332.00,207.12,1
298.00,217.50,1
109.00,226.78,1
131.00,231.68,1
255.00,232.89,1
193.00,233.00,1
321.00,233.33,1
182.00,234.28,1
255.00,235.02,1
218.00,235.33,1
274.00,235.77,1
127.00,235.68,1
235.00,234.13,1
210.00,231.89,1
355.00,230.86,1
189.00,231.64,1
385.00,233.82,1
282.00,238.00,1
636.00,246.45,1
164.00,258.89,1
473.00,271.67,1
161.00,282.90,1
256.00,290.76,1
246.00,294.70,1
182.00,295.66,1
296.00,294.09,1
171.00,291.00,1
283.00,286.63,1
384.00,283.10,1
296.00,282.20,1
144.00,281.45,1
110.00,277.26,1
92.00,268.65,1
118.00,256.62,1
146.00,242.83,1
91.00,228.48,1
83.00,213.39,1
117.00,197.95,1
172.00,183.71,1
126.00,171.67,1
102.00,161.19,1
147.00,151.84,1
297.00,145.44,1
186.00,143.41,1
372.00,145.72,1
224.00,152.17,1
229.00,160.69,1
161.00,168.82,1
159.00,175.28,1
209.00,180.07,1
327.00,185.24,1
386.00,193.35,1
116.00,203.16,1
242.00,211.02,1
91.00,215.70,1
145.00,216.82,1
157.00,214.94,1
437.00,213.81,1
233.00,216.35,1
214.00,220.35,1
234.00,223.51,1
317.00,226.78,1
84.00,229.63,1
81.00,228.87,1
218.00,224.57,1
111.00,219.04,1
180.00,212.72,1
79.00,205.42,1
100.00,196.68,1
289.00,188.23,1
193.00,182.78,1
250.00,180.23,1
203.00,179.74,1
78.00,179.48,1
214.00,178.10,1
229.00,177.24,1
211.00,178.01,1
125.00,179.13,1
351.00,180.78,1
247.00,184.91,1
396.00,192.22,1
251.00,202.06,1
282.00,212.62,1
121.00,221.34,1
202.00,226.65,1
206.00,229.18,1
237.00,230.56,1
175.00,231.05,1
61.00,229.10,1
127.00,223.53,1
207.00,216.21,1
127.00,209.01,1
105.00,201.29,1
111.00,192.46,1
155.00,183.34,1
187.00,175.38,1
45.00,168.27,1
132.00,160.67,1
221.00,153.96,1
87.00,149.23,1
146.00,145.17,1
114.00,141.36,1
177.00,138.35,1
174.00,136.79,1
154.00,136.71,1
370.00,139.17,1
93.00,144.60,1
238.00,150.53,1
150.00,156.00,1
140.00,160.60,1
224.00,164.18,1
240.00,168.32,1
361.00,174.71,1
267.00,183.97,1
321.00,194.98,1
83.00,205.10,1
206.00,211.73,1
84.00,214.51,1
81.00,213.30,1
161.00,208.66,1
98.00,202.38,1
119.00,194.83,1
227.00,187.31,1
516.00,184.45,1
65.00,187.11,1
132.00,189.37,1
301.00,190.05,1
210.00,192.07,1
79.00,193.88,1
231.00,193.79,1
305.00,194.31,1
326.00,197.94,1
130.00,203.13,1
277.00,207.49,1
189.00,211.16,1
343.00,215.21,1
120.00,219.41,1
116.00,221.10,1
191.00,219.56,1
100.00,216.07,1
363.00,212.51,1
324.00,212.31,1
417.00,216.91,1
120.00,223.80,1
98.00,227.86,1
62.00,226.57,1
111.00,220.86,1
108.00,212.42,1
707.00,207.53,1
163.00,210.88,1
76.00,215.65,1
167.00,216.13,1
116.00,213.67,1
153.00,209.30,1
203.00,204.24,1
265.00,200.44,1
127.00,198.04,1
104.00,194.81,1
124.00,189.68,1
158.00,183.72,1
291.00,179.17,1
238.00,177.85,1
238.00,179.27,1
173.00,181.75,1
182.00,183.96,1
167.00,185.37,1
170.00,185.98,1
363.00,187.51,1
232.00,191.77,1
209.00,197.22,1
226.00,202.09,1
188.00,206.12,1
178.00,208.81,1
129.00,209.52,1
141.00,207.87,1
346.00,205.99,1
99.00,205.46,1
134.00,203.85,1
131.00,200.01,1
76.00,194.40,1
268.00,188.25,1
86.00,183.12,1
199.00,178.46,1
384.00,176.19,1
123.00,177.69,1
227.00,180.06,1
271.00,182.91,1
269.00,187.63,1
199.00,193.33,1
363.00,199.79,1
221.00,207.56,1
361.00,216.25,1
215.00,225.27,1
185.00,232.75,1
156.00,236.82,1
352.00,239.12,1
303.00,242.56,1
182.00,246.58,1
408.00,250.37,1
218.00,255.02,1
327.00,259.81,1
243.00,264.07,1
66.00,265.83,1
168.00,262.83,1
138.00,256.27,1
67.00,247.04,1
118.00,235.04,1
191.00,222.25,1
435.00,212.92,1
164.00,208.90,1
142.00,206.41,1
234.00,203.32,1
404.00,202.63,1
216.00,205.79,1
349.00,211.22,1
149.00,217.14,1
212.00,221.57,1
124.00,223.35,1
64.00,221.62,1
46.00,215.40,1
153.00,206.12,1
126.00,196.17,1
81.00,186.14,1
112.00,175.66,1
133.00,165.50,1
308.00,157.98,1
403.00,156.52,1
228.00,161.30,1
199.00,168.39,1
58.00,173.87,1
198.00,176.52,1
105.00,177.29,1
69.00,175.97,1
131.00,172.24,1
154.00,167.69,1
114.00,163.26,1
67.00,158.21,1
104.00,152.04,1
150.00,145.84,1
68.00,140.21,1
254.00,135.76,1
100.00,133.50,1
71.00,131.71,1
157.00,129.30,1
181.00,127.86,1
185.00,128.37,1
104.00,129.93,1
77.00,130.70,1
40.00,129.40,1
88.00,126.17,1
241.00,123.33,1
52.00,122.23,1
54.00,120.65,1
75.00,117.41,1
302.00,115.26,1
138.00,116.57,1
71.00,119.06,1
221.00,121.17,1
129.00,124.08,1
199.00,127.78,1
69.00,131.30,1
58.00,132.89,1
127.00,132.29,1
140.00,131.20,1
158.00,130.70,1
150.00,131.01,1
156.00,131.98,1
41.00,132.52,1
97.00,131.31,1
205.00,129.68,1
127.00,129.39,1
105.00,129.57,1
106.00,129.08,1
98.00,127.87,1
52.00,125.64,1
180.00,122.93,1
112.00,121.14,1
126.00,120.16,1
348.00,121.36,1
168.00,126.45,1
74.00,132.41,1
95.00,135.96,1
247.00,138.40,1
137.00,141.66,1
118.00,144.75,1
170.00,146.79,1
97.00,148.08,1
103.00,148.02,1
116.00,146.54,1
145.00,144.54,1
193.00,143.20,1
170.00,143.25,1
57.00,143.43,1
78.00,141.82,1
46.00,138.02,1
175.00,133.42,1
74.00,129.40,1
77.00,125.37,1
233.00,121.98,1
185.00,121.36,1
251.00,123.97,1
86.00,128.27,1
75.00,131.40,1
79.00,132.04,1
122.00,131.09,1
287.00,131.07,1
140.00,133.63,1
112.00,136.78,1
45.00,138.02,1
100.00,136.91,1
331.00,136.30,1
204.00,139.36,1
150.00,144.42,1
141.00,148.82,1
181.00,152.31,1
60.00,154.57,1
94.00,154.45,1
272.00,153.54,1
93.00,153.81,1
58.00,153.20,1
119.00,150.34,1
123.00,146.66,1
46.00,142.41,1
49.00,136.64,1
75.00,129.55,1
138.00,122.68,1
37.00,116.60,1
91.00,110.63,1
268.00,106.47,1
127.00,106.03,1
169.00,107.90,1
53.00,110.04,1
134.00,111.41,1
132.00,112.50,1
84.00,113.60,1
119.00,114.15,1
204.00,115.13,1
127.00,117.47,1
141.00,120.31,1
136.00,122.99,1
205.00,126.07,1
99.00,129.57,1
98.00,132.09,1
169.00,133.48,1
41.00,134.06,1
74.00,132.73,1
105.00,129.77,1
142.00,126.75,1
226.00,125.34,1
147.00,126.27,1
165.00,128.48,1
108.00,130.73,1
271.00,133.54,1
204.00,138.31,1
138.00,144.12,1
37.00,148.03,1
110.00,148.74,1
139.00,147.64,1
122.00,146.14,1
101.00,144.16,1
462.00,144.37,1
221.00,150.02,1
163.00,158.17,1
135.00,164.76,1
72.00,168.50,1
68.00,168.59,1
154.00,166.07,1
134.00,162.87,1
176.00,160.00,1
218.00,158.35,1
143.00,158.10,1
84.00,157.55,1
54.00,154.91,1
176.00,150.81,1
46.00,146.45,1
77.00,141.12,1
44.00,134.44,1
71.00,126.87,1
82.00,119.15,1
99.00,112.10,1
161.00,106.68,1
36.00,102.81,1
103.00,99.24,1
138.00,96.38,1
134.00,95.27,1
192.00,96.22,1
46.00,98.42,1
116.00,100.15,1
44.00,100.82,1
201.00,101.34,1
78.00,102.71,1
96.00,104.11,1
177.00,105.42,1
91.00,107.41,1
128.00,109.39,1
66.00,110.70,1
114.00,111.11,1
174.00,111.62,1
150.00,113.37,1
153.00,116.14,1
101.00,119.01,1
221.00,122.02,1
173.00,126.21,1
174.00,131.35,1
123.00,136.23,1
65.00,139.44,1
214.00,141.12,1
208.00,143.53,1
70.00,146.41,1
65.00,147.18,1
61.00,145.03,1
88.00,140.86,1
151.00,136.24,1
87.00,132.17,1
171.00,128.80,1
61.00,126.04,1
203.00,123.88,1
205.00,123.70,1
184.00,126.05,1
127.00,129.47,1
92.00,132.16,1
123.00,133.43,1
161.00,134.11,1
135.00,134.98,1
113.00,135.68,1
330.00,137.44,1
366.00,143.71,1
108.00,153.39,1
94.00,161.26,1
166.00,165.70,1
193.00,168.71,1
86.00,170.69,1
72.00,170.17,1
77.00,166.63,1
156.00,161.59,1
269.00,157.87,1
101.00,156.39,1
203.00,155.67,1
62.00,154.67,1
216.00,153.29,1
118.00,152.23,1
173.00,151.55,1
171.00,151.28,1
258.00,152.46,1
139.00,155.15,1
89.00,157.23,1
300.00,158.72,1
139.00,161.44,1
152.00,164.21,1
260.00,166.70,1
184.00,170.16,1
229.00,174.25,1
233.00,178.84,1
280.00,184.47,1
179.00,190.69,1
344.00,197.21,1
211.00,204.58,1
192.00,211.32,1
65.00,214.94,1
227.00,215.14,1
178.00,213.93,1
58.00,211.24,1
67.00,205.23,1
98.00,196.27,1
197.00,186.78,1
183.00,178.97,1
99.00,172.59,1
95.00,165.95,1
99.00,158.62,1
302.00,152.72,1
164.00,150.35,1
160.00,150.12,1
295.00,151.43,1
226.00,155.49,1
146.00,160.84,1
427.00,167.39,1
508.00,179.31,1
288.00,196.87,1
190.00,214.23,1
373.00,228.93,1
257.00,242.41,1
418.00,255.43,1
237.00,267.87,1
210.00,277.55,1
379.00,284.31,1
155.00,289.33,1
118.00,290.27,1
192.00,286.15,1
183.00,279.21,1
269.00,271.55,1
199.00,264.36,1
223.00,257.50,1
349.00,251.99,1
232.00,248.99,1
219.00,247.01,1
223.00,244.71,1
197.00,242.00,1
252.00,239.12,1
277.00,237.10,1
238.00,236.36,1
226.00,236.07,1
137.00,234.87,1
211.00,232.06,1
349.00,229.76,1
459.00,231.75,1
290.00,238.49,1
263.00,246.49,1
250.00,253.22,1
290.00,258.68,1
165.00,262.48,1
339.00,264.61,1
306.00,266.99,1
436.00,271.43,1
304.00,278.10,1
409.00,285.99,1
270.00,294.04,1
295.00,300.72,1
259.00,305.10,1
229.00,306.95,1
384.00,307.31,1
368.00,308.73,1
376.00,311.96,1
231.00,315.27,1
270.00,316.51,1
550.00,317.91,1
324.00,322.46,1
307.00,327.72,1
433.00,332.21,1
233.00,336.26,1
288.00,338.02,1
455.00,338.63,1
234.00,339.74,1
277.00,339.25,1
375.00,337.29,1
437.00,336.76,1
321.00,338.21,1
389.00,340.26,1
292.00,342.07,1
319.00,342.82,1
298.00,342.18,1
386.00,341.14,1
350.00,340.80,1
378.00,341.39,1
497.00,343.79,1
263.00,347.78,1
352.00,350.68,1
292.00,351.70,1
322.00,351.25,1
372.00,350.11,1
221.00,348.29,1
238.00,344.10,1
325.00,337.98,1
295.00,331.94,1
408.00,327.32,1
226.00,324.04,1
344.00,320.79,1
321.00,317.92,1
145.00,314.57,1
330.00,309.41,1
231.00,303.80,1
474.00,299.96,1
188.00,298.44,1
336.00,297.23,1
200.00,295.24,1
223.00,291.89,1
154.00,286.24,1
631.00,282.09,1
383.00,284.53,1
310.00,291.17,1
375.00,297.97,1
211.00,303.79,1
292.00,307.15,1
127.00,307.14,1
183.00,302.98,1
180.00,295.29,1
217.00,285.94,1
254.00,276.56,1
304.00,268.80,1
306.00,263.68,1
410.00,262.02,1
385.00,264.64,1
301.00,270.15,1
209.00,275.29,1
230.00,277.95,1
344.00,279.14,1
322.00,281.08,1
242.00,283.43,1
276.00,284.78,1
375.00,286.06,1
348.00,288.93,1
233.00,292.36,1
231.00,293.93,1
339.00,293.96,1
306.00,294.32,1
302.00,295.21,1
424.00,297.15,1
232.00,300.25,1
349.00,302.90,1
154.00,303.88,1
208.00,301.70,1
110.00,295.70,1
194.00,286.53,1
172.00,275.60,1
238.00,264.58,1
410.00,256.20,1
289.00,252.48,1
164.00,250.81,1
502.00,250.51,1
338.00,254.47,1
258.00,260.97,1
324.00,267.02,1
265.00,272.46,1
454.00,278.40,1
538.00,287.89,1
332.00,301.00,1
292.00,313.37,1
325.00,322.66,1
336.00,329.62,1
404.00,335.59,1
276.00,340.77,1
460.00,345.14,1
382.00,350.09,1
313.00,354.98,1
416.00,358.72,1
440.00,362.83,1
294.00,367.08,1
189.00,368.26,1
172.00,363.96,1
300.00,355.57,1
290.00,346.21,1
170.00,336.33,1
222.00,324.70,1
353.00,313.13,1
179.00,303.13,1
326.00,294.07,1
174.00,285.78,1
344.00,278.44,1
264.00,272.98,1
300.00,269.50,1
574.00,269.84,1
376.00,276.33,1
373.00,286.20,1
429.00,297.08,1
347.00,308.59,1
497.00,320.52,1
333.00,332.82,1
446.00,344.46,1
411.00,355.45,1
523.00,366.86,1
464.00,379.27,1
383.00,391.33,1
326.00,400.42,1
569.00,407.34,1
360.00,414.21,1
271.00,418.61,1
149.00,416.83,1
192.00,407.96,1
146.00,393.23,1
183.00,374.60,1
148.00,353.48,1
148.00,330.93,1
182.00,308.04,1
154.00,285.96,1
407.00,267.14,1
336.00,254.79,1
380.00,249.05,1
260.00,247.64,1
335.00,248.64,1
444.00,252.56,1
239.00,259.26,1
295.00,265.85,1
407.00,272.28,1
340.00,280.16,1
442.00,289.52,1
739.00,303.35,1
272.00,321.93,1
364.00,339.03,1
544.00,353.57,1
395.00,368.20,1
553.00,382.73,1
385.00,396.69,1
419.00,408.59,1
275.00,416.52,1
197.00,418.40,1
157.00,412.75,1
193.00,400.67,1
256.00,384.83,1
160.00,367.18,1
248.00,348.45,1
250.00,330.18,1
119.00,312.55,1
211.00,294.55,1
311.00,278.16,1
347.00,266.25,1
477.00,260.73,1
250.00,260.77,1
302.00,262.74,1
362.00,265.60,1
506.00,271.67,1
373.00,281.70,1
434.00,293.93,1
312.00,306.37,1
479.00,318.40,1
414.00,330.93,1
196.00,341.93,1
310.00,348.23,1
675.00,353.84,1
314.00,362.79,1
568.00,373.05,1
304.00,383.03,1
190.00,389.18,1
252.00,388.72,1
172.00,382.69,1
306.00,372.91,1
216.00,361.38,1
200.00,348.42,1
253.00,334.23,1
216.00,320.00,1
212.00,306.01,1
299.00,293.02,1
350.00,283.07,1
381.00,277.57,1
399.00,276.71,1
265.00,278.91,1
485.00,283.05,1
385.00,290.25,1
471.00,300.48,1
450.00,313.04,1
339.00,326.39,1
364.00,338.08,1
403.00,347.93,1
538.00,358.05,1
281.00,368.45,1
498.00,377.38,1
470.00,386.13,1
744.00,398.07,1
378.00,413.30,1
314.00,426.21,1
295.00,432.68,1
316.00,433.34,1
204.00,428.87,1
179.00,418.72,1
132.00,402.95,1
67.00,381.87,1
139.00,356.60,1
70.00,329.07,1
100.00,300.31,1
71.00,271.36,1
180.00,243.89,1
434.00,222.11,1
249.00,209.02,1
109.00,200.75,1
120.00,192.68,1
196.00,184.67,1
368.00,179.74,1
180.00,179.24,1
357.00,181.90,1
171.00,186.76,1
285.00,192.40,1
130.00,197.53,1
106.00,200.27,1
215.00,200.31,1
407.00,201.53,1
310.00,206.91,1
164.00,214.01,1
269.00,219.82,1
201.00,224.43,1
110.00,226.97,1
62.00,225.38,1
127.00,219.71,1
46.00,211.07,1
136.00,200.45,1
107.00,189.25,1
76.00,178.00,1
82.00,166.37,1
118.00,155.00,1
169.00,145.26,1
323.00,139.47,1
176.00,138.66,1
154.00,140.33,1
70.00,141.54,1
127.00,141.25,1
186.00,140.58,1
230.00,141.47,1
208.00,144.51,1
211.00,149.14,1
196.00,154.57,1
259.00,160.71,1
200.00,167.62,1
122.00,173.78,1
246.00,178.42,1
113.00,182.06,1
403.00,186.04,1
127.00,191.55,1
137.00,195.96,1
87.00,196.88,1
80.00,194.26,1
54.00,188.30,1
116.00,180.08,1
70.00,170.80,1
132.00,161.29,1
218.00,153.29,1
83.00,147.53,1
320.00,144.10,1
143.00,143.87,1
424.00,147.46,1
171.00,154.98,1
181.00,163.41,1
185.00,170.35,1
337.00,177.35,1
242.00,185.88,1
213.00,194.77,1
292.00,203.02,1
210.00,210.91,1
151.00,217.07,1
230.00,220.70,1
267.00,223.42,1
127.00,225.46,1
596.00,228.79,1
326.00,237.42,1
130.00,247.53,1
197.00,253.50,1
112.00,254.92,1
127.00,252.08,1
116.00,245.57,1
199.00,237.11,1
100.00,227.89,1
437.00,220.25,1
50.00,215.65,1
167.00,210.84,1
158.00,204.69,1
114.00,198.18,1
84.00,190.56,1
182.00,182.30,1
131.00,174.78,1
175.00,168.40,1
188.00,163.52,1
159.00,160.28,1
228.00,158.58,1
236.00,159.11,1
172.00,161.46,1
210.00,164.43,1
176.00,167.62,1
316.00,171.75,1
116.00,176.85,1
400.00,182.72,1
189.00,190.30,1
178.00,197.67,1
191.00,202.80,1
214.00,206.39,1
188.00,208.96,1
110.00,209.78,1
133.00,207.92,1
146.00,203.96,1
59.00,198.21,1
70.00,190.06,1
198.00,180.84,1
69.00,172.28,1
66.00,163.40,1
74.00,153.51,1
48.00,143.08,1
145.00,133.03,1
289.00,126.20,1
209.00,124.59,1
288.00,127.44,1
212.00,133.64,1
164.00,141.17,1
262.00,148.85,1
324.00,158.16,1
266.00,169.77,1
212.00,181.83,1
158.00,191.98,1
250.00,199.78,1
120.00,205.54,1
205.00,208.87,1
294.00,211.31,1
206.00,214.45,1
268.00,217.80,1
140.00,220.43,1
175.00,221.11,1
62.00,218.87,1
116.00,213.39,1
59.00,205.10,1
140.00,195.09,1
75.00,184.44,1
174.00,174.09,1
297.00,166.42,1
72.00,162.03,1
63.00,157.51,1
143.00,151.64,1
268.00,147.28,1
109.00,145.59,1
338.00,146.29,1
196.00,150.13,1
363.00,157.15,1
265.00,167.07,1
186.00,178.05,1
377.00,188.89,1
212.00,200.40,1
383.00,212.35,1
192.00,224.08,1
97.00,232.73,1
123.00,235.78,1
355.00,236.07,1
264.00,237.55,1
150.00,239.35,1
290.00,239.86,1
132.00,239.43,1
178.00,237.25,1
423.00,235.27,1
302.00,236.93,1
232.00,240.77,1
200.00,243.71,1
252.00,245.20,1
83.00,244.71,1
58.00,240.22,1
70.00,231.06,1
117.00,219.10,1
187.00,206.81,1
174.00,196.13,1
93.00,186.72,1
198.00,178.00,1
251.00,171.61,1
93.00,167.66,1
201.00,164.38,1
124.00,161.57,1
336.00,160.57,1
276.00,163.42,1
306.00,170.04,1
295.00,179.26,1
219.00,189.56,1
322.00,199.84,1
96.00,208.97,1
154.00,214.50,1
303.00,217.45,1
332.00,221.54,1
172.00,226.75,1
229.00,230.68,1
137.00,232.37,1
232.00,232.04,1
69.00,229.63,1
95.00,224.03,1
48.00,214.86,1
89.00,203.08,1
81.00,189.94,1
156.00,177.04,1
290.00,167.04,1
161.00,161.32,1
132.00,157.81,1
106.00,154.30,1
234.00,151.31,1
165.00,150.14,1
118.00,149.92,1
267.00,150.33,1
286.00,153.41,1
170.00,159.02,1
278.00,165.52,1
649.00,176.36,1
148.00,192.98,1
301.00,209.53,1
142.00,222.54,1
198.00,231.53,1
381.00,238.31,1
462.00,247.39,1
221.00,258.71,1
118.00,267.22,1
202.00,270.19,1
72.00,268.42,1
47.00,261.40,1
53.00,249.15,1
127.00,233.92,1
268.00,219.36,1
120.00,207.53,1
208.00,197.60,1
147.00,189.17,1
275.00,182.94,1
178.00,179.40,1
221.00,177.82,1
174.00,177.31,1
271.00,178.01,1
282.00,180.91,1
228.00,185.92,1
246.00,191.74,1
355.00,198.71,1
256.00,207.47,1
133.00,215.54,1
278.00,221.16,1
156.00,225.10,1
168.00,226.91,1
391.00,228.09,1
410.00,232.72,1
317.00,241.15,1
115.00,249.15,1
229.00,253.42,1
186.00,254.57,1
248.00,254.02,1
173.00,252.26,1
105.00,248.37,1
68.00,240.88,1
166.00,230.59,1
127.00,219.50,1
62.00,207.81,1
49.00,194.52,1
217.00,181.10,1
733.00,174.98,1
238.00,180.68,1
126.00,190.05,1
202.00,196.60,1
460.00,203.27,1
273.00,213.14,1
151.00,223.14,1
214.00,229.89,1
167.00,233.59,1
194.00,234.80,1
141.00,233.70,1
78.00,229.71,1
1023.00,229.98,1
177.00,241.51,1
210.00,255.40,1
113.00,263.32,1
296.00,266.68,1
92.00,267.02,1
63.00,262.89,1
62.00,253.36,1
305.00,241.78,1
169.00,231.94,1
265.00,224.29,1
55.00,217.30,1
44.00,208.28,1
102.00,196.51,1
92.00,183.90,1
154.00,171.87,1
122.00,161.35,1
167.00,152.70,1
136.00,145.96,1
211.00,141.39,1
119.00,138.84,1
292.00,138.42,1
144.00,140.54,1
232.00,144.21,1
303.00,149.79,1
241.00,157.99,1
168.00,166.88,1
285.00,175.25,1
187.00,183.47,1
135.00,190.21,1
162.00,194.13,1
272.00,196.74,1
201.00,199.72,1
147.00,202.16,1
78.00,202.09,1
76.00,198.50,1
75.00,191.72,1
191.00,183.63,1
131.00,176.26,1
94.00,169.36,1
53.00,161.59,1
54.00,152.47,1
108.00,142.70,1
77.00,133.41,1
184.00,125.63,1
313.00,121.84,1
356.00,124.64,1
233.00,133.01,1
140.00,142.90,1
394.00,153.18,1
270.00,165.90,1
193.00,179.39,1
183.00,190.64,1
397.00,200.79,1
364.00,212.97,1
288.00,226.87,1
231.00,239.62,1
175.00,249.03,1
286.00,255.10,1
192.00,259.05,1
222.00,260.85,1
367.00,261.88,1
131.00,262.99,1
588.00,265.20,1
409.00,272.30,1
117.00,281.29,1
162.00,285.50,1
70.00,283.35,1
111.00,275.73,1
90.00,264.01,1
41.00,249.02,1
64.00,231.38,1
58.00,212.20,1
314.00,194.69,1
100.00,181.44,1
189.00,171.17,1
116.00,162.62,1
142.00,155.41,1
195.00,149.70,1
212.00,146.58,1
370.00,147.55,1
124.00,152.30,1
221.00,157.81,1
239.00,163.44,1
201.00,169.76,1
153.00,175.51,1
91.00,179.03,1
170.00,179.93,1
230.00,180.12,1
230.00,181.41,1
310.00,184.68,1
208.00,189.82,1
139.00,194.60,1
182.00,197.33,1
60.00,197.50,1
73.00,194.18,1
179.00,188.37,1
167.00,182.67,1
263.00,178.72,1
60.00,176.03,1
50.00,171.73,1
138.00,165.24,1
127.00,158.60,1
170.00,152.95,1
126.00,148.51,1
190.00,145.28,1
305.00,144.77,1
350.00,149.13,1
244.00,157.82,1
312.00,168.76,1
203.00,180.36,1
101.00,189.99,1
142.00,195.50,1
164.00,197.75,1
192.00,198.41,1
115.00,197.82,1
255.00,196.41,1
190.00,195.59,1
126.00,194.78,1
106.00,192.24,1
55.00,187.18,1
111.00,179.82,1
51.00,170.95,1
63.00,160.87,1
121.00,150.33,1
190.00,141.44,1
67.00,134.71,1
280.00,130.14,1
157.00,128.88,1
205.00,130.24,1
260.00,133.82,1
216.00,139.92,1
142.00,146.83,1
225.00,153.22,1
244.00,159.94,1
235.00,167.61,1
140.00,174.96,1
172.00,180.43,1
127.00,183.66,1
143.00,184.73,1
281.00,185.17,1
411.00,188.64,1
152.00,195.42,1
232.00,201.94,1
269.00,207.54,1
113.00,212.22,1
82.00,213.52,1
63.00,210.22,1
83.00,203.12,1
71.00,193.49,1
127.00,182.64,1
194.00,172.65,1
67.00,164.16,1
74.00,155.60,1
77.00,146.36,1
211.00,138.14,1
147.00,132.65,1
243.00,130.32,1
71.00,130.05,1
216.00,130.52,1
410.00,134.10,1
104.00,141.83,1
195.00,149.73,1
195.00,156.48,1
126.00,162.31,1
133.00,166.16,1
257.00,168.96,1
84.00,171.54,1
132.00,172.43,1
152.00,171.55,1
183.00,170.32,1
116.00,168.99,1
243.00,167.83,1
90.00,167.12,1
65.00,165.08,1
78.00,160.51,1
177.00,155.02,1
267.00,151.49,1
158.00,151.00,1
145.00,151.65,1
158.00,152.13,1
90.00,152.03,1
67.00,150.26,1
148.00,147.02,1
140.00,143.85,1
345.00,143.07,1
241.00,146.56,1
145.00,152.45,1
190.00,157.85,1
262.00,163.23,1
109.00,168.75,1
67.00,171.88,1
318.00,173.21,1
229.00,176.24,1
245.00,181.14,1
404.00,188.16,1
84.00,196.71,1
108.00,202.32,1
73.00,202.99,1
226.00,200.70,1
141.00,197.82,1
105.00,194.17,1
107.00,188.71,1
96.00,181.75,1
134.00,174.04,1
265.00,167.62,1
98.00,163.53,1
99.00,159.64,1
84.00,154.56,1
83.00,148.48,1
80.00,141.69,1
117.00,134.81,1
113.00,128.66,1
138.00,123.72,1
196.00,120.70,1
82.00,119.48,1
82.00,118.25,1
143.00,116.63,1
72.00,115.17,1
66.00,113.16,1
386.00,112.77,1
138.00,116.79,1
317.00,124.12,1
168.00,133.37,1
117.00,142.36,1
124.00,148.83,1
95.00,152.62,1
254.00,155.15,1
144.00,158.11,1
89.00,160.35,1
278.00,161.71,1
95.00,163.51,1
120.00,164.32,1
126.00,163.32,1
115.00,161.18,1
178.00,158.64,1
51.00,155.78,1
69.00,151.35,1
98.00,145.36,1
413.00,141.64,1
324.00,144.40,1
100.00,151.30,1
107.00,156.75,1
140.00,159.46,1
64.00,159.98,1
120.00,158.30,1
120.00,155.31,1
141.00,152.04,1
250.00,149.92,1
404.00,151.99,1
251.00,159.46,1
191.00,168.95,1
61.00,176.32,1
102.00,179.45,1
144.00,179.25,1
62.00,176.92,1
177.00,172.99,1
66.00,168.25,1
709.00,167.51,1
201.00,175.42,1
79.00,185.46,1
96.00,190.69,1
73.00,191.21,1
87.00,187.98,1
192.00,182.95,1
56.00,177.42,1
311.00,172.45,1
90.00,169.32,1
167.00,166.78,1
100.00,163.67,1
261.00,161.09,1
89.00,159.67,1
67.00,157.50,1
44.00,152.81,1
225.00,147.33,1
162.00,143.71,1
263.00,142.92,1
78.00,143.94,1
273.00,145.66,1
103.00,148.18,1
150.00,150.39,1
293.00,152.85,1
273.00,158.00,1
447.00,167.36,1
297.00,181.01,1
422.00,197.51,1
186.00,214.50,1
87.00,227.57,1
127.00,234.02,1
89.00,234.73,1
122.00,230.95,1
132.00,224.27,1
173.00,216.41,1
500.00,211.39,1
128.00,211.37,1
90.00,211.36,1
151.00,208.13,1
401.00,205.35,1
430.00,207.95,1
296.00,216.00,1
215.00,225.20,1
389.00,233.96,1
380.00,244.21,1
290.00,255.84,1
203.00,265.84,1
195.00,272.00,1
292.00,274.99,1
388.00,277.82,1
196.00,281.23,1
178.00,282.41,1
579.00,283.32,1
311.00,288.30,1
471.00,296.34,1
674.00,308.66,1
366.00,325.88,1
317.00,342.42,1
205.00,353.62,1
184.00,357.91,1
146.00,355.33,1
123.00,346.61,1
194.00,333.25,1
185.00,317.86,1
373.00,303.40,1
224.00,291.93,1
283.00,282.68,1
193.00,274.44,1
380.00,267.77,1
209.00,263.44,1
311.00,260.62,1
378.00,259.87,1
384.00,262.73,1
166.00,267.06,1
446.00,271.13,1
324.00,276.72,1
378.00,283.98,1
223.00,290.88,1
391.00,296.55,1
383.00,302.54,1
255.00,308.76,1
221.00,312.49,1
331.00,313.50,1
170.00,312.60,1
204.00,308.79,1
224.00,302.26,1
195.00,294.28,1
173.00,285.00,1
244.00,274.98,1
158.00,265.05,1
143.00,254.54,1
212.00,243.52,1
168.00,233.17,1
160.00,223.44,1
127.00,213.71,1
270.00,204.91,1
323.00,199.62,1
217.00,198.42,1
341.00,200.02,1
118.00,203.04,1
281.00,205.71,1
194.00,208.17,1
340.00,211.49,1
100.00,215.08,1
208.00,216.88,1
261.00,217.50,1
200.00,218.47,1
242.00,219.45,1
254.00,220.69,1
