40.00,39.40,0
40.00,39.47,0
40.00,39.54,0
40.00,39.62,0
38.00,39.67,0
40.00,39.68,0
39.00,39.68,0
40.00,39.67,0
40.00,39.67,0
36.00,39.65,0
40.00,39.57,0
40.00,39.50,0
40.00,39.46,0
39.00,39.44,0
39.00,39.42,0
40.00,39.39,0
40.00,39.39,0
38.00,39.39,0
39.00,39.37,0
40.00,39.34,0
41.00,39.34,0
42.00,39.39,0
44.00,39.53,0
39.00,39.72,0
40.00,39.90,0
40.00,40.02,0
42.00,40.14,0
40.00,40.25,0
40.00,40.34,0
42.00,40.42,0
40.00,40.50,0
40.00,40.56,0
38.00,40.57,0
40.00,40.52,0
40.00,40.45,0
40.00,40.39,0
38.00,40.31,0
39.00,40.20,0
39.00,40.06,0
43.00,39.96,0
40.00,39.92,0
40.00,39.92,0
40.00,39.93,0
38.00,39.91,0
38.00,39.86,0
42.00,39.79,0
38.00,39.74,0
41.00,39.70,0
40.00,39.69,0
40.00,39.69,0
39.00,39.70,0
41.00,39.71,0
40.00,39.73,0
40.00,39.76,0
43.00,39.82,0
39.00,39.92,0
40.00,40.00,0
40.00,40.05,0
40.00,40.09,0
40.00,40.12,0
39.00,40.12,0
39.00,40.10,0
40.00,40.06,0
40.00,40.01,0
40.00,39.98,0
40.00,39.95,0
40.00,39.93,0
40.00,39.92,0
41.00,39.93,0
42.00,39.96,0
40.00,40.03,0
38.00,40.09,0
40.00,40.09,0
40.00,40.07,0
38.00,40.04,0
43.00,40.01,0
39.00,40.01,0
40.00,40.02,0
39.00,40.00,0
40.00,39.98,0
44.00,39.99,0
38.00,40.04,0
40.00,40.08,0
40.00,40.09,0
39.00,40.09,0
40.00,40.07,0
43.00,40.07,0
41.00,40.12,0
40.00,40.20,0
40.00,40.26,0
40.00,40.30,0
40.00,40.32,0
40.00,40.32,0
37.00,40.29,0
40.00,40.21,0
40.00,40.11,0
39.00,40.03,0
40.00,39.94,0
40.00,39.88,0
40.00,39.83,0
40.00,39.80,0
40.00,39.78,0
40.00,39.77,0
40.00,39.78,0
36.00,39.75,0
39.00,39.67,0
39.00,39.56,0
40.00,39.47,0
40.00,39.40,0
41.00,39.38,0
43.00,39.43,0
41.00,39.55,0
40.00,39.70,0
40.00,39.83,0
39.00,39.92,0
38.00,39.97,0
40.00,39.96,0
44.00,39.97,0
40.00,40.05,0
40.00,40.14,0
40.00,40.20,0
43.00,40.27,0
40.00,40.36,0
40.00,40.44,0
38.00,40.47,0
40.00,40.44,0
40.00,40.39,0
40.00,40.34,0
40.00,40.29,0
42.00,40.26,0
40.00,40.26,0
40.00,40.27,0
44.00,40.30,0
39.00,40.37,0
40.00,40.43,0
40.00,40.45,0
40.00,40.45,0
40.00,40.44,0
40.00,40.41,0
40.00,40.38,0
42.00,40.36,0
39.00,40.36,0
40.00,40.34,0
39.00,40.31,0
41.00,40.26,0
41.00,40.23,0
38.00,40.21,0
40.00,40.16,0
41.00,40.11,0
40.00,40.09,0
38.00,40.06,0
40.00,40.00,0
40.00,39.94,0
40.00,39.90,0
40.00,39.87,0
41.00,39.86,0
40.00,39.87,0
40.00,39.89,0
39.00,39.90,0
40.00,39.90,0
39.00,39.88,0
39.00,39.85,0
40.00,39.81,0
40.00,39.77,0
40.00,39.75,0
41.00,39.75,0
40.00,39.78,0
40.00,39.81,0
39.00,39.84,0
40.00,39.85,0
39.00,39.84,0
40.00,39.82,0
39.00,39.80,0
40.00,39.77,0
40.00,39.75,0
38.00,39.73,0
42.00,39.70,0
40.00,39.71,0
40.00,39.74,0
43.00,39.80,0
40.00,39.90,0
39.00,39.99,0
40.00,40.05,0
40.00,40.08,0
40.00,40.11,0
40.00,40.12,0
39.00,40.12,0
40.00,40.10,0
40.00,40.07,0
40.00,40.05,0
40.00,40.03,0
40.00,40.01,0
41.00,40.01,0
40.00,40.02,0
40.00,40.04,0
40.00,40.05,0
40.00,40.06,0
40.00,40.06,0
41.00,40.07,0
40.00,40.09,0
43.00,40.14,0
39.00,40.21,0
40.00,40.26,0
40.00,40.29,0
38.00,40.28,0
41.00,40.24,0
39.00,40.20,0
40.00,40.15,0
38.00,40.08,0
43.00,40.02,0
40.00,40.00,0
38.00,40.00,0
40.00,39.96,0
40.00,39.92,0
40.00,39.89,0
40.00,39.87,0
40.00,39.86,0
40.00,39.86,0
40.00,39.86,0
40.00,39.87,0
39.00,39.87,0
40.00,39.86,0
40.00,39.84,0
40.00,39.84,0
38.00,39.83,0
39.00,39.78,0
40.00,39.72,0
41.00,39.68,0
40.00,39.68,0
40.00,39.70,0
40.00,39.72,0
44.00,39.78,0
43.00,39.93,0
44.00,40.15,0
43.00,40.44,0
40.00,40.72,0
43.00,40.96,0
40.00,41.17,0
38.00,41.29,0
40.00,41.31,0
43.00,41.29,0
39.00,41.27,0
40.00,41.22,0
40.00,41.14,0
39.00,41.03,0
40.00,40.89,0
40.00,40.75,0
40.00,40.62,0
38.00,40.48,0
38.00,40.32,0
40.00,40.13,0
40.00,39.96,0
41.00,39.85,0
39.00,39.77,0
36.00,39.68,0
43.00,39.57,0
40.00,39.52,0
38.00,39.51,0
41.00,39.49,0
39.00,39.48,0
40.00,39.49,0
40.00,39.50,0
40.00,39.52,0
39.00,39.55,0
40.00,39.57,0
40.00,39.59,0
40.00,39.62,0
35.00,39.61,0
41.00,39.54,0
40.00,39.48,0
41.00,39.47,0
40.00,39.49,0
40.00,39.54,0
40.00,39.59,0
40.00,39.64,0
43.00,39.71,0
40.00,39.83,0
40.00,39.95,0
40.00,40.04,0
40.00,40.11,0
40.00,40.16,0
40.00,40.19,0
40.00,40.21,0
40.00,40.21,0
43.00,40.24,0
40.00,40.29,0
39.00,40.35,0
40.00,40.36,0
39.00,40.34,0
44.00,40.33,0
38.00,40.35,0
38.00,40.34,0
40.00,40.27,0
38.00,40.18,0
40.00,40.07,0
40.00,39.96,0
40.00,39.89,0
42.00,39.85,0
38.00,39.84,0
40.00,39.82,0
43.00,39.83,0
43.00,39.91,0
39.00,40.04,0
40.00,40.14,0
40.00,40.21,0
39.00,40.25,0
40.00,40.25,0
40.00,40.24,0
40.00,40.22,0
40.00,40.20,0
40.00,40.17,0
40.00,40.15,0
40.00,40.13,0
39.00,40.10,0
40.00,40.06,0
43.00,40.04,0
41.00,40.08,0
39.00,40.14,0
41.00,40.19,0
40.00,40.22,0
40.00,40.25,0
40.00,40.26,0
43.00,40.29,0
41.00,40.36,0
39.00,40.43,0
39.00,40.45,0
44.00,40.46,0
40.00,40.51,0
40.00,40.57,0
40.00,40.59,0
40.00,40.59,0
40.00,40.57,0
40.00,40.54,0
41.00,40.50,0
40.00,40.47,0
40.00,40.44,0
39.00,40.40,0
43.00,40.36,0
43.00,40.39,0
41.00,40.48,0
39.00,40.56,0
41.00,40.61,0
40.00,40.63,0
39.00,40.63,0
40.00,40.59,0
40.00,40.53,0
38.00,40.45,0
41.00,40.35,0
39.00,40.26,0
39.00,40.16,0
40.00,40.06,0
40.00,39.97,0
40.00,39.90,0
40.00,39.85,0
40.00,39.82,0
41.00,39.81,0
40.00,39.83,0
40.00,39.85,0
35.00,39.84,0
40.00,39.75,0
40.00,39.65,0
40.00,39.58,0
37.00,39.52,0
40.00,39.44,0
40.00,39.37,0
38.00,39.33,0
40.00,39.28,0
38.00,39.24,0
40.00,39.20,0
43.00,39.20,0
40.00,39.28,0
40.00,39.38,0
40.00,39.49,0
39.00,39.57,0
40.00,39.64,0
40.00,39.69,0
44.00,39.77,0
40.00,39.91,0
42.00,40.06,0
40.00,40.21,0
40.00,40.34,0
40.00,40.42,0
40.00,40.47,0
39.00,40.48,0
38.00,40.44,0
40.00,40.36,0
40.00,40.26,0
40.00,40.18,0
41.00,40.13,0
40.00,40.09,0
43.00,40.10,0
40.00,40.15,0
38.00,40.19,0
40.00,40.18,0
39.00,40.15,0
40.00,40.10,0
40.00,40.05,0
40.00,40.01,0
43.00,40.01,0
39.00,40.04,0
40.00,40.08,0
39.00,40.09,0
37.00,40.05,0
40.00,39.96,0
35.00,39.83,0
40.00,39.65,0
40.00,39.49,0
40.00,39.38,0
39.00,39.31,0
41.00,39.27,0
43.00,39.30,0
41.00,39.41,0
40.00,39.55,0
38.00,39.67,0
39.00,39.73,0
39.00,39.74,0
44.00,39.77,0
39.00,39.84,0
39.00,39.92,0
43.00,39.97,0
40.00,40.06,0
39.00,40.14,0
41.00,40.19,0
41.00,40.23,0
40.00,40.29,0
40.00,40.33,0
40.00,40.34,0
40.00,40.35,0
40.00,40.34,0
38.00,40.30,0
40.00,40.23,0
40.00,40.16,0
39.00,40.09,0
40.00,40.01,0
41.00,39.95,0
40.00,39.93,0
39.00,39.91,0
40.00,39.89,0
39.00,39.85,0
39.00,39.81,0
39.00,39.75,0
43.00,39.71,0
44.00,39.77,0
40.00,39.91,0
42.00,40.07,0
42.00,40.23,0
40.00,40.40,0
41.00,40.54,0
40.00,40.65,0
40.00,40.72,0
40.00,40.74,0
40.00,40.74,0
40.00,40.71,0
40.00,40.67,0
40.00,40.61,0
40.00,40.55,0
43.00,40.51,0
40.00,40.51,0
40.00,40.52,0
40.00,40.51,0
40.00,40.48,0
36.00,40.42,0
39.00,40.28,0
44.00,40.15,0
43.00,40.12,0
39.00,40.18,0
38.00,40.20,0
41.00,40.18,0
35.00,40.12,0
41.00,40.00,0
39.00,39.88,0
40.00,39.78,0
40.00,39.71,0
43.00,39.69,0
40.00,39.73,0
40.00,39.80,0
39.00,39.85,0
40.00,39.87,0
40.00,39.89,0
40.00,39.90,0
40.00,39.92,0
40.00,39.93,0
40.00,39.95,0
40.00,39.96,0
39.00,39.96,0
40.00,39.95,0
40.00,39.93,0
40.00,39.92,0
40.00,39.91,0
42.00,39.93,0
40.00,39.97,0
40.00,40.03,0
40.00,40.07,0
40.00,40.09,0
40.00,40.11,0
39.00,40.11,0
40.00,40.10,0
39.00,40.06,0
43.00,40.04,0
39.00,40.06,0
40.00,40.08,0
39.00,40.07,0
38.00,40.03,0
40.00,39.96,0
40.00,39.89,0
40.00,39.84,0
40.00,39.81,0
41.00,39.80,0
40.00,39.81,0
40.00,39.84,0
40.00,39.87,0
43.00,39.91,0
40.00,40.00,0
41.00,40.10,0
40.00,40.19,0
40.00,40.26,0
40.00,40.31,0
40.00,40.33,0
40.00,40.34,0
40.00,40.33,0
40.00,40.32,0
40.00,40.29,0
40.00,40.27,0
40.00,40.24,0
40.00,40.21,0
40.00,40.18,0
40.00,40.15,0
44.00,40.16,0
39.00,40.22,0
40.00,40.27,0
38.00,40.28,0
41.00,40.25,0
40.00,40.22,0
40.00,40.20,0
41.00,40.18,0
40.00,40.18,0
40.00,40.18,0
44.00,40.21,0
39.00,40.28,0
43.00,40.37,0
40.00,40.47,0
41.00,40.56,0
37.00,40.60,0
39.00,40.56,0
41.00,40.48,0
44.00,40.45,0
40.00,40.48,0
39.00,40.51,0
43.00,40.53,0
39.00,40.56,0
40.00,40.57,0
40.00,40.55,0
40.00,40.52,0
38.00,40.46,0
40.00,40.37,0
38.00,40.25,0
41.00,40.13,0
40.00,40.03,0
38.00,39.95,0
40.00,39.86,0
40.00,39.77,0
40.00,39.72,0
42.00,39.70,0
40.00,39.73,0
40.00,39.78,0
40.00,39.82,0
40.00,39.86,0
40.00,39.90,0
43.00,39.95,0
38.00,40.03,0
40.00,40.08,0
38.00,40.08,0
40.00,40.04,0
40.00,40.00,0
40.00,39.97,0
40.00,39.94,0
39.00,39.92,0
40.00,39.88,0
40.00,39.85,0
40.00,39.84,0
40.00,39.83,0
40.00,39.83,0
39.00,39.83,0
41.00,39.82,0
40.00,39.83,0
40.00,39.85,0
37.00,39.85,0
41.00,39.81,0
40.00,39.78,0
43.00,39.80,0
40.00,39.87,0
40.00,39.95,0
43.00,40.04,0
40.00,40.15,0
39.00,40.25,0
40.00,40.30,0
41.00,40.33,0
41.00,40.36,0
40.00,40.40,0
38.00,40.41,0
39.00,40.37,0
40.00,40.28,0
39.00,40.20,0
40.00,40.11,0
40.00,40.03,0
41.00,39.97,0
40.00,39.95,0
40.00,39.94,0
40.00,39.94,0
40.00,39.94,0
40.00,39.94,0
38.00,39.93,0
44.00,39.92,0
39.00,39.96,0
40.00,40.00,0
40.00,40.03,0
40.00,40.05,0
40.00,40.06,0
40.00,40.07,0
40.00,40.07,0
40.00,40.07,0
41.00,40.08,0
40.00,40.10,0
40.00,40.12,0
40.00,40.13,0
40.00,40.13,0
41.00,40.14,0
40.00,40.16,0
44.00,40.21,0
40.00,40.30,0
40.00,40.40,0
40.00,40.46,0
40.00,40.49,0
43.00,40.52,0
39.00,40.57,0
40.00,40.59,0
40.00,40.59,0
40.00,40.56,0
38.00,40.51,0
40.00,40.42,0
39.00,40.31,0
40.00,40.20,0
40.00,40.10,0
40.00,40.02,0
39.00,39.96,0
40.00,39.89,0
38.00,39.82,0
40.00,39.74,0
40.00,39.67,0
40.00,39.62,0
43.00,39.63,0
38.00,39.68,0
38.00,39.70,0
40.00,39.68,0
40.00,39.66,0
40.00,39.65,0
40.00,39.66,0
40.00,39.67,0
40.00,39.70,0
43.00,39.75,0
41.00,39.86,0
39.00,39.98,0
40.00,40.06,0
40.00,40.11,0
38.00,40.13,0
40.00,40.11,0
39.00,40.06,0
40.00,40.01,0
40.00,39.96,0
40.00,39.92,0
39.00,39.89,0
36.00,39.82,0
40.00,39.70,0
40.00,39.58,0
44.00,39.54,0
38.00,39.57,0
40.00,39.61,0
39.00,39.63,0
40.00,39.64,0
43.00,39.68,0
40.00,39.76,0
39.00,39.85,0
40.00,39.91,0
40.00,39.95,0
41.00,39.99,0
38.00,40.02,0
44.00,40.05,0
40.00,40.12,0
44.00,40.24,0
40.00,40.38,0
43.00,40.54,0
41.00,40.70,0
39.00,40.83,0
40.00,40.89,0
39.00,40.90,0
40.00,40.85,0
40.00,40.78,0
40.00,40.70,0
40.00,40.62,0
39.00,40.53,0
43.00,40.45,0
40.00,40.42,0
40.00,40.40,0
40.00,40.38,0
39.00,40.34,0
41.00,40.29,0
43.00,40.27,0
42.00,40.33,0
37.00,40.39,0
40.00,40.40,0
44.00,40.39,0
38.00,40.43,0
40.00,40.44,0
44.00,40.45,0
39.00,40.50,0
40.00,40.54,0
34.00,40.49,0
40.00,40.34,0
40.00,40.17,0
40.00,40.03,0
40.00,39.92,0
38.00,39.83,0
40.00,39.73,0
40.00,39.65,0
40.00,39.59,0
40.00,39.57,0
40.00,39.56,0
40.00,39.57,0
42.00,39.61,0
39.00,39.68,0
40.00,39.74,0
40.00,39.79,0
40.00,39.83,0
39.00,39.86,0
40.00,39.87,0
39.00,39.87,0
39.00,39.84,0
38.00,39.79,0
40.00,39.71,0
43.00,39.68,0
40.00,39.71,0
38.00,39.75,0
40.00,39.75,0
40.00,39.75,0
40.00,39.76,0
40.00,39.77,0
43.00,39.81,0
40.00,39.90,0
40.00,39.99,0
41.00,40.07,0
40.00,40.15,0
39.00,40.20,0
40.00,40.22,0
40.00,40.21,0
39.00,40.20,0
39.00,40.15,0
40.00,40.09,0
40.00,40.03,0
40.00,39.98,0
40.00,39.95,0
41.00,39.93,0
40.00,39.94,0
42.00,39.97,0
41.00,40.04,0
40.00,40.12,0
41.00,40.19,0
39.00,40.25,0
40.00,40.28,0
40.00,40.28,0
42.00,40.30,0
38.00,40.31,0
39.00,40.29,0
40.00,40.23,0
40.00,40.16,0
40.00,40.11,0
40.00,40.07,0
39.00,40.03,0
40.00,39.97,0
40.00,39.93,0
41.00,39.90,0
40.00,39.91,0
40.00,39.92,0
40.00,39.93,0
40.00,39.94,0
42.00,39.97,0
40.00,40.02,0
39.00,40.07,0
39.00,40.08,0
40.00,40.06,0
40.00,40.04,0
40.00,40.02,0
40.00,40.00,0
39.00,39.98,0
39.00,39.94,0
41.00,39.90,0
39.00,39.87,0
40.00,39.84,0
40.00,39.81,0
43.00,39.83,0
40.00,39.89,0
40.00,39.97,0
39.00,40.02,0
40.00,40.05,0
40.00,40.05,0
40.00,40.06,0
40.00,40.06,0
40.00,40.06,0
38.00,40.04,0
40.00,39.99,0
38.00,39.92,0
43.00,39.86,0
40.00,39.85,0
40.00,39.88,0
40.00,39.90,0
40.00,39.92,0
40.00,39.94,0
40.00,39.95,0
43.00,39.99,0
40.00,40.07,0
39.00,40.14,0
40.00,40.18,0
44.00,40.22,0
40.00,40.32,0
41.00,40.42,0
39.00,40.49,0
40.00,40.52,0
40.00,40.52,0
40.00,40.50,0
40.00,40.47,0
40.00,40.43,0
43.00,40.41,0
40.00,40.43,0
40.00,40.46,0
40.00,40.46,0
40.00,40.45,0
40.00,40.43,0
40.00,40.40,0
39.00,40.35,0
40.00,40.29,0
39.00,40.21,0
40.00,40.13,0
40.00,40.06,0
40.00,40.00,0
41.00,39.97,0
44.00,39.99,0
40.00,40.08,0
40.00,40.18,0
40.00,40.25,0
43.00,40.32,0
40.00,40.42,0
42.00,40.51,0
40.00,40.60,0
40.00,40.67,0
39.00,40.69,0
42.00,40.68,0
40.00,40.68,0
40.00,40.67,0
40.00,40.64,0
40.00,40.60,0
40.00,40.54,0
39.00,40.48,0
39.00,40.39,0
40.00,40.28,0
40.00,40.18,0
40.00,40.10,0
40.00,40.04,0
38.00,39.97,0
35.00,39.85,0
40.00,39.66,0
40.00,39.48,0
40.00,39.37,0
41.00,39.31,0
38.00,39.29,0
40.00,39.27,0
40.00,39.27,0
39.00,39.28,0
40.00,39.30,0
40.00,39.32,0
39.00,39.36,0
41.00,39.40,0
38.00,39.44,0
44.00,39.50,0
39.00,39.60,0
39.00,39.70,0
39.00,39.75,0
39.00,39.77,0
39.00,39.75,0
40.00,39.73,0
39.00,39.70,0
40.00,39.67,0
40.00,39.65,0
43.00,39.67,0
42.00,39.77,0
41.00,39.91,0
38.00,40.04,0
38.00,40.10,0
40.00,40.09,0
35.00,40.02,0
40.00,39.89,0
40.00,39.75,0
43.00,39.67,0
42.00,39.70,0
40.00,39.78,0
40.00,39.87,0
40.00,39.94,0
42.00,40.01,0
40.00,40.10,0
39.00,40.17,0
40.00,40.20,0
40.00,40.21,0
40.00,40.21,0
39.00,40.20,0
44.00,40.20,0
39.00,40.24,0
41.00,40.29,0
39.00,40.32,0
40.00,40.32,0
40.00,40.30,0
43.00,40.30,0
40.00,40.34,0
40.00,40.39,0
38.00,40.39,0
40.00,40.35,0
39.00,40.28,0
44.00,40.24,0
38.00,40.23,0
40.00,40.23,0
40.00,40.20,0
40.00,40.17,0
40.00,40.14,0
40.00,40.11,0
40.00,40.09,0
40.00,40.07,0
40.00,40.05,0
42.00,40.05,0
38.00,40.07,0
40.00,40.06,0
41.00,40.04,0
43.00,40.07,0
40.00,40.15,0
39.00,40.22,0
41.00,40.26,0
40.00,40.29,0
44.00,40.34,0
41.00,40.44,0
40.00,40.56,0
39.00,40.62,0
40.00,40.64,0
38.00,40.60,0
40.00,40.52,0
40.00,40.43,0
40.00,40.34,0
39.00,40.26,0
40.00,40.17,0
43.00,40.11,0
40.00,40.12,0
40.00,40.14,0
36.00,40.12,0
44.00,40.06,0
40.00,40.06,0
43.00,40.10,0
40.00,40.19,0
40.00,40.27,0
40.00,40.32,0
40.00,40.35,0
40.00,40.36,0
40.00,40.36,0
38.00,40.33,0
40.00,40.26,0
40.00,40.18,0
41.00,40.13,0
38.00,40.08,0
41.00,40.02,0
38.00,39.97,0
40.00,39.90,0
41.00,39.84,0
40.00,39.82,0
39.00,39.81,0
40.00,39.79,0
38.00,39.76,0
40.00,39.71,0
41.00,39.67,0
43.00,39.70,0
40.00,39.79,0
40.00,39.88,0
43.00,39.99,0
40.00,40.11,0
44.00,40.27,0
40.00,40.44,0
39.00,40.58,0
39.00,40.64,0
40.00,40.64,0
40.00,40.62,0
40.00,40.57,0
39.00,40.52,0
40.00,40.44,0
39.00,40.35,0
40.00,40.25,0
40.00,40.16,0
39.00,40.08,0
39.00,39.99,0
39.00,39.89,0
39.00,39.78,0
41.00,39.69,0
40.00,39.64,0
40.00,39.62,0
40.00,39.62,0
40.00,39.63,0
40.00,39.66,0
41.00,39.69,0
40.00,39.74,0
40.00,39.80,0
39.00,39.84,0
40.00,39.86,0
40.00,39.88,0
40.00,39.89,0
39.00,39.90,0
40.00,39.89,0
39.00,39.87,0
40.00,39.84,0
40.00,39.82,0
39.00,39.80,0
40.00,39.77,0
42.00,39.77,0
45.00,39.85,0
40.00,40.01,0
39.00,40.17,0
40.00,40.27,0
40.00,40.32,0
40.00,40.36,0
41.00,40.38,0
39.00,40.39,0
39.00,40.37,0
40.00,40.32,0
40.00,40.26,0
40.00,40.20,0
40.00,40.16,0
40.00,40.12,0
40.00,40.08,0
40.00,40.05,0
39.00,40.02,0
40.00,39.98,0
40.00,39.94,0
39.00,39.90,0
40.00,39.86,0
39.00,39.82,0
40.00,39.78,0
40.00,39.74,0
40.00,39.73,0
38.00,39.71,0
38.00,39.65,0
38.00,39.55,0
40.00,39.45,0
41.00,39.37,0
40.00,39.36,0
40.00,39.37,0
40.00,39.40,0
40.00,39.45,0
38.00,39.48,0
44.00,39.53,0
40.00,39.63,0
41.00,39.76,0
40.00,39.88,0
40.00,39.98,0
40.00,40.06,0
40.00,40.12,0
40.00,40.16,0
40.00,40.19,0
40.00,40.20,0
40.00,40.21,0
39.00,40.19,0
40.00,40.16,0
38.00,40.11,0
41.00,40.04,0
40.00,39.98,0
40.00,39.95,0
40.00,39.93,0
40.00,39.91,0
40.00,39.90,0
39.00,39.89,0
40.00,39.87,0
40.00,39.85,0
40.00,39.84,0
40.00,39.84,0
40.00,39.84,0
40.00,39.85,0
36.00,39.83,0
40.00,39.75,0
39.00,39.66,0
39.00,39.57,0
40.00,39.50,0
39.00,39.44,0
40.00,39.40,0
39.00,39.38,0
43.00,39.38,0
39.00,39.44,0
40.00,39.51,0
40.00,39.58,0
40.00,39.64,0
40.00,39.70,0
40.00,39.75,0
40.00,39.80,0
40.00,39.84,0
41.00,39.89,0
43.00,39.97,0
38.00,40.08,0
38.00,40.13,0
41.00,40.12,0
40.00,40.11,0
40.00,40.11,0
39.00,40.10,0
40.00,40.07,0
40.00,40.04,0
43.00,40.03,0
40.00,40.08,0
40.00,40.14,0
40.00,40.18,0
40.00,40.20,0
40.00,40.21,0
40.00,40.22,0
39.00,40.20,0
41.00,40.18,0
39.00,40.15,0
40.00,40.12,0
40.00,40.08,0
40.00,40.05,0
38.00,40.01,0
40.00,39.94,0
38.00,39.86,0
40.00,39.77,0
40.00,39.70,0
40.00,39.65,0
40.00,39.62,0
40.00,39.62,0
39.00,39.61,0
40.00,39.61,0
39.00,39.60,0
38.00,39.58,0
40.00,39.53,0
38.00,39.48,0
40.00,39.42,0
43.00,39.41,0
40.00,39.47,0
38.00,39.53,0
43.00,39.59,0
40.00,39.69,0
39.00,39.78,0
40.00,39.85,0
41.00,39.90,0
40.00,39.96,0
42.00,40.03,0
39.00,40.11,0
40.00,40.17,0
40.00,40.20,0
40.00,40.21,0
40.00,40.22,0
41.00,40.22,0
40.00,40.23,0
40.00,40.24,0
40.00,40.24,0
40.00,40.24,0
40.00,40.22,0
40.00,40.20,0
40.00,40.18,0
40.00,40.16,0
40.00,40.14,0
40.00,40.12,0
38.00,40.08,0
40.00,40.02,0
40.00,39.95,0
41.00,39.91,0
40.00,39.90,0
40.00,39.91,0
40.00,39.91,0
40.00,39.92,0
40.00,39.93,0
42.00,39.95,0
42.00,40.02,0
40.00,40.12,0
40.00,40.21,0
35.00,40.23,0
40.00,40.16,0
43.00,40.08,0
38.00,40.05,0
39.00,40.01,0
39.00,39.94,0
40.00,39.86,0
40.00,39.80,0
40.00,39.75,0
40.00,39.73,0
40.00,39.72,0
41.00,39.73,0
43.00,39.79,0
38.00,39.88,0
40.00,39.95,0
40.00,39.99,0
41.00,40.02,0
40.00,40.06,0
40.00,40.10,0
34.00,40.08,0
40.00,39.96,0
40.00,39.82,0
40.00,39.72,0
40.00,39.65,0
41.00,39.62,0
39.00,39.62,0
39.00,39.61,0
40.00,39.60,0
41.00,39.60,0
38.00,39.61,0
41.00,39.62,0
40.00,39.64,0
40.00,39.67,0
40.00,39.71,0
38.00,39.73,0
40.00,39.72,0
40.00,39.71,0
43.00,39.73,0
40.00,39.81,0
40.00,39.90,0
39.00,39.96,0
40.00,39.99,0
36.00,39.98,0
40.00,39.90,0
40.00,39.81,0
38.00,39.73,0
40.00,39.65,0
43.00,39.61,0
40.00,39.64,0
40.00,39.70,0
40.00,39.75,0
38.00,39.79,0
39.00,39.78,0
40.00,39.75,0
38.00,39.71,0
41.00,39.66,0
39.00,39.63,0
40.00,39.61,0
39.00,39.59,0
41.00,39.58,0
40.00,39.59,0
40.00,39.63,0
44.00,39.70,0
39.00,39.82,0
40.00,39.93,0
40.00,40.01,0
40.00,40.08,0
39.00,40.11,0
40.00,40.12,0
41.00,40.12,0
38.00,40.12,0
35.00,40.04,0
40.00,39.89,0
40.00,39.73,0
40.00,39.62,0
40.00,39.55,0
41.00,39.52,0
40.00,39.53,0
40.00,39.56,0
43.00,39.62,0
39.00,39.72,0
40.00,39.82,0
40.00,39.89,0
35.00,39.90,0
40.00,39.83,0
40.00,39.75,0
40.00,39.69,0
39.00,39.65,0
36.00,39.58,0
39.00,39.46,0
40.00,39.33,0
40.00,39.25,0
40.00,39.22,0
40.00,39.21,0
39.00,39.23,0
39.00,39.24,0
38.00,39.24,0
40.00,39.22,0
40.00,39.21,0
43.00,39.25,0
43.00,39.39,0
40.00,39.58,0
40.00,39.77,0
40.00,39.92,0
40.00,40.04,0
39.00,40.12,0
38.00,40.14,0
41.00,40.12,0
40.00,40.10,0
40.00,40.09,0
40.00,40.08,0
40.00,40.07,0
37.00,40.04,0
39.00,39.95,0
40.00,39.85,0
40.00,39.76,0
39.00,39.70,0
41.00,39.65,0
40.00,39.64,0
39.00,39.64,0
39.00,39.63,0
43.00,39.63,0
40.00,39.68,0
43.00,39.79,0
40.00,39.92,0
39.00,40.04,0
39.00,40.11,0
40.00,40.13,0
40.00,40.14,0
40.00,40.13,0
38.00,40.11,0
42.00,40.07,0
40.00,40.06,0
40.00,40.06,0
40.00,40.06,0
40.00,40.06,0
39.00,40.05,0
40.00,40.02,0
40.00,39.99,0
39.00,39.96,0
39.00,39.92,0
38.00,39.84,0
40.00,39.75,0
40.00,39.67,0
40.00,39.62,0
38.00,39.58,0
44.00,39.56,0
39.00,39.61,0
41.00,39.68,0
39.00,39.74,0
39.00,39.78,0
38.00,39.78,0
40.00,39.74,0
40.00,39.71,0
40.00,39.69,0
40.00,39.69,0
40.00,39.70,0
40.00,39.71,0
40.00,39.73,0
40.00,39.76,0
40.00,39.79,0
39.00,39.81,0
43.00,39.83,0
40.00,39.90,0
39.00,39.98,0
40.00,40.01,0
40.00,40.04,0
40.00,40.05,0
40.00,40.06,0
40.00,40.07,0
40.00,40.07,0
40.00,40.07,0
39.00,40.06,0
41.00,40.04,0
43.00,40.05,0
40.00,40.12,0
48.00,40.26,0
44.00,40.53,0
40.00,40.84,0
41.00,41.09,0
39.00,41.26,0
40.00,41.33,0
43.00,41.36,0
40.00,41.39,0
38.00,41.37,0
39.00,41.27,0
40.00,41.12,0
39.00,40.95,0
40.00,40.78,0
40.00,40.61,0
40.00,40.46,0
40.00,40.33,0
41.00,40.23,0
40.00,40.17,0
40.00,40.12,0
40.00,40.08,0
40.00,40.05,0
43.00,40.04,0
39.00,40.08,0
36.00,40.08,0
40.00,40.01,0
40.00,39.92,0
39.00,39.84,0
40.00,39.77,0
40.00,39.72,0
42.00,39.70,0
41.00,39.74,0
39.00,39.81,0
40.00,39.86,0
40.00,39.89,0
44.00,39.95,0
40.00,40.06,0
40.00,40.18,0
39.00,40.26,0
42.00,40.31,0
40.00,40.36,0
40.00,40.40,0
39.00,40.41,0
43.00,40.42,0
40.00,40.45,0
40.00,40.48,0
36.00,40.46,0
40.00,40.36,0
40.00,40.24,0
39.00,40.13,0
40.00,40.03,0
38.00,39.92,0
39.00,39.81,0
43.00,39.71,0
40.00,39.70,0
43.00,39.74,0
39.00,39.83,0
39.00,39.89,0
39.00,39.92,0
39.00,39.90,0
41.00,39.88,0
40.00,39.88,0
44.00,39.92,0
39.00,40.01,0
38.00,40.08,0
40.00,40.09,0
38.00,40.06,0
40.00,40.00,0
44.00,39.97,0
39.00,40.01,0
40.00,40.06,0
41.00,40.09,0
39.00,40.12,0
40.00,40.13,0
40.00,40.13,0
40.00,40.12,0
39.00,40.10,0
39.00,40.06,0
40.00,40.00,0
42.00,39.96,0
40.00,39.97,0
40.00,39.99,0
39.00,40.00,0
40.00,39.99,0
39.00,39.97,0
39.00,39.93,0
40.00,39.87,0
40.00,39.83,0
39.00,39.79,0
40.00,39.75,0
39.00,39.72,0
40.00,39.68,0
40.00,39.66,0
39.00,39.64,0
40.00,39.62,0
38.00,39.60,0
38.00,39.54,0
40.00,39.47,0
40.00,39.41,0
38.00,39.37,0
40.00,39.33,0
39.00,39.29,0
40.00,39.27,0
43.00,39.30,0
40.00,39.39,0
40.00,39.51,0
39.00,39.60,0
40.00,39.67,0
40.00,39.73,0
43.00,39.80,0
40.00,39.92,0
43.00,40.06,0
40.00,40.21,0
40.00,40.34,0
38.00,40.42,0
40.00,40.43,0
44.00,40.44,0
38.00,40.48,0
41.00,40.51,0
39.00,40.50,0
39.00,40.46,0
39.00,40.38,0
39.00,40.28,0
40.00,40.17,0
40.00,40.07,0
40.00,39.99,0
40.00,39.93,0
40.00,39.89,0
40.00,39.86,0
40.00,39.84,0
39.00,39.83,0
40.00,39.80,0
40.00,39.78,0
40.00,39.78,0
40.00,39.78,0
40.00,39.79,0
40.00,39.80,0
36.00,39.78,0
40.00,39.71,0
43.00,39.66,0
40.00,39.68,0
43.00,39.76,0
43.00,39.90,0
41.00,40.09,0
36.00,40.24,0
41.00,40.30,0
39.00,40.31,0
40.00,40.30,0
43.00,40.30,0
39.00,40.33,0
40.00,40.35,0
39.00,40.33,0
40.00,40.30,0
40.00,40.25,0
39.00,40.20,0
36.00,40.10,0
40.00,39.95,0
40.00,39.81,0
39.00,39.69,0
39.00,39.59,0
39.00,39.50,0
43.00,39.44,0
40.00,39.46,0
44.00,39.55,0
40.00,39.70,0
40.00,39.85,0
42.00,40.00,0
40.00,40.14,0
40.00,40.25,0
38.00,40.32,0
40.00,40.32,0
39.00,40.29,0
40.00,40.24,0
40.00,40.19,0
41.00,40.15,0
42.00,40.15,0
38.00,40.17,0
40.00,40.16,0
41.00,40.14,0
38.00,40.12,0
40.00,40.08,0
40.00,40.02,0
39.00,39.98,0
39.00,39.91,0
40.00,39.85,0
40.00,39.79,0
40.00,39.76,0
40.00,39.74,0
38.00,39.72,0
40.00,39.68,0
40.00,39.64,0
40.00,39.62,0
40.00,39.62,0
38.00,39.62,0
38.00,39.58,0
41.00,39.52,0
40.00,39.49,0
40.00,39.50,0
39.00,39.51,0
38.00,39.50,0
40.00,39.47,0
41.00,39.45,0
40.00,39.48,0
44.00,39.55,0
40.00,39.69,0
40.00,39.84,0
39.00,39.95,0
40.00,40.02,0
40.00,40.06,0
40.00,40.10,0
38.00,40.10,0
40.00,40.07,0
40.00,40.02,0
39.00,39.98,0
39.00,39.92,0
40.00,39.86,0
36.00,39.77,0
40.00,39.65,0
40.00,39.53,0
40.00,39.46,0
40.00,39.42,0
40.00,39.41,0
40.00,39.42,0
40.00,39.45,0
40.00,39.49,0
40.00,39.54,0
40.00,39.59,0
38.00,39.63,0
41.00,39.64,0
40.00,39.66,0
39.00,39.69,0
39.00,39.70,0
41.00,39.70,0
40.00,39.72,0
40.00,39.75,0
40.00,39.78,0
39.00,39.80,0
40.00,39.81,0
40.00,39.81,0
40.00,39.82,0
40.00,39.84,0
43.00,39.88,0
40.00,39.96,0
38.00,40.03,0
40.00,40.05,0
39.00,40.04,0
38.00,40.00,0
40.00,39.93,0
40.00,39.86,0
40.00,39.81,0
38.00,39.76,0
40.00,39.70,0
42.00,39.67,0
40.00,39.68,0
40.00,39.72,0
38.00,39.75,0
39.00,39.73,0
40.00,39.69,0
39.00,39.66,0
41.00,39.64,0
39.00,39.63,0
40.00,39.63,0
39.00,39.63,0
40.00,39.62,0
38.00,39.60,0
40.00,39.57,0
43.00,39.57,0
40.00,39.63,0
40.00,39.71,0
41.00,39.79,0
40.00,39.88,0
39.00,39.95,0
40.00,39.99,0
40.00,40.01,0
40.00,40.02,0
40.00,40.03,0
40.00,40.04,0
40.00,40.05,0
40.00,40.05,0
40.00,40.05,0
40.00,40.04,0
40.00,40.04,0
40.00,40.04,0
39.00,40.03,0
40.00,40.00,0
40.00,39.97,0
40.00,39.95,0
40.00,39.94,0
40.00,39.93,0
39.00,39.91,0
40.00,39.89,0
40.00,39.87,0
40.00,39.86,0
43.00,39.88,0
40.00,39.95,0
40.00,40.02,0
40.00,40.08,0
40.00,40.13,0
40.00,40.15,0
40.00,40.17,0
40.00,40.18,0
43.00,40.20,0
38.00,40.25,0
40.00,40.26,0
40.00,40.25,0
40.00,40.23,0
38.00,40.20,0
40.00,40.13,0
39.00,40.05,0
43.00,39.99,0
40.00,39.99,0
40.00,40.02,0
40.00,40.04,0
40.00,40.05,0
39.00,40.05,0
41.00,40.04,0
38.00,40.02,0
40.00,39.98,0
39.00,39.93,0
40.00,39.87,0
39.00,39.82,0
40.00,39.77,0
39.00,39.72,0
40.00,39.68,0
40.00,39.65,0
39.00,39.63,0
40.00,39.61,0
39.00,39.59,0
40.00,39.57,0
40.00,39.56,0
41.00,39.58,0
40.00,39.63,0
38.00,39.66,0
40.00,39.67,0
40.00,39.67,0
40.00,39.68,0
43.00,39.72,0
40.00,39.82,0
42.00,39.93,0
39.00,40.05,0
40.00,40.14,0
40.00,40.19,0
40.00,40.22,0
38.00,40.23,0
41.00,40.20,0
43.00,40.19,0
40.00,40.24,0
39.00,40.28,0
40.00,40.29,0
38.00,40.26,0
40.00,40.20,0
39.00,40.12,0
40.00,40.04,0
40.00,39.97,0
40.00,39.92,0
40.00,39.88,0
38.00,39.84,0
36.00,39.75,0
39.00,39.59,0
39.00,39.43,0
43.00,39.33,0
40.00,39.31,0
40.00,39.35,0
40.00,39.40,0
40.00,39.46,0
44.00,39.55,0
40.00,39.70,0
40.00,39.86,0
40.00,39.99,0
39.00,40.07,0
39.00,40.11,0
40.00,40.11,0
40.00,40.10,0
42.00,40.11,0
39.00,40.13,0
40.00,40.15,0
39.00,40.14,0
40.00,40.11,0
40.00,40.07,0
41.00,40.05,0
40.00,40.05,0
38.00,40.04,0
40.00,40.00,0
40.00,39.95,0
40.00,39.92,0
41.00,39.90,0
40.00,39.91,0
40.00,39.92,0
40.00,39.94,0
40.00,39.95,0
40.00,39.97,0
39.00,39.97,0
40.00,39.95,0
39.00,39.93,0
39.00,39.89,0
40.00,39.83,0
44.00,39.82,0
39.00,39.88,0
44.00,39.98,0
39.00,40.10,0
40.00,40.21,0
39.00,40.27,0
41.00,40.30,0
40.00,40.31,0
40.00,40.33,0
40.00,40.33,0
40.00,40.31,0
40.00,40.29,0
40.00,40.27,0
40.00,40.24,0
40.00,40.21,0
40.00,40.18,0
40.00,40.16,0
40.00,40.13,0
40.00,40.10,0
40.00,40.08,0
40.00,40.06,0
39.00,40.04,0
40.00,40.00,0
40.00,39.96,0
40.00,39.94,0
40.00,39.92,0
40.00,39.91,0
40.00,39.90,0
40.00,39.90,0
40.00,39.91,0
40.00,39.91,0
44.00,39.95,0
39.00,40.04,0
44.00,40.16,0
39.00,40.29,0
36.00,40.37,0
39.00,40.33,0
39.00,40.23,0
40.00,40.12,0
40.00,40.03,0
40.00,39.96,0
43.00,39.93,0
40.00,39.96,0
40.00,40.01,0
40.00,40.05,0
40.00,40.07,0
40.00,40.09,0
40.00,40.10,0
40.00,40.10,0
40.00,40.11,0
40.00,40.10,0
38.00,40.08,0
40.00,40.03,0
40.00,39.97,0
40.00,39.93,0
43.00,39.92,0
40.00,39.97,0
40.00,40.03,0
41.00,40.09,0
39.00,40.13,0
43.00,40.18,0
39.00,40.24,0
39.00,40.28,0
40.00,40.28,0
40.00,40.26,0
39.00,40.23,0
41.00,40.19,0
39.00,40.15,0
40.00,40.11,0
39.00,40.06,0
40.00,40.00,0
40.00,39.95,0
40.00,39.91,0
40.00,39.88,0
41.00,39.88,0
40.00,39.89,0
39.00,39.91,0
40.00,39.90,0
43.00,39.92,0
40.00,39.99,0
40.00,40.06,0
40.00,40.12,0
40.00,40.16,0
40.00,40.18,0
39.00,40.18,0
40.00,40.16,0
40.00,40.14,0
40.00,40.11,0
38.00,40.07,0
40.00,40.00,0
38.00,39.92,0
40.00,39.83,0
39.00,39.74,0
40.00,39.66,0
43.00,39.63,0
41.00,39.68,0
39.00,39.75,0
41.00,39.82,0
40.00,39.89,0
40.00,39.95,0
40.00,40.00,0
41.00,40.04,0
40.00,40.09,0
41.00,40.14,0
40.00,40.20,0
38.00,40.22,0
39.00,40.19,0
40.00,40.13,0
40.00,40.07,0
39.00,40.01,0
40.00,39.95,0
40.00,39.90,0
43.00,39.89,0
40.00,39.94,0
40.00,40.00,0
36.00,40.01,0
40.00,39.95,0
37.00,39.86,0
40.00,39.74,0
38.00,39.61,0
40.00,39.50,0
40.00,39.41,0
39.00,39.36,0
40.00,39.32,0
40.00,39.31,0
38.00,39.30,0
41.00,39.30,0
39.00,39.31,0
40.00,39.33,0
39.00,39.35,0
40.00,39.38,0
40.00,39.41,0
40.00,39.45,0
40.00,39.50,0
40.00,39.55,0
40.00,39.61,0
40.00,39.67,0
40.00,39.72,0
39.00,39.76,0
39.00,39.78,0
40.00,39.77,0
40.00,39.76,0
43.00,39.79,0
40.00,39.87,0
40.00,39.96,0
40.00,40.03,0
39.00,40.07,0
40.00,40.08,0
40.00,40.08,0
38.00,40.06,0
40.00,40.01,0
41.00,39.97,0
38.00,39.93,0
41.00,39.89,0
39.00,39.86,0
40.00,39.83,0
38.00,39.78,0
39.00,39.72,0
40.00,39.64,0
44.00,39.62,0
40.00,39.69,0
38.00,39.76,0
40.00,39.80,0
43.00,39.83,0
39.00,39.91,0
40.00,39.98,0
40.00,40.03,0
40.00,40.06,0
36.00,40.05,0
40.00,39.97,0
44.00,39.92,0
40.00,39.94,0
39.00,39.99,0
40.00,40.01,0
39.00,40.01,0
39.00,39.98,0
40.00,39.94,0
40.00,39.90,0
41.00,39.88,0
39.00,39.88,0
40.00,39.87,0
40.00,39.86,0
41.00,39.87,0
39.00,39.89,0
43.00,39.92,0
38.00,39.97,0
40.00,40.00,0
41.00,40.02,0
43.00,40.08,0
40.00,40.17,0
40.00,40.26,0
37.00,40.30,0
40.00,40.27,0
40.00,40.21,0
40.00,40.16,0
40.00,40.12,0
37.00,40.05,0
40.00,39.96,0
44.00,39.89,0
40.00,39.91,0
38.00,39.95,0
44.00,39.97,0
40.00,40.05,0
41.00,40.14,0
40.00,40.22,0
39.00,40.28,0
40.00,40.30,0
39.00,40.28,0
40.00,40.25,0
40.00,40.20,0
38.00,40.15,0
41.00,40.07,0
38.00,40.00,0
41.00,39.93,0
40.00,39.87,0
40.00,39.85,0
39.00,39.82,0
40.00,39.79,0
40.00,39.77,0
40.00,39.76,0
37.00,39.73,0
40.00,39.67,0
40.00,39.62,0
41.00,39.59,0
40.00,39.60,0
38.00,39.62,0
44.00,39.64,0
38.00,39.70,0
41.00,39.77,0
40.00,39.83,0
40.00,39.89,0
42.00,39.95,0
40.00,40.03,0
40.00,40.11,0
40.00,40.17,0
39.00,40.20,0
44.00,40.23,0
40.00,40.30,0
40.00,40.38,0
40.00,40.43,0
41.00,40.46,0
39.00,40.48,0
40.00,40.47,0
39.00,40.42,0
41.00,40.37,0
40.00,40.33,0
39.00,40.28,0
40.00,40.22,0
38.00,40.15,0
38.00,40.03,0
40.00,39.90,0
40.00,39.78,0
38.00,39.68,0
42.00,39.60,0
40.00,39.57,0
44.00,39.61,0
40.00,39.72,0
40.00,39.85,0
40.00,39.95,0
40.00,40.03,0
38.00,40.07,0
40.00,40.07,0
39.00,40.04,0
40.00,39.99,0
40.00,39.96,0
40.00,39.93,0
39.00,39.90,0
44.00,39.90,0
40.00,39.96,0
40.00,40.04,0
40.00,40.10,0
40.00,40.14,0
39.00,40.16,0
39.00,40.14,0
40.00,40.10,0
39.00,40.05,0
40.00,39.99,0
42.00,39.96,0
38.00,39.95,0
40.00,39.93,0
36.00,39.87,0
40.00,39.76,0
40.00,39.65,0
38.00,39.56,0
40.00,39.48,0
40.00,39.41,0
40.00,39.38,0
40.00,39.38,0
40.00,39.40,0
43.00,39.46,0
41.00,39.58,0
40.00,39.73,0
43.00,39.88,0
40.00,40.05,0
39.00,40.20,0
40.00,40.28,0
40.00,40.33,0
40.00,40.36,0
42.00,40.38,0
38.00,40.41,0
41.00,40.40,0
40.00,40.38,0
40.00,40.37,0
39.00,40.33,0
40.00,40.28,0
41.00,40.23,0
38.00,40.19,0
40.00,40.12,0
41.00,40.06,0
40.00,40.03,0
36.00,39.98,0
40.00,39.87,0
39.00,39.76,0
43.00,39.69,0
38.00,39.67,0
43.00,39.68,0
40.00,39.73,0
40.00,39.81,0
43.00,39.90,0
41.00,40.02,0
40.00,40.16,0
43.00,40.29,0
40.00,40.44,0
40.00,40.55,0
40.00,40.62,0
44.00,40.69,0
40.00,40.78,0
40.00,40.86,0
40.00,40.89,0
44.00,40.92,0
40.00,40.98,0
39.00,41.01,0
42.00,41.00,0
41.00,41.00,0
39.00,40.99,0
40.00,40.94,0
39.00,40.85,0
43.00,40.77,0
43.00,40.74,0
40.00,40.78,0
42.00,40.82,0
40.00,40.85,0
39.00,40.86,0
40.00,40.82,0
40.00,40.76,0
40.00,40.68,0
40.00,40.60,0
40.00,40.52,0
40.00,40.44,0
40.00,40.37,0
39.00,40.29,0
38.00,40.19,0
43.00,40.09,0
40.00,40.05,0
40.00,40.04,0
41.00,40.04,0
43.00,40.07,0
40.00,40.16,0
40.00,40.24,0
40.00,40.30,0
40.00,40.33,0
40.00,40.35,0
42.00,40.36,0
40.00,40.39,0
39.00,40.41,0
40.00,40.40,0
39.00,40.36,0
40.00,40.30,0
39.00,40.23,0
42.00,40.16,0
40.00,40.14,0
40.00,40.13,0
40.00,40.12,0
40.00,40.10,0
40.00,40.09,0
40.00,40.08,0
40.00,40.07,0
40.00,40.05,0
40.00,40.04,0
40.00,40.03,0
39.00,40.02,0
36.00,39.95,0
40.00,39.83,0
40.00,39.72,0
40.00,39.63,0
40.00,39.58,0
40.00,39.56,0
40.00,39.56,0
39.00,39.56,0
39.00,39.55,0
40.00,39.54,0
40.00,39.53,0
38.00,39.53,0
40.00,39.51,0
43.00,39.51,0
41.00,39.59,0
44.00,39.74,0
40.00,39.94,0
40.00,40.12,0
39.00,40.25,0
40.00,40.32,0
40.00,40.36,0
40.00,40.37,0
40.00,40.37,0
40.00,40.36,0
40.00,40.34,0
39.00,40.30,0
40.00,40.25,0
40.00,40.19,0
40.00,40.14,0
40.00,40.10,0
40.00,40.06,0
41.00,40.04,0
40.00,40.04,0
40.00,40.05,0
42.00,40.07,0
43.00,40.14,0
43.00,40.28,0
41.00,40.46,0
38.00,40.60,0
40.00,40.67,0
38.00,40.67,0
44.00,40.64,0
38.00,40.63,0
39.00,40.60,0
39.00,40.51,0
40.00,40.40,0
44.00,40.33,0
43.00,40.36,0
38.00,40.43,0
39.00,40.46,0
40.00,40.43,0
40.00,40.38,0
40.00,40.34,0
41.00,40.30,0
39.00,40.27,0
40.00,40.23,0
39.00,40.17,0
40.00,40.11,0
40.00,40.05,0
40.00,40.00,0
39.00,39.96,0
40.00,39.91,0
40.00,39.87,0
40.00,39.84,0
39.00,39.81,0
40.00,39.79,0
40.00,39.76,0
41.00,39.76,0
39.00,39.78,0
39.00,39.78,0
41.00,39.77,0
43.00,39.81,0
44.00,39.93,0
40.00,40.12,0
38.00,40.28,0
39.00,40.34,0
40.00,40.35,0
41.00,40.35,0
40.00,40.35,0
39.00,40.33,0
40.00,40.30,0
43.00,40.28,0
38.00,40.29,0
43.00,40.30,0
40.00,40.33,0
40.00,40.37,0
40.00,40.39,0
41.00,40.40,0
40.00,40.41,0
40.00,40.41,0
40.00,40.40,0
39.00,40.37,0
40.00,40.32,0
39.00,40.25,0
38.00,40.16,0
40.00,40.04,0
40.00,39.94,0
40.00,39.86,0
40.00,39.80,0
40.00,39.77,0
39.00,39.74,0
41.00,39.72,0
38.00,39.71,0
40.00,39.68,0
40.00,39.65,0
40.00,39.64,0
40.00,39.65,0
36.00,39.63,0
38.00,39.55,0
36.00,39.40,0
40.00,39.22,0
41.00,39.09,0
39.00,39.03,0
40.00,39.01,0
40.00,39.01,0
41.00,39.06,0
40.00,39.14,0
40.00,39.24,0
43.00,39.36,0
40.00,39.53,0
39.00,39.69,0
40.00,39.80,0
40.00,39.89,0
43.00,39.98,0
40.00,40.10,0
40.00,40.21,0
40.00,40.29,0
38.00,40.33,0
39.00,40.30,0
42.00,40.25,0
41.00,40.24,0
39.00,40.25,0
40.00,40.24,0
40.00,40.22,0
43.00,40.21,0
40.00,40.26,0
40.00,40.30,0
39.00,40.32,0
44.00,40.34,0
43.00,40.43,0
40.00,40.56,0
39.00,40.66,0
40.00,40.70,0
40.00,40.70,0
40.00,40.67,0
40.00,40.63,0
40.00,40.58,0
40.00,40.52,0
39.00,40.45,0
40.00,40.37,0
39.00,40.27,0
39.00,40.17,0
40.00,40.06,0
40.00,39.96,0
41.00,39.90,0
40.00,39.88,0
43.00,39.89,0
41.00,39.97,0
40.00,40.06,0
44.00,40.18,0
40.00,40.32,0
41.00,40.46,0
43.00,40.60,0
40.00,40.74,0
40.00,40.84,0
40.00,40.90,0
40.00,40.91,0
40.00,40.89,0
40.00,40.84,0
38.00,40.76,0
41.00,40.65,0
40.00,40.54,0
40.00,40.45,0
40.00,40.37,0
44.00,40.33,0
40.00,40.35,0
43.00,40.42,0
39.00,40.49,0
40.00,40.54,0
40.00,40.55,0
39.00,40.54,0
40.00,40.49,0
40.00,40.43,0
40.00,40.37,0
40.00,40.31,0
39.00,40.25,0
40.00,40.18,0
38.00,40.09,0
41.00,40.00,0
40.00,39.93,0
41.00,39.89,0
39.00,39.88,0
41.00,39.87,0
40.00,39.88,0
41.00,39.91,0
40.00,39.94,0
40.00,39.98,0
40.00,40.02,0
40.00,40.04,0
40.00,40.05,0
39.00,40.06,0
40.00,40.04,0
39.00,40.01,0
40.00,39.97,0
40.00,39.93,0
40.00,39.91,0
38.00,39.87,0
40.00,39.82,0
38.00,39.75,0
40.00,39.67,0
43.00,39.63,0
44.00,39.70,0
40.00,39.85,0
39.00,39.99,0
40.00,40.09,0
40.00,40.14,0
38.00,40.17,0
40.00,40.15,0
40.00,40.11,0
41.00,40.09,0
40.00,40.08,0
41.00,40.10,0
38.00,40.10,0
40.00,40.08,0
39.00,40.03,0
39.00,39.97,0
40.00,39.90,0
40.00,39.84,0
40.00,39.80,0
41.00,39.79,0
39.00,39.79,0
38.00,39.78,0
39.00,39.72,0
41.00,39.67,0
40.00,39.64,0
40.00,39.65,0
40.00,39.66,0
38.00,39.66,0
41.00,39.65,0
40.00,39.66,0
43.00,39.71,0
43.00,39.83,0
40.00,40.00,0
39.00,40.14,0
40.00,40.23,0
38.00,40.27,0
43.00,40.28,0
40.00,40.31,0
39.00,40.34,0
39.00,40.33,0
40.00,40.28,0
39.00,40.22,0
40.00,40.15,0
40.00,40.09,0
43.00,40.06,0
40.00,40.08,0
41.00,40.14,0
40.00,40.19,0
41.00,40.23,0
40.00,40.28,0
40.00,40.31,0
40.00,40.33,0
40.00,40.33,0
40.00,40.32,0
40.00,40.30,0
41.00,40.29,0
39.00,40.27,0
40.00,40.25,0
39.00,40.20,0
40.00,40.14,0
39.00,40.08,0
39.00,40.00,0
40.00,39.92,0
41.00,39.86,0
40.00,39.83,0
41.00,39.83,0
38.00,39.84,0
39.00,39.82,0
38.00,39.76,0
41.00,39.69,0
39.00,39.64,0
44.00,39.64,0
40.00,39.70,0
40.00,39.80,0
39.00,39.87,0
40.00,39.91,0
40.00,39.94,0
39.00,39.95,0
40.00,39.94,0
40.00,39.93,0
40.00,39.93,0
43.00,39.95,0
40.00,40.02,0
38.00,40.08,0
39.00,40.08,0
39.00,40.04,0
38.00,39.96,0
40.00,39.87,0
40.00,39.78,0
39.00,39.71,0
39.00,39.65,0
39.00,39.58,0
43.00,39.54,0
38.00,39.55,0
40.00,39.56,0
39.00,39.56,0
40.00,39.56,0
38.00,39.55,0
44.00,39.55,0
40.00,39.62,0
41.00,39.73,0
38.00,39.82,0
42.00,39.88,0
40.00,39.95,0
40.00,40.02,0
44.00,40.11,0
40.00,40.24,0
40.00,40.36,0
39.00,40.44,0
40.00,40.46,0
38.00,40.44,0
39.00,40.37,0
43.00,40.29,0
43.00,40.29,0
38.00,40.34,0
40.00,40.36,0
40.00,40.34,0
40.00,40.32,0
40.00,40.29,0
40.00,40.26,0
43.00,40.25,0
40.00,40.29,0
41.00,40.34,0
40.00,40.38,0
40.00,40.41,0
39.00,40.41,0
40.00,40.38,0
40.00,40.34,0
39.00,40.29,0
36.00,40.19,0
40.00,40.03,0
40.00,39.88,0
40.00,39.76,0
40.00,39.69,0
40.00,39.64,0
40.00,39.61,0
40.00,39.61,0
40.00,39.62,0
40.00,39.63,0
40.00,39.66,0
39.00,39.69,0
40.00,39.70,0
39.00,39.70,0
40.00,39.69,0
41.00,39.70,0
40.00,39.73,0
40.00,39.77,0
40.00,39.81,0
39.00,39.84,0
40.00,39.85,0
40.00,39.85,0
39.00,39.85,0
41.00,39.85,0
39.00,39.85,0
40.00,39.85,0
38.00,39.83,0
40.00,39.78,0
39.00,39.73,0
43.00,39.71,0
43.00,39.77,0
43.00,39.92,0
40.00,40.12,0
38.00,40.27,0
40.00,40.34,0
40.00,40.37,0
40.00,40.37,0
40.00,40.37,0
43.00,40.38,0
41.00,40.43,0
44.00,40.53,0
42.00,40.68,0
40.00,40.83,0
40.00,40.94,0
40.00,40.99,0
40.00,41.00,0
40.00,40.97,0
38.00,40.90,0
41.00,40.79,0
39.00,40.68,0
43.00,40.58,0
38.00,40.52,0
40.00,40.44,0
40.00,40.35,0
41.00,40.28,0
39.00,40.23,0
43.00,40.19,0
40.00,40.20,0
44.00,40.26,0
40.00,40.36,0
40.00,40.46,0
44.00,40.55,0
40.00,40.67,0
40.00,40.77,0
40.00,40.82,0
38.00,40.82,0
39.00,40.75,0
40.00,40.63,0
39.00,40.51,0
40.00,40.39,0
40.00,40.27,0
42.00,40.19,0
42.00,40.17,0
39.00,40.19,0
43.00,40.23,0
38.00,40.27,0
40.00,40.28,0
40.00,40.27,0
39.00,40.24,0
39.00,40.19,0
40.00,40.12,0
40.00,40.05,0
39.00,39.99,0
40.00,39.93,0
43.00,39.90,0
42.00,39.95,0
42.00,40.06,0
40.00,40.19,0
39.00,40.30,0
40.00,40.35,0
43.00,40.39,0
39.00,40.45,0
40.00,40.50,0
40.00,40.50,0
40.00,40.49,0
40.00,40.46,0
43.00,40.45,0
40.00,40.48,0
40.00,40.51,0
39.00,40.51,0
40.00,40.47,0
39.00,40.42,0
39.00,40.33,0
39.00,40.22,0
39.00,40.10,0
39.00,39.97,0
40.00,39.85,0
37.00,39.73,0
40.00,39.60,0
43.00,39.51,0
43.00,39.53,0
41.00,39.65,0
36.00,39.76,0
40.00,39.79,0
40.00,39.79,0
38.00,39.78,0
41.00,39.75,0
39.00,39.73,0
40.00,39.72,0
40.00,39.71,0
42.00,39.73,0
40.00,39.78,0
40.00,39.85,0
40.00,39.91,0
39.00,39.94,0
40.00,39.96,0
36.00,39.93,0
41.00,39.85,0
39.00,39.77,0
40.00,39.71,0
43.00,39.69,0
40.00,39.73,0
40.00,39.80,0
40.00,39.86,0
38.00,39.89,0
40.00,39.89,0
38.00,39.85,0
41.00,39.81,0
40.00,39.78,0
41.00,39.78,0
40.00,39.81,0
40.00,39.84,0
40.00,39.87,0
40.00,39.90,0
40.00,39.93,0
41.00,39.96,0
39.00,39.99,0
40.00,40.00,0
43.00,40.03,0
40.00,40.10,0
41.00,40.19,0
43.00,40.28,0
38.00,40.39,0
39.00,40.44,0
40.00,40.43,0
40.00,40.40,0
40.00,40.37,0
40.00,40.33,0
39.00,40.28,0
40.00,40.22,0
39.00,40.15,0
39.00,40.06,0
40.00,39.97,0
40.00,39.89,0
40.00,39.84,0
40.00,39.80,0
40.00,39.78,0
40.00,39.77,0
39.00,39.77,0
40.00,39.75,0
40.00,39.74,0
40.00,39.74,0
43.00,39.77,0
38.00,39.84,0
41.00,39.90,0
43.00,39.97,0
43.00,40.10,0
40.00,40.28,0
40.00,40.43,0
40.00,40.53,0
40.00,40.58,0
40.00,40.61,0
40.00,40.61,0
43.00,40.61,0
39.00,40.63,0
40.00,40.64,0
40.00,40.61,0
36.00,40.54,0
40.00,40.40,0
40.00,40.25,0
43.00,40.15,0
40.00,40.12,0
40.00,40.12,0
40.00,40.11,0
40.00,40.10,0
39.00,40.09,0
40.00,40.05,0
40.00,40.02,0
40.00,39.99,0
40.00,39.97,0
40.00,39.96,0
40.00,39.95,0
38.00,39.92,0
40.00,39.88,0
40.00,39.83,0
41.00,39.81,0
40.00,39.81,0
41.00,39.84,0
39.00,39.87,0
39.00,39.89,0
43.00,39.90,0
40.00,39.96,0
40.00,40.03,0
39.00,40.07,0
40.00,40.08,0
39.00,40.07,0
40.00,40.05,0
42.00,40.03,0
40.00,40.06,0
40.00,40.09,0
41.00,40.12,0
40.00,40.15,0
40.00,40.18,0
40.00,40.20,0
39.00,40.20,0
38.00,40.16,0
40.00,40.08,0
40.00,40.00,0
40.00,39.94,0
40.00,39.90,0
40.00,39.87,0
40.00,39.85,0
41.00,39.85,0
39.00,39.86,0
40.00,39.87,0
40.00,39.87,0
40.00,39.87,0
40.00,39.88,0
40.00,39.89,0
41.00,39.91,0
38.00,39.93,0
40.00,39.92,0
41.00,39.91,0
39.00,39.91,0
39.00,39.90,0
41.00,39.88,0
39.00,39.86,0
38.00,39.83,0
38.00,39.76,0
39.00,39.65,0
40.00,39.55,0
41.00,39.49,0
38.00,39.46,0
39.00,39.42,0
40.00,39.37,0
40.00,39.35,0
40.00,39.36,0
41.00,39.39,0
40.00,39.46,0
41.00,39.54,0
41.00,39.64,0
41.00,39.76,0
40.00,39.89,0
44.00,40.03,0
39.00,40.19,0
40.00,40.33,0
40.00,40.41,0
39.00,40.45,0
40.00,40.45,0
35.00,40.39,0
40.00,40.24,0
40.00,40.09,0
42.00,39.98,0
43.00,39.96,0
40.00,40.01,0
39.00,40.06,0
41.00,40.09,0
39.00,40.11,0
41.00,40.13,0
40.00,40.14,0
41.00,40.16,0
40.00,40.19,0
39.00,40.20,0
40.00,40.19,0
41.00,40.18,0
39.00,40.17,0
40.00,40.15,0
40.00,40.12,0
40.00,40.09,0
40.00,40.07,0
40.00,40.05,0
39.00,40.02,0
40.00,39.99,0
42.00,39.97,0
41.00,40.00,0
42.00,40.07,0
40.00,40.16,0
40.00,40.24,0
40.00,40.30,0
39.00,40.32,0
38.00,40.29,0
39.00,40.21,0
43.00,40.14,0
38.00,40.10,0
39.00,40.05,0
40.00,39.98,0
40.00,39.92,0
41.00,39.88,0
39.00,39.87,0
40.00,39.85,0
40.00,39.84,0
40.00,39.83,0
40.00,39.83,0
40.00,39.84,0
44.00,39.88,0
40.00,39.98,0
40.00,40.10,0
40.00,40.18,0
39.00,40.23,0
43.00,40.26,0
42.00,40.34,0
40.00,40.45,0
40.00,40.53,0
41.00,40.58,0
40.00,40.62,0
40.00,40.64,0
41.00,40.64,0
40.00,40.63,0
38.00,40.60,0
38.00,40.50,0
40.00,40.37,0
40.00,40.23,0
40.00,40.12,0
40.00,40.04,0
38.00,39.95,0
40.00,39.86,0
40.00,39.77,0
40.00,39.72,0
40.00,39.68,0
40.00,39.67,0
40.00,39.67,0
40.00,39.68,0
40.00,39.70,0
39.00,39.71,0
39.00,39.71,0
40.00,39.69,0
40.00,39.68,0
40.00,39.68,0
40.00,39.70,0
43.00,39.74,0
38.00,39.81,0
43.00,39.89,0
41.00,40.00,0
40.00,40.12,0
40.00,40.22,0
39.00,40.27,0
40.00,40.29,0
40.00,40.29,0
40.00,40.28,0
40.00,40.26,0
38.00,40.22,0
40.00,40.15,0
40.00,40.07,0
40.00,40.01,0
40.00,39.97,0
40.00,39.93,0
38.00,39.89,0
40.00,39.83,0
38.00,39.76,0
40.00,39.68,0
44.00,39.65,0
40.00,39.70,0
43.00,39.81,0
40.00,39.94,0
38.00,40.06,0
40.00,40.11,0
40.00,40.13,0
40.00,40.14,0
39.00,40.14,0
44.00,40.14,0
38.00,40.19,0
41.00,40.22,0
40.00,40.24,0
40.00,40.26,0
40.00,40.26,0
40.00,40.25,0
40.00,40.24,0
40.00,40.22,0
40.00,40.20,0
40.00,40.18,0
39.00,40.15,0
40.00,40.10,0
39.00,40.05,0
40.00,39.99,0
42.00,39.95,0
42.00,39.98,0
41.00,40.05,0
40.00,40.14,0
40.00,40.21,0
39.00,40.25,0
40.00,40.26,0
40.00,40.25,0
39.00,40.22,0
40.00,40.18,0
40.00,40.13,0
43.00,40.11,0
40.00,40.15,0
44.00,40.23,0
44.00,40.38,0
39.00,40.57,0
37.00,40.69,0
43.00,40.73,0
38.00,40.74,0
40.00,40.71,0
40.00,40.65,0
40.00,40.59,0
40.00,40.52,0
40.00,40.45,0
42.00,40.40,0
40.00,40.38,0
38.00,40.35,0
40.00,40.28,0
40.00,40.21,0
40.00,40.14,0
40.00,40.09,0
44.00,40.08,0
40.00,40.13,0
40.00,40.21,0
38.00,40.24,0
40.00,40.22,0
40.00,40.18,0
43.00,40.17,0
43.00,40.23,0
40.00,40.35,0
39.00,40.44,0
44.00,40.51,0
40.00,40.60,0
41.00,40.70,0
40.00,40.76,0
41.00,40.80,0
40.00,40.82,0
40.00,40.82,0
38.00,40.77,0
39.00,40.67,0
42.00,40.56,0
42.00,40.49,0
40.00,40.47,0
40.00,40.46,0
40.00,40.44,0
40.00,40.41,0
39.00,40.36,0
40.00,40.30,0
41.00,40.24,0
40.00,40.20,0
40.00,40.18,0
40.00,40.15,0
41.00,40.14,0
39.00,40.13,0
41.00,40.12,0
38.00,40.10,0
40.00,40.05,0
36.00,39.97,0
40.00,39.84,0
40.00,39.72,0
40.00,39.63,0
40.00,39.58,0
42.00,39.57,0
38.00,39.59,0
41.00,39.61,0
42.00,39.66,0
36.00,39.71,0
38.00,39.70,0
38.00,39.61,0
41.00,39.52,0
40.00,39.47,0
40.00,39.45,0
40.00,39.46,0
40.00,39.48,0
40.00,39.51,0
40.00,39.56,0
39.00,39.59,0
40.00,39.62,0
40.00,39.64,0
41.00,39.68,0
39.00,39.73,0
44.00,39.80,0
40.00,39.92,0
38.00,40.03,0
40.00,40.08,0
39.00,40.09,0
39.00,40.07,0
40.00,40.02,0
40.00,39.98,0
40.00,39.95,0
39.00,39.92,0
40.00,39.89,0
40.00,39.85,0
43.00,39.86,0
40.00,39.92,0
41.00,40.00,0
39.00,40.07,0
40.00,40.11,0
39.00,40.12,0
39.00,40.10,0
38.00,40.04,0
40.00,39.95,0
40.00,39.87,0
40.00,39.81,0
41.00,39.78,0
40.00,39.78,0
40.00,39.80,0
40.00,39.82,0
40.00,39.84,0
40.00,39.86,0
44.00,39.91,0
40.00,40.02,0
41.00,40.15,0
40.00,40.25,0
40.00,40.33,0
39.00,40.38,0
40.00,40.38,0
38.00,40.34,0
40.00,40.27,0
40.00,40.19,0
41.00,40.13,0
40.00,40.10,0
36.00,40.05,0
37.00,39.91,0
40.00,39.73,0
40.00,39.58,0
40.00,39.48,0
40.00,39.42,0
38.00,39.37,0
39.00,39.32,0
40.00,39.27,0
40.00,39.25,0
39.00,39.24,0
40.00,39.25,0
40.00,39.27,0
39.00,39.31,0
40.00,39.34,0
42.00,39.39,0
41.00,39.50,0
41.00,39.63,0
39.00,39.76,0
44.00,39.89,0
40.00,40.06,0
40.00,40.21,0
40.00,40.32,0
40.00,40.39,0
40.00,40.44,0
40.00,40.46,0
43.00,40.48,0
40.00,40.53,0
40.00,40.58,0
40.00,40.59,0
39.00,40.58,0
41.00,40.54,0
39.00,40.49,0
40.00,40.43,0
40.00,40.36,0
40.00,40.30,0
40.00,40.24,0
39.00,40.18,0
37.00,40.09,0
40.00,39.95,0
40.00,39.83,0
41.00,39.75,0
40.00,39.72,0
43.00,39.73,0
39.00,39.79,0
40.00,39.85,0
40.00,39.90,0
40.00,39.93,0
36.00,39.93,0
39.00,39.86,0
41.00,39.76,0
39.00,39.70,0
40.00,39.65,0
38.00,39.61,0
40.00,39.55,0
40.00,39.50,0
40.00,39.49,0
39.00,39.48,0
40.00,39.48,0
36.00,39.45,0
41.00,39.39,0
40.00,39.35,0
39.00,39.34,0
40.00,39.34,0
40.00,39.35,0
40.00,39.38,0
40.00,39.42,0
40.00,39.48,0
44.00,39.57,0
40.00,39.71,0
38.00,39.85,0
40.00,39.93,0
39.00,39.97,0
40.00,39.98,0
40.00,39.98,0
40.00,39.98,0
40.00,39.99,0
41.00,40.00,0
40.00,40.02,0
40.00,40.05,0
40.00,40.07,0
40.00,40.08,0
40.00,40.08,0
41.00,40.09,0
42.00,40.13,0
40.00,40.20,0
40.00,40.26,0
42.00,40.31,0
40.00,40.37,0
41.00,40.44,0
39.00,40.48,0
40.00,40.48,0
40.00,40.46,0
39.00,40.42,0
40.00,40.36,0
40.00,40.30,0
41.00,40.25,0
40.00,40.22,0
38.00,40.18,0
44.00,40.14,0
40.00,40.16,0
40.00,40.20,0
43.00,40.25,0
40.00,40.33,0
40.00,40.40,0
39.00,40.44,0
40.00,40.43,0
39.00,40.40,0
39.00,40.33,0
40.00,40.25,0
42.00,40.19,0
40.00,40.16,0
40.00,40.16,0
41.00,40.16,0
40.00,40.17,0
39.00,40.17,0
40.00,40.15,0
40.00,40.12,0
40.00,40.09,0
39.00,40.06,0
41.00,40.03,0
43.00,40.04,0
40.00,40.10,0
39.00,40.16,0
38.00,40.16,0
40.00,40.12,0
40.00,40.07,0
39.00,40.02,0
40.00,39.97,0
39.00,39.91,0
40.00,39.85,0
41.00,39.81,0
39.00,39.80,0
40.00,39.79,0
41.00,39.78,0
40.00,39.81,0
41.00,39.84,0
40.00,39.90,0
43.00,39.97,0
40.00,40.08,0
40.00,40.19,0
44.00,40.29,0
40.00,40.43,0
43.00,40.58,0
40.00,40.72,0
40.00,40.83,0
40.00,40.89,0
43.00,40.92,0
40.00,40.97,0
40.00,41.00,0
39.00,40.98,0
39.00,40.91,0
40.00,40.80,0
40.00,40.68,0
40.00,40.57,0
39.00,40.46,0
35.00,40.30,0
40.00,40.08,0
40.00,39.87,0
40.00,39.71,0
40.00,39.60,0
40.00,39.53,0
39.00,39.49,0
40.00,39.45,0
43.00,39.46,0
40.00,39.53,0
39.00,39.62,0
40.00,39.69,0
39.00,39.73,0
38.00,39.73,0
39.00,39.70,0
40.00,39.65,0
40.00,39.62,0
38.00,39.59,0
41.00,39.55,0
40.00,39.54,0
40.00,39.56,0
40.00,39.58,0
41.00,39.62,0
40.00,39.69,0
41.00,39.76,0
38.00,39.82,0
40.00,39.85,0
44.00,39.90,0
40.00,40.00,0
39.00,40.10,0
38.00,40.14,0
40.00,40.13,0
44.00,40.13,0
40.00,40.19,0
43.00,40.29,0
39.00,40.40,0
43.00,40.50,0
41.00,40.61,0
40.00,40.72,0
40.00,40.78,0
38.00,40.79,0
40.00,40.73,0
40.00,40.65,0
40.00,40.57,0
39.00,40.48,0
40.00,40.38,0
40.00,40.28,0
40.00,40.20,0
38.00,40.11,0
40.00,40.01,0
39.00,39.91,0
41.00,39.82,0
39.00,39.76,0
40.00,39.72,0
43.00,39.71,0
40.00,39.77,0
40.00,39.84,0
39.00,39.89,0
39.00,39.91,0
40.00,39.90,0
39.00,39.88,0
40.00,39.86,0
40.00,39.83,0
40.00,39.82,0
39.00,39.81,0
38.00,39.77,0
38.00,39.69,0
40.00,39.59,0
40.00,39.52,0
40.00,39.47,0
40.00,39.46,0
40.00,39.47,0
39.00,39.48,0
40.00,39.49,0
40.00,39.51,0
40.00,39.54,0
43.00,39.60,0
40.00,39.71,0
40.00,39.83,0
39.00,39.91,0
40.00,39.97,0
40.00,40.00,0
40.00,40.02,0
40.00,40.04,0
41.00,40.06,0
43.00,40.12,0
40.00,40.21,0
40.00,40.30,0
40.00,40.36,0
40.00,40.39,0
40.00,40.41,0
40.00,40.40,0
40.00,40.39,0
40.00,40.36,0
40.00,40.33,0
40.00,40.29,0
40.00,40.26,0
39.00,40.21,0
40.00,40.16,0
40.00,40.10,0
40.00,40.05,0
40.00,40.02,0
39.00,39.98,0
40.00,39.94,0
38.00,39.88,0
38.00,39.79,0
40.00,39.68,0
39.00,39.58,0
40.00,39.51,0
42.00,39.47,0
38.00,39.48,0
40.00,39.49,0
39.00,39.49,0
41.00,39.49,0
40.00,39.52,0
41.00,39.58,0
40.00,39.65,0
39.00,39.72,0
40.00,39.76,0
40.00,39.79,0
40.00,39.82,0
40.00,39.85,0
40.00,39.88,0
40.00,39.91,0
40.00,39.93,0
40.00,39.95,0
44.00,40.00,0
40.00,40.10,0
41.00,40.22,0
38.00,40.30,0
40.00,40.33,0
39.00,40.31,0
42.00,40.29,0
38.00,40.27,0
40.00,40.23,0
40.00,40.18,0
40.00,40.13,0
40.00,40.09,0
40.00,40.06,0
40.00,40.03,0
40.00,40.01,0
40.00,39.99,0
41.00,39.99,0
39.00,39.99,0
42.00,40.01,0
40.00,40.04,0
40.00,40.08,0
38.00,40.09,0
43.00,40.09,0
40.00,40.12,0
40.00,40.16,0
41.00,40.20,0
39.00,40.23,0
40.00,40.23,0
40.00,40.22,0
39.00,40.20,0
40.00,40.16,0
40.00,40.11,0
41.00,40.08,0
40.00,40.07,0
40.00,40.07,0
40.00,40.07,0
40.00,40.06,0
43.00,40.08,0
39.00,40.14,0
40.00,40.18,0
40.00,40.20,0
43.00,40.23,0
40.00,40.30,0
42.00,40.38,0
43.00,40.49,0
40.00,40.62,0
40.00,40.73,0
41.00,40.79,0
39.00,40.82,0
40.00,40.81,0
40.00,40.76,0
40.00,40.70,0
39.00,40.63,0
40.00,40.53,0
39.00,40.43,0
40.00,40.32,0
40.00,40.21,0
38.00,40.11,0
40.00,40.00,0
40.00,39.89,0
43.00,39.84,0
40.00,39.86,0
40.00,39.90,0
38.00,39.92,0
43.00,39.93,0
40.00,39.97,0
40.00,40.03,0
38.00,40.05,0
40.00,40.04,0
43.00,40.03,0
38.00,40.06,0
40.00,40.07,0
43.00,40.09,0
43.00,40.17,0
40.00,40.30,0
40.00,40.42,0
40.00,40.49,0
38.00,40.51,0
39.00,40.47,0
40.00,40.39,0
42.00,40.33,0
40.00,40.30,0
39.00,40.28,0
46.00,40.28,0
40.00,40.37,0
39.00,40.47,0
40.00,40.51,0
43.00,40.54,0
38.00,40.58,0
40.00,40.58,0
39.00,40.53,0
39.00,40.46,0
40.00,40.36,0
40.00,40.27,0
40.00,40.19,0
39.00,40.11,0
40.00,40.04,0
40.00,39.97,0
38.00,39.90,0
40.00,39.82,0
40.00,39.75,0
40.00,39.70,0
43.00,39.70,0
40.00,39.76,0
39.00,39.83,0
40.00,39.87,0
40.00,39.90,0
41.00,39.93,0
39.00,39.97,0
40.00,39.99,0
38.00,39.98,0
43.00,39.96,0
39.00,39.98,0
40.00,40.00,0
40.00,40.00,0
40.00,40.01,0
37.00,39.99,0
41.00,39.93,0
40.00,39.88,0
38.00,39.84,0
40.00,39.78,0
39.00,39.72,0
43.00,39.69,0
39.00,39.71,0
40.00,39.74,0
39.00,39.76,0
41.00,39.77,0
40.00,39.80,0
40.00,39.83,0
43.00,39.89,0
40.00,39.99,0
40.00,40.08,0
39.00,40.15,0
41.00,40.18,0
39.00,40.20,0
38.00,40.19,0
39.00,40.12,0
38.00,40.01,0
41.00,39.90,0
40.00,39.82,0
39.00,39.76,0
43.00,39.74,0
38.00,39.75,0
42.00,39.77,0
40.00,39.82,0
39.00,39.87,0
40.00,39.89,0
40.00,39.90,0
40.00,39.92,0
41.00,39.94,0
41.00,39.98,0
39.00,40.03,0
40.00,40.06,0
39.00,40.06,0
37.00,40.02,0
40.00,39.93,0
43.00,39.87,0
41.00,39.88,0
40.00,39.93,0
44.00,40.02,0
40.00,40.15,0
40.00,40.28,0
40.00,40.37,0
41.00,40.43,0
39.00,40.47,0
40.00,40.48,0
40.00,40.46,0
39.00,40.42,0
42.00,40.38,0
43.00,40.39,0
40.00,40.44,0
41.00,40.50,0
42.00,40.57,0
44.00,40.67,0
41.00,40.82,0
38.00,40.94,0
39.00,40.96,0
40.00,40.92,0
43.00,40.87,0
40.00,40.85,0
41.00,40.84,0
37.00,40.80,0
40.00,40.70,0
40.00,40.58,0
41.00,40.47,0
40.00,40.40,0
40.00,40.33,0
41.00,40.28,0
40.00,40.25,0
40.00,40.22,0
40.00,40.20,0
38.00,40.15,0
44.00,40.12,0
40.00,40.13,0
41.00,40.18,0
40.00,40.23,0
40.00,40.27,0
37.00,40.27,0
40.00,40.20,0
44.00,40.16,0
39.00,40.18,0
40.00,40.20,0
40.00,40.20,0
41.00,40.21,0
38.00,40.21,0
40.00,40.17,0
40.00,40.12,0
44.00,40.11,0
43.00,40.20,0
42.00,40.35,0
43.00,40.54,0
40.00,40.73,0
43.00,40.90,0
38.00,41.04,0
40.00,41.09,0
39.00,41.08,0
40.00,41.01,0
39.00,40.91,0
43.00,40.82,0
39.00,40.75,0
39.00,40.67,0
44.00,40.60,0
39.00,40.57,0
41.00,40.56,0
38.00,40.52,0
40.00,40.45,0
40.00,40.37,0
40.00,40.29,0
40.00,40.23,0
42.00,40.18,0
40.00,40.18,0
43.00,40.21,0
40.00,40.28,0
38.00,40.33,0
40.00,40.32,0
40.00,40.29,0
40.00,40.25,0
38.00,40.20,0
40.00,40.12,0
39.00,40.04,0
43.00,39.98,0
38.00,39.96,0
39.00,39.93,0
40.00,39.87,0
44.00,39.86,0
42.00,39.94,0
39.00,40.06,0
39.00,40.14,0
39.00,40.16,0
40.00,40.15,0
40.00,40.13,0
40.00,40.11,0
41.00,40.09,0
40.00,40.10,0
40.00,40.11,0
40.00,40.11,0
39.00,40.10,0
40.00,40.07,0
39.00,40.03,0
43.00,40.01,0
40.00,40.03,0
40.00,40.07,0
40.00,40.10,0
36.00,40.09,0
40.00,40.01,0
35.00,39.87,0
39.00,39.68,0
40.00,39.49,0
40.00,39.36,0
41.00,39.28,0
43.00,39.29,0
40.00,39.38,0
40.00,39.49,0
41.00,39.60,0
38.00,39.70,0
39.00,39.75,0
40.00,39.76,0
40.00,39.77,0
40.00,39.79,0
41.00,39.81,0
40.00,39.86,0
40.00,39.90,0
43.00,39.97,0
40.00,40.06,0
41.00,40.17,0
40.00,40.26,0
41.00,40.34,0
40.00,40.40,0
40.00,40.45,0
40.00,40.46,0
41.00,40.47,0
40.00,40.48,0
40.00,40.47,0
40.00,40.46,0
41.00,40.44,0
39.00,40.41,0
41.00,40.38,0
39.00,40.35,0
40.00,40.30,0
40.00,40.25,0
40.00,40.20,0
39.00,40.15,0
40.00,40.09,0
38.00,40.01,0
40.00,39.92,0
49.00,39.91,0
40.00,40.06,0
40.00,40.24,0
41.00,40.38,0
40.00,40.49,0
44.00,40.60,0
40.00,40.73,0
43.00,40.86,0
43.00,41.00,0
40.00,41.16,0
44.00,41.29,0
38.00,41.40,0
40.00,41.44,0
44.00,41.44,0
40.00,41.45,0
39.00,41.44,0
39.00,41.36,0
40.00,41.23,0
41.00,41.09,0
36.00,40.93,0
39.00,40.71,0
43.00,40.50,0
41.00,40.37,0
40.00,40.30,0
41.00,40.26,0
40.00,40.23,0
40.00,40.21,0
39.00,40.18,0
41.00,40.14,0
40.00,40.12,0
39.00,40.09,0
40.00,40.06,0
39.00,40.01,0
40.00,39.96,0
40.00,39.91,0
44.00,39.91,0
40.00,39.98,0
39.00,40.06,0
40.00,40.10,0
41.00,40.13,0
39.00,40.16,0
41.00,40.17,0
39.00,40.17,0
40.00,40.16,0
43.00,40.17,0
40.00,40.21,0
40.00,40.27,0
38.00,40.28,0
40.00,40.25,0
39.00,40.19,0
40.00,40.13,0
43.00,40.09,0
41.00,40.12,0
40.00,40.17,0
39.00,40.21,0
39.00,40.21,0
43.00,40.20,0
43.00,40.25,0
38.00,40.34,0
40.00,40.39,0
40.00,40.40,0
41.00,40.40,0
40.00,40.40,0
39.00,40.39,0
38.00,40.34,0
41.00,40.25,0
40.00,40.18,0
35.00,40.08,0
40.00,39.93,0
37.00,39.74,0
43.00,39.59,0
40.00,39.51,0
44.00,39.52,0
40.00,39.62,0
40.00,39.73,0
38.00,39.81,0
43.00,39.87,0
40.00,39.95,0
40.00,40.04,0
40.00,40.11,0
41.00,40.16,0
40.00,40.21,0
40.00,40.26,0
40.00,40.28,0
41.00,40.30,0
40.00,40.31,0
40.00,40.33,0
40.00,40.33,0
40.00,40.31,0
39.00,40.29,0
39.00,40.23,0
40.00,40.16,0
40.00,40.09,0
44.00,40.06,0
41.00,40.12,0
40.00,40.20,0
40.00,40.27,0
39.00,40.31,0
40.00,40.31,0
39.00,40.28,0
38.00,40.21,0
40.00,40.12,0
40.00,40.03,0
40.00,39.95,0
40.00,39.90,0
40.00,39.86,0
40.00,39.84,0
40.00,39.83,0
40.00,39.82,0
39.00,39.82,0
40.00,39.80,0
40.00,39.79,0
38.00,39.77,0
39.00,39.72,0
40.00,39.66,0
40.00,39.62,0
40.00,39.60,0
40.00,39.60,0
38.00,39.59,0
41.00,39.58,0
40.00,39.58,0
40.00,39.60,0
38.00,39.62,0
40.00,39.61,0
39.00,39.59,0
41.00,39.58,0
40.00,39.60,0
39.00,39.62,0
40.00,39.64,0
39.00,39.64,0
41.00,39.65,0
39.00,39.67,0
40.00,39.69,0
40.00,39.70,0
40.00,39.72,0
40.00,39.75,0
40.00,39.77,0
43.00,39.83,0
45.00,39.96,0
40.00,40.18,0
40.00,40.37,0
43.00,40.53,0
39.00,40.68,0
40.00,40.78,0
40.00,40.82,0
38.00,40.80,0
39.00,40.73,0
40.00,40.61,0
40.00,40.49,0
40.00,40.39,0
42.00,40.31,0
40.00,40.28,0
39.00,40.25,0
40.00,40.20,0
40.00,40.15,0
42.00,40.13,0
40.00,40.14,0
38.00,40.14,0
40.00,40.10,0
41.00,40.06,0
39.00,40.04,0
40.00,40.01,0
43.00,40.01,0
39.00,40.04,0
39.00,40.07,0
40.00,40.06,0
43.00,40.07,0
40.00,40.13,0
40.00,40.19,0
41.00,40.24,0
40.00,40.28,0
40.00,40.32,0
40.00,40.33,0
40.00,40.33,0
38.00,40.31,0
40.00,40.24,0
40.00,40.17,0
40.00,40.11,0
39.00,40.05,0
40.00,39.99,0
40.00,39.93,0
43.00,39.92,0
40.00,39.96,0
40.00,40.02,0
40.00,40.06,0
40.00,40.09,0
40.00,40.11,0
39.00,40.11,0
41.00,40.10,0
40.00,40.10,0
39.00,40.10,0
40.00,40.07,0
40.00,40.04,0
40.00,40.02,0
40.00,40.00,0
41.00,40.00,0
41.00,40.02,0
40.00,40.06,0
40.00,40.09,0
40.00,40.12,0
40.00,40.13,0
40.00,40.14,0
44.00,40.17,0
40.00,40.26,0
39.00,40.34,0
39.00,40.37,0
39.00,40.34,0
40.00,40.28,0
40.00,40.22,0
39.00,40.16,0
39.00,40.09,0
40.00,40.00,0
42.00,39.94,0
40.00,39.94,0
40.00,39.95,0
38.00,39.94,0
39.00,39.90,0
40.00,39.84,0
43.00,39.81,0
40.00,39.85,0
40.00,39.90,0
40.00,39.95,0
42.00,40.00,0
40.00,40.08,0
40.00,40.15,0
40.00,40.20,0
43.00,40.25,0
41.00,40.34,0
40.00,40.44,0
39.00,40.50,0
40.00,40.51,0
39.00,40.49,0
35.00,40.40,0
41.00,40.23,0
40.00,40.08,0
40.00,39.96,0
40.00,39.88,0
43.00,39.84,0
38.00,39.85,0
40.00,39.86,0
40.00,39.85,0
40.00,39.85,0
37.00,39.83,0
40.00,39.77,0
40.00,39.71,0
40.00,39.67,0
39.00,39.64,0
40.00,39.62,0
39.00,39.60,0
40.00,39.58,0
40.00,39.57,0
40.00,39.57,0
40.00,39.59,0
40.00,39.62,0
44.00,39.69,0
38.00,39.80,0
44.00,39.92,0
39.00,40.06,0
40.00,40.18,0
39.00,40.25,0
40.00,40.27,0
39.00,40.27,0
40.00,40.24,0
40.00,40.20,0
40.00,40.17,0
40.00,40.13,0
39.00,40.10,0
40.00,40.05,0
39.00,39.99,0
40.00,39.94,0
39.00,39.88,0
40.00,39.82,0
40.00,39.77,0
40.00,39.75,0
44.00,39.77,0
40.00,39.86,0
40.00,39.96,0
40.00,40.04,0
39.00,40.10,0
42.00,40.13,0
40.00,40.18,0
36.00,40.19,0
40.00,40.13,0
40.00,40.05,0
40.00,39.98,0
40.00,39.93,0
40.00,39.90,0
40.00,39.87,0
39.00,39.85,0
41.00,39.83,0
40.00,39.83,0
43.00,39.87,0
40.00,39.95,0
41.00,40.05,0
40.00,40.14,0
40.00,40.21,0
39.00,40.25,0
39.00,40.24,0
40.00,40.21,0
40.00,40.16,0
44.00,40.16,0
41.00,40.23,0
40.00,40.32,0
42.00,40.40,0
40.00,40.49,0
40.00,40.55,0
40.00,40.58,0
40.00,40.58,0
40.00,40.57,0
40.00,40.54,0
40.00,40.50,0
39.00,40.44,0
40.00,40.37,0
40.00,40.29,0
40.00,40.22,0
40.00,40.16,0
40.00,40.11,0
40.00,40.07,0
44.00,40.07,0
38.00,40.12,0
43.00,40.17,0
40.00,40.24,0
40.00,40.31,0
40.00,40.36,0
41.00,40.38,0
43.00,40.44,0
40.00,40.52,0
40.00,40.59,0
40.00,40.62,0
40.00,40.63,0
40.00,40.61,0
40.00,40.58,0
42.00,40.55,0
40.00,40.54,0
40.00,40.54,0
40.00,40.51,0
38.00,40.46,0
41.00,40.39,0
39.00,40.31,0
39.00,40.22,0
40.00,40.12,0
40.00,40.03,0
43.00,39.99,0
40.00,40.01,0
39.00,40.04,0
40.00,40.04,0
43.00,40.06,0
40.00,40.12,0
43.00,40.21,0
41.00,40.34,0
40.00,40.46,0
40.00,40.54,0
40.00,40.59,0
41.00,40.62,0
39.00,40.62,0
40.00,40.60,0
39.00,40.55,0
40.00,40.47,0
40.00,40.39,0
40.00,40.31,0
40.00,40.25,0
39.00,40.18,0
40.00,40.11,0
40.00,40.04,0
41.00,39.99,0
39.00,39.97,0
40.00,39.94,0
39.00,39.91,0
44.00,39.90,0
38.00,39.94,0
40.00,39.97,0
44.00,40.01,0
39.00,40.10,0
40.00,40.18,0
40.00,40.23,0
41.00,40.26,0
40.00,40.30,0
40.00,40.33,0
41.00,40.34,0
40.00,40.36,0
41.00,40.38,0
40.00,40.40,0
40.00,40.40,0
39.00,40.39,0
40.00,40.35,0
40.00,40.30,0
40.00,40.25,0
40.00,40.20,0
44.00,40.20,0
40.00,40.25,0
36.00,40.28,0
40.00,40.23,0
41.00,40.16,0
40.00,40.12,0
39.00,40.08,0
42.00,40.05,0
41.00,40.06,0
40.00,40.09,0
40.00,40.13,0
40.00,40.15,0
40.00,40.16,0
40.00,40.16,0
38.00,40.14,0
40.00,40.09,0
39.00,40.02,0
40.00,39.95,0
39.00,39.89,0
40.00,39.82,0
41.00,39.78,0
41.00,39.78,0
38.00,39.79,0
40.00,39.79,0
40.00,39.77,0
40.00,39.77,0
40.00,39.77,0
40.00,39.78,0
40.00,39.80,0
41.00,39.83,0
39.00,39.86,0
40.00,39.88,0
41.00,39.90,0
41.00,39.95,0
40.00,40.01,0
42.00,40.08,0
40.00,40.16,0
39.00,40.23,0
41.00,40.26,0
42.00,40.30,0
41.00,40.38,0
39.00,40.44,0
39.00,40.46,0
40.00,40.44,0
41.00,40.40,0
40.00,40.38,0
39.00,40.35,0
40.00,40.30,0
40.00,40.24,0
40.00,40.19,0
39.00,40.14,0
40.00,40.08,0
40.00,40.02,0
38.00,39.96,0
41.00,39.89,0
40.00,39.84,0
40.00,39.82,0
40.00,39.80,0
40.00,39.80,0
37.00,39.78,0
41.00,39.73,0
40.00,39.69,0
40.00,39.68,0
39.00,39.68,0
40.00,39.67,0
36.00,39.63,0
40.00,39.55,0
40.00,39.47,0
40.00,39.42,0
39.00,39.40,0
43.00,39.41,0
40.00,39.48,0
40.00,39.57,0
40.00,39.66,0
40.00,39.74,0
40.00,39.80,0
40.00,39.86,0
41.00,39.92,0
40.00,39.98,0
40.00,40.03,0
43.00,40.10,0
40.00,40.20,0
43.00,40.31,0
44.00,40.47,0
44.00,40.70,0
40.00,40.95,0
40.00,41.15,0
40.00,41.25,0
40.00,41.30,0
40.00,41.28,0
40.00,41.23,0
40.00,41.15,0
39.00,41.04,0
38.00,40.89,0
37.00,40.69,0
38.00,40.42,0
41.00,40.15,0
39.00,39.94,0
40.00,39.77,0
43.00,39.67,0
39.00,39.64,0
39.00,39.63,0
40.00,39.61,0
40.00,39.60,0
40.00,39.60,0
43.00,39.65,0
40.00,39.74,0
36.00,39.81,0
40.00,39.81,0
40.00,39.77,0
41.00,39.77,0
40.00,39.79,0
44.00,39.85,0
40.00,39.97,0
40.00,40.09,0
40.00,40.18,0
41.00,40.26,0
41.00,40.33,0
40.00,40.39,0
42.00,40.46,0
40.00,40.52,0
43.00,40.60,0
40.00,40.69,0
43.00,40.78,0
38.00,40.86,0
44.00,40.91,0
39.00,40.97,0
44.00,41.02,0
43.00,41.12,0
40.00,41.23,0
40.00,41.30,0
40.00,41.32,0
35.00,41.24,0
40.00,41.06,0
40.00,40.85,0
40.00,40.66,0
40.00,40.49,0
40.00,40.35,0
40.00,40.23,0
41.00,40.14,0
38.00,40.07,0
40.00,39.98,0
38.00,39.89,0
41.00,39.79,0
42.00,39.75,0
40.00,39.76,0
38.00,39.78,0
40.00,39.77,0
40.00,39.75,0
41.00,39.75,0
39.00,39.77,0
40.00,39.78,0
40.00,39.79,0
39.00,39.80,0
43.00,39.82,0
39.00,39.87,0
41.00,39.93,0
40.00,39.99,0
41.00,40.05,0
40.00,40.11,0
40.00,40.16,0
39.00,40.19,0
41.00,40.19,0
39.00,40.19,0
40.00,40.17,0
43.00,40.17,0
40.00,40.21,0
42.00,40.28,0
42.00,40.37,0
40.00,40.48,0
39.00,40.55,0
40.00,40.57,0
40.00,40.56,0
39.00,40.53,0
38.00,40.45,0
40.00,40.33,0
35.00,40.18,0
40.00,39.97,0
40.00,39.77,0
40.00,39.63,0
39.00,39.53,0
40.00,39.45,0
40.00,39.40,0
43.00,39.40,0
39.00,39.47,0
41.00,39.55,0
39.00,39.63,0
40.00,39.70,0
39.00,39.74,0
40.00,39.76,0
40.00,39.78,0
41.00,39.81,0
40.00,39.85,0
40.00,39.90,0
43.00,39.97,0
41.00,40.07,0
39.00,40.18,0
40.00,40.26,0
39.00,40.28,0
40.00,40.28,0
40.00,40.26,0
40.00,40.24,0
40.00,40.21,0
41.00,40.19,0
40.00,40.19,0
40.00,40.19,0
40.00,40.18,0
40.00,40.17,0
40.00,40.15,0
41.00,40.15,0
40.00,40.15,0
40.00,40.16,0
40.00,40.16,0
38.00,40.14,0
40.00,40.09,0
40.00,40.03,0
40.00,39.98,0
39.00,39.94,0
40.00,39.89,0
38.00,39.83,0
43.00,39.79,0
40.00,39.79,0
44.00,39.86,0
40.00,39.98,0
40.00,40.11,0
40.00,40.20,0
38.00,40.25,0
40.00,40.25,0
40.00,40.22,0
39.00,40.18,0
41.00,40.14,0
38.00,40.09,0
40.00,40.03,0
36.00,39.93,0
39.00,39.79,0
39.00,39.62,0
41.00,39.50,0
40.00,39.42,0
40.00,39.40,0
41.00,39.40,0
39.00,39.44,0
38.00,39.46,0
44.00,39.48,0
40.00,39.57,0
40.00,39.68,0
41.00,39.78,0
40.00,39.89,0
40.00,39.98,0
40.00,40.05,0
40.00,40.10,0
42.00,40.15,0
39.00,40.21,0
40.00,40.25,0
40.00,40.26,0
40.00,40.26,0
41.00,40.26,0
40.00,40.27,0
41.00,40.28,0
40.00,40.30,0
40.00,40.31,0
40.00,40.31,0
41.00,40.31,0
38.00,40.30,0
40.00,40.25,0
40.00,40.19,0
36.00,40.11,0
39.00,39.97,0
41.00,39.82,0
40.00,39.72,0
38.00,39.65,0
38.00,39.55,0
39.00,39.44,0
41.00,39.35,0
40.00,39.31,0
41.00,39.31,0
38.00,39.34,0
40.00,39.36,0
41.00,39.39,0
41.00,39.45,0
40.00,39.55,0
40.00,39.64,0
39.00,39.72,0
41.00,39.77,0
40.00,39.83,0
40.00,39.89,0
38.00,39.93,0
41.00,39.93,0
41.00,39.94,0
40.00,39.97,0
39.00,40.00,0
41.00,40.02,0
39.00,40.02,0
41.00,40.03,0
39.00,40.03,0
39.00,40.02,0
39.00,39.97,0
37.00,39.89,0
40.00,39.77,0
44.00,39.70,0
40.00,39.72,0
44.00,39.81,0
43.00,39.98,0
40.00,40.19,0
40.00,40.36,0
42.00,40.50,0
41.00,40.64,0
39.00,40.74,0
40.00,40.78,0
40.00,40.79,0
39.00,40.75,0
38.00,40.67,0
40.00,40.54,0
41.00,40.42,0
39.00,40.32,0
40.00,40.23,0
40.00,40.14,0
40.00,40.07,0
40.00,40.01,0
40.00,39.97,0
41.00,39.95,0
40.00,39.95,0
40.00,39.96,0
40.00,39.97,0
40.00,39.97,0
40.00,39.98,0
40.00,39.99,0
40.00,39.99,0
41.00,40.01,0
40.00,40.03,0
40.00,40.06,0
39.00,40.07,0
40.00,40.06,0
40.00,40.04,0
40.00,40.02,0
40.00,40.01,0
39.00,39.99,0
41.00,39.97,0
38.00,39.95,0
40.00,39.91,0
42.00,39.88,0
41.00,39.90,0
39.00,39.95,0
41.00,39.98,0
39.00,40.01,0
41.00,40.03,0
40.00,40.06,0
40.00,40.08,0
38.00,40.08,0
39.00,40.04,0
38.00,39.95,0
40.00,39.85,0
43.00,39.78,0
40.00,39.79,0
44.00,39.86,0
40.00,39.98,0
40.00,40.11,0
43.00,40.23,0
38.00,40.34,0
40.00,40.41,0
40.00,40.43,0
44.00,40.47,0
40.00,40.55,0
39.00,40.61,0
40.00,40.63,0
40.00,40.61,0
43.00,40.60,0
39.00,40.61,0
41.00,40.62,0
40.00,40.61,0
42.00,40.61,0
38.00,40.61,0
40.00,40.57,0
39.00,40.49,0
39.00,40.40,0
40.00,40.29,0
41.00,40.19,0
39.00,40.12,0
38.00,40.04,0
40.00,39.93,0
40.00,39.84,0
40.00,39.77,0
40.00,39.73,0
41.00,39.72,0
40.00,39.73,0
40.00,39.76,0
39.00,39.78,0
40.00,39.79,0
43.00,39.81,0
40.00,39.89,0
40.00,39.98,0
40.00,40.04,0
41.00,40.10,0
41.00,40.17,0
39.00,40.23,0
42.00,40.27,0
40.00,40.33,0
41.00,40.38,0
40.00,40.42,0
40.00,40.45,0
43.00,40.48,0
39.00,40.53,0
42.00,40.58,0
40.00,40.61,0
40.00,40.64,0
40.00,40.64,0
38.00,40.60,0
44.00,40.55,0
38.00,40.53,0
40.00,40.50,0
39.00,40.43,0
40.00,40.35,0
40.00,40.26,0
40.00,40.19,0
40.00,40.13,0
40.00,40.08,0
41.00,40.05,0
41.00,40.05,0
40.00,40.07,0
40.00,40.09,0
39.00,40.10,0
44.00,40.12,0
40.00,40.18,0
40.00,40.26,0
40.00,40.31,0
40.00,40.34,0
41.00,40.36,0
39.00,40.37,0
41.00,40.37,0
40.00,40.36,0
40.00,40.35,0
39.00,40.32,0
41.00,40.28,0
39.00,40.24,0
42.00,40.21,0
40.00,40.21,0
41.00,40.22,0
40.00,40.24,0
40.00,40.26,0
40.00,40.26,0
40.00,40.26,0
41.00,40.25,0
42.00,40.27,0
40.00,40.32,0
40.00,40.36,0
40.00,40.38,0
36.00,40.35,0
40.00,40.25,0
41.00,40.14,0
42.00,40.09,0
41.00,40.09,0
43.00,40.15,0
38.00,40.23,0
40.00,40.28,0
42.00,40.30,0
39.00,40.34,0
38.00,40.34,0
40.00,40.28,0
40.00,40.22,0
36.00,40.12,0
40.00,39.98,0
41.00,39.85,0
40.00,39.78,0
41.00,39.74,0
40.00,39.74,0
40.00,39.76,0
44.00,39.81,0
40.00,39.92,0
40.00,40.04,0
40.00,40.13,0
38.00,40.18,0
40.00,40.18,0
40.00,40.16,0
39.00,40.12,0
39.00,40.07,0
40.00,40.00,0
38.00,39.93,0
42.00,39.85,0
40.00,39.82,0
40.00,39.82,0
43.00,39.84,0
39.00,39.91,0
41.00,39.98,0
38.00,40.03,0
41.00,40.05,0
40.00,40.06,0
40.00,40.07,0
40.00,40.08,0
43.00,40.11,0
34.00,40.13,0
40.00,40.07,0
38.00,39.95,0
40.00,39.83,0
40.00,39.73,0
40.00,39.66,0
40.00,39.62,0
42.00,39.61,0
40.00,39.66,0
40.00,39.72,0
39.00,39.77,0
43.00,39.82,0
43.00,39.93,0
40.00,40.09,0
39.00,40.23,0
40.00,40.31,0
40.00,40.35,0
40.00,40.37,0
39.00,40.37,0
38.00,40.32,0
39.00,40.22,0
39.00,40.10,0
40.00,39.98,0
39.00,39.87,0
40.00,39.78,0
39.00,39.69,0
39.00,39.62,0
40.00,39.55,0
41.00,39.51,0
40.00,39.51,0
44.00,39.57,0
40.00,39.70,0
42.00,39.85,0
40.00,40.01,0
40.00,40.14,0
40.00,40.24,0
36.00,40.27,0
40.00,40.22,0
39.00,40.14,0
40.00,40.05,0
40.00,39.97,0
43.00,39.94,0
39.00,39.96,0
40.00,39.98,0
40.00,39.99,0
40.00,40.00,0
40.00,40.01,0
42.00,40.03,0
41.00,40.09,0
39.00,40.15,0
40.00,40.18,0
42.00,40.21,0
39.00,40.25,0
40.00,40.28,0
39.00,40.27,0
40.00,40.23,0
39.00,40.19,0
45.00,40.17,0
38.00,40.21,0
41.00,40.24,0
42.00,40.28,0
40.00,40.34,0
38.00,40.38,0
40.00,40.36,0
39.00,40.31,0
41.00,40.25,0
41.00,40.22,0
40.00,40.21,0
40.00,40.20,0
41.00,40.20,0
39.00,40.20,0
44.00,40.22,0
40.00,40.28,0
44.00,40.39,0
41.00,40.53,0
40.00,40.67,0
37.00,40.73,0
40.00,40.71,0
40.00,40.65,0
40.00,40.57,0
39.00,40.49,0
40.00,40.40,0
40.00,40.31,0
39.00,40.22,0
39.00,40.12,0
39.00,40.00,0
43.00,39.92,0
43.00,39.92,0
39.00,39.99,0
40.00,40.06,0
41.00,40.10,0
40.00,40.15,0
40.00,40.19,0
40.00,40.22,0
40.00,40.23,0
41.00,40.24,0
41.00,40.26,0
39.00,40.29,0
39.00,40.28,0
40.00,40.24,0
40.00,40.19,0
38.00,40.14,0
40.00,40.05,0
39.00,39.97,0
40.00,39.88,0
40.00,39.82,0
40.00,39.77,0
39.00,39.74,0
40.00,39.70,0
40.00,39.68,0
39.00,39.66,0
40.00,39.64,0
39.00,39.62,0
39.00,39.60,0
38.00,39.55,0
41.00,39.50,0
42.00,39.49,0
41.00,39.55,0
40.00,39.64,0
39.00,39.72,0
39.00,39.77,0
43.00,39.82,0
40.00,39.90,0
40.00,39.99,0
40.00,40.06,0
40.00,40.11,0
40.00,40.14,0
41.00,40.17,0
39.00,40.20,0
40.00,40.20,0
39.00,40.18,0
40.00,40.14,0
40.00,40.10,0
40.00,40.07,0
40.00,40.04,0
43.00,40.04,0
43.00,40.11,0
40.00,40.24,0
40.00,40.35,0
41.00,40.44,0
40.00,40.50,0
39.00,40.53,0
39.00,40.52,0
39.00,40.45,0
39.00,40.36,0
40.00,40.25,0
40.00,40.15,0
39.00,40.06,0
39.00,39.96,0
39.00,39.86,0
43.00,39.79,0
40.00,39.78,0
39.00,39.80,0
40.00,39.80,0
42.00,39.82,0
39.00,39.86,0
40.00,39.90,0
40.00,39.92,0
41.00,39.95,0
40.00,39.99,0
40.00,40.03,0
40.00,40.06,0
41.00,40.09,0
38.00,40.11,0
42.00,40.11,0
38.00,40.11,0
44.00,40.12,0
44.00,40.21,0
40.00,40.36,0
39.00,40.50,0
42.00,40.58,0
40.00,40.66,0
39.00,40.70,0
39.00,40.68,0
40.00,40.62,0
40.00,40.54,0
38.00,40.45,0
40.00,40.34,0
39.00,40.21,0
42.00,40.11,0
40.00,40.05,0
39.00,40.02,0
40.00,39.97,0
39.00,39.92,0
38.00,39.85,0
45.00,39.81,0
40.00,39.84,0
40.00,39.92,0
43.00,40.00,0
40.00,40.12,0
41.00,40.23,0
38.00,40.31,0
39.00,40.33,0
42.00,40.32,0
40.00,40.32,0
43.00,40.35,0
42.00,40.43,0
39.00,40.53,0
40.00,40.58,0
38.00,40.58,0
39.00,40.52,0
39.00,40.41,0
43.00,40.32,0
39.00,40.27,0
40.00,40.23,0
35.00,40.15,0
39.00,39.98,0
39.00,39.80,0
38.00,39.62,0
40.00,39.45,0
42.00,39.35,0
41.00,39.33,0
41.00,39.38,0
37.00,39.44,0
41.00,39.46,0
40.00,39.50,0
40.00,39.55,0
39.00,39.59,0
41.00,39.63,0
40.00,39.68,0
40.00,39.74,0
40.00,39.79,0
39.00,39.83,0
38.00,39.83,0
40.00,39.79,0
41.00,39.77,0
41.00,39.78,0
39.00,39.81,0
38.00,39.82,0
40.00,39.79,0
39.00,39.75,0
40.00,39.71,0
38.00,39.66,0
40.00,39.61,0
35.00,39.52,0
40.00,39.39,0
39.00,39.26,0
40.00,39.16,0
40.00,39.11,0
40.00,39.10,0
40.00,39.13,0
40.00,39.17,0
40.00,39.24,0
39.00,39.30,0
38.00,39.34,0
42.00,39.37,0
39.00,39.42,0
41.00,39.48,0
40.00,39.56,0
39.00,39.63,0
38.00,39.66,0
41.00,39.67,0
40.00,39.68,0
41.00,39.72,0
41.00,39.78,0
40.00,39.86,0
39.00,39.93,0
40.00,39.96,0
40.00,39.98,0
40.00,40.00,0
40.00,40.01,0
41.00,40.03,0
39.00,40.05,0
38.00,40.04,0
41.00,39.99,0
41.00,39.97,0
40.00,39.98,0
39.00,39.98,0
40.00,39.97,0
40.00,39.96,0
41.00,39.96,0
39.00,39.96,0
44.00,40.00,0
41.00,40.09,0
41.00,40.21,0
40.00,40.32,0
40.00,40.40,0
40.00,40.45,0
41.00,40.49,0
44.00,40.54,0
40.00,40.64,0
38.00,40.71,0
41.00,40.72,0
40.00,40.70,0
40.00,40.67,0
40.00,40.62,0
40.00,40.57,0
40.00,40.51,0
41.00,40.45,0
40.00,40.41,0
39.00,40.37,0
40.00,40.31,0
39.00,40.23,0
40.00,40.15,0
35.00,40.04,0
39.00,39.86,0
39.00,39.66,0
38.00,39.48,0
42.00,39.34,0
39.00,39.26,0
38.00,39.20,0
40.00,39.15,0
40.00,39.12,0
42.00,39.14,0
39.00,39.21,0
41.00,39.30,0
41.00,39.41,0
43.00,39.56,0
40.00,39.74,0
40.00,39.92,0
40.00,40.05,0
39.00,40.15,0
41.00,40.20,0
40.00,40.25,0
43.00,40.31,0
41.00,40.40,0
39.00,40.49,0
38.00,40.52,0
39.00,40.47,0
40.00,40.39,0
40.00,40.31,0
40.00,40.23,0
41.00,40.18,0
34.00,40.09,0
40.00,39.94,0
39.00,39.77,0
40.00,39.62,0
40.00,39.52,0
40.00,39.46,0
38.00,39.41,0
40.00,39.36,0
40.00,39.33,0
42.00,39.35,0
39.00,39.40,0
41.00,39.47,0
43.00,39.58,0
41.00,39.74,0
39.00,39.90,0
40.00,40.02,0
43.00,40.13,0
40.00,40.25,0
34.00,40.31,0
40.00,40.25,0
40.00,40.15,0
40.00,40.06,0
43.00,40.02,0
42.00,40.05,0
42.00,40.15,0
41.00,40.28,0
44.00,40.43,0
43.00,40.63,0
40.00,40.85,0
38.00,40.99,0
39.00,41.03,0
43.00,41.01,0
40.00,41.01,0
38.00,40.98,0
40.00,40.89,0
38.00,40.76,0
40.00,40.61,0
42.00,40.47,0
41.00,40.39,0
39.00,40.34,0
44.00,40.32,0
39.00,40.34,0
41.00,40.37,0
39.00,40.38,0
42.00,40.38,0
40.00,40.40,0
36.00,40.38,0
40.00,40.29,0
44.00,40.21,0
39.00,40.20,0
39.00,40.19,0
40.00,40.16,0
38.00,40.10,0
39.00,40.01,0
40.00,39.91,0
38.00,39.81,0
40.00,39.71,0
44.00,39.66,0
38.00,39.68,0
38.00,39.69,0
37.00,39.64,0
40.00,39.54,0
39.00,39.45,0
40.00,39.38,0
38.00,39.33,0
37.00,39.25,0
40.00,39.15,0
40.00,39.07,0
40.00,39.05,0
41.00,39.07,0
40.00,39.13,0
41.00,39.23,0
40.00,39.34,0
39.00,39.45,0
39.00,39.52,0
41.00,39.58,0
40.00,39.65,0
40.00,39.71,0
40.00,39.78,0
42.00,39.85,0
40.00,39.94,0
40.00,40.03,0
40.00,40.10,0
40.00,40.14,0
40.00,40.17,0
40.00,40.19,0
41.00,40.21,0
35.00,40.19,0
40.00,40.09,0
38.00,39.96,0
42.00,39.84,0
39.00,39.77,0
40.00,39.72,0
37.00,39.66,0
40.00,39.57,0
42.00,39.51,0
44.00,39.55,0
38.00,39.66,0
40.00,39.76,0
41.00,39.83,0
41.00,39.91,0
40.00,40.00,0
41.00,40.09,0
40.00,40.17,0
40.00,40.23,0
40.00,40.27,0
40.00,40.29,0
40.00,40.30,0
40.00,40.30,0
40.00,40.28,0
40.00,40.26,0
39.00,40.23,0
36.00,40.15,0
40.00,40.01,0
39.00,39.86,0
40.00,39.73,0
39.00,39.63,0
40.00,39.55,0
39.00,39.48,0
39.00,39.43,0
43.00,39.40,0
40.00,39.45,0
39.00,39.51,0
44.00,39.60,0
40.00,39.73,0
40.00,39.88,0
38.00,39.97,0
40.00,40.02,0
40.00,40.03,0
40.00,40.04,0
40.00,40.05,0
45.00,40.09,0
39.00,40.20,0
41.00,40.30,0
39.00,40.37,0
37.00,40.38,0
39.00,40.31,0
40.00,40.20,0
38.00,40.09,0
43.00,39.99,0
41.00,39.96,0
40.00,39.98,0
39.00,39.99,0
41.00,40.00,0
43.00,40.03,0
39.00,40.11,0
40.00,40.17,0
39.00,40.19,0
40.00,40.19,0
39.00,40.17,0
41.00,40.13,0
40.00,40.11,0
41.00,40.11,0
40.00,40.12,0
42.00,40.15,0
40.00,40.20,0
43.00,40.27,0
39.00,40.36,0
40.00,40.42,0
41.00,40.45,0
40.00,40.48,0
40.00,40.50,0
41.00,40.50,0
40.00,40.50,0
40.00,40.49,0
40.00,40.47,0
39.00,40.43,0
40.00,40.37,0
38.00,40.29,0
40.00,40.18,0
40.00,40.08,0
36.00,39.96,0
40.00,39.81,0
39.00,39.66,0
40.00,39.54,0
40.00,39.46,0
38.00,39.40,0
41.00,39.34,0
39.00,39.32,0
40.00,39.31,0
40.00,39.32,0
43.00,39.38,0
40.00,39.49,0
41.00,39.62,0
40.00,39.75,0
40.00,39.87,0
40.00,39.96,0
39.00,40.03,0
40.00,40.06,0
45.00,40.11,0
42.00,40.25,0
39.00,40.41,0
40.00,40.52,0
40.00,40.58,0
40.00,40.61,0
40.00,40.61,0
40.00,40.58,0
41.00,40.56,0
39.00,40.53,0
40.00,40.48,0
43.00,40.44,0
40.00,40.45,0
39.00,40.46,0
40.00,40.43,0
38.00,40.37,0
38.00,40.27,0
40.00,40.13,0
39.00,39.99,0
41.00,39.88,0
39.00,39.80,0
40.00,39.74,0
40.00,39.69,0
38.00,39.65,0
39.00,39.59,0
41.00,39.53,0
38.00,39.49,0
40.00,39.46,0
40.00,39.43,0
40.00,39.43,0
39.00,39.44,0
40.00,39.45,0
40.00,39.47,0
41.00,39.50,0
40.00,39.57,0
41.00,39.65,0
40.00,39.73,0
37.00,39.79,0
40.00,39.79,0
39.00,39.77,0
39.00,39.73,0
40.00,39.69,0
39.00,39.65,0
40.00,39.62,0
40.00,39.59,0
40.00,39.59,0
39.00,39.59,0
41.00,39.60,0
40.00,39.63,0
40.00,39.67,0
39.00,39.70,0
39.00,39.71,0
40.00,39.71,0
40.00,39.70,0
40.00,39.71,0
39.00,39.72,0
40.00,39.71,0
38.00,39.70,0
41.00,39.67,0
38.00,39.64,0
40.00,39.61,0
40.00,39.58,0
40.00,39.57,0
39.00,39.57,0
39.00,39.56,0
40.00,39.54,0
40.00,39.54,0
44.00,39.58,0
40.00,39.69,0
40.00,39.82,0
40.00,39.93,0
40.00,40.01,0
41.00,40.08,0
43.00,40.17,0
39.00,40.28,0
44.00,40.40,0
40.00,40.54,0
40.00,40.65,0
38.00,40.70,0
41.00,40.70,0
42.00,40.68,0
40.00,40.69,0
42.00,40.71,0
40.00,40.73,0
39.00,40.73,0
40.00,40.69,0
38.00,40.61,0
41.00,40.51,0
39.00,40.41,0
36.00,40.27,0
39.00,40.08,0
40.00,39.88,0
39.00,39.72,0
43.00,39.61,0
37.00,39.56,0
39.00,39.50,0
39.00,39.42,0
40.00,39.36,0
40.00,39.32,0
41.00,39.33,0
40.00,39.37,0
39.00,39.42,0
42.00,39.48,0
40.00,39.57,0
39.00,39.65,0
39.00,39.71,0
40.00,39.73,0
41.00,39.76,0
40.00,39.81,0
39.00,39.85,0
40.00,39.87,0
40.00,39.88,0
41.00,39.90,0
39.00,39.93,0
41.00,39.95,0
43.00,40.00,0
41.00,40.11,0
40.00,40.23,0
41.00,40.32,0
40.00,40.40,0
41.00,40.47,0
39.00,40.51,0
44.00,40.55,0
35.00,40.58,0
41.00,40.54,0
39.00,40.46,0
40.00,40.38,0
40.00,40.29,0
40.00,40.22,0
40.00,40.15,0
40.00,40.10,0
40.00,40.06,0
40.00,40.02,0
40.00,39.99,0
41.00,39.98,0
40.00,39.99,0
43.00,40.03,0
40.00,40.11,0
39.00,40.18,0
40.00,40.21,0
39.00,40.21,0
40.00,40.19,0
39.00,40.15,0
40.00,40.10,0
39.00,40.04,0
40.00,39.98,0
40.00,39.92,0
44.00,39.92,0
41.00,39.99,0
41.00,40.10,0
39.00,40.20,0
40.00,40.26,0
40.00,40.29,0
40.00,40.30,0
39.00,40.29,0
39.00,40.25,0
39.00,40.18,0
40.00,40.09,0
40.00,40.02,0
39.00,39.95,0
40.00,39.88,0
38.00,39.81,0
39.00,39.72,0
40.00,39.63,0
40.00,39.57,0
38.00,39.51,0
39.00,39.45,0
39.00,39.38,0
39.00,39.31,0
42.00,39.27,0
40.00,39.29,0
39.00,39.34,0
41.00,39.39,0
39.00,39.45,0
38.00,39.49,0
41.00,39.50,0
41.00,39.53,0
38.00,39.58,0
41.00,39.62,0
39.00,39.65,0
40.00,39.68,0
40.00,39.70,0
40.00,39.73,0
40.00,39.76,0
36.00,39.75,0
43.00,39.72,0
40.00,39.72,0
39.00,39.74,0
41.00,39.76,0
39.00,39.78,0
39.00,39.79,0
40.00,39.78,0
40.00,39.77,0
36.00,39.74,0
40.00,39.65,0
40.00,39.57,0
40.00,39.52,0
39.00,39.49,0
43.00,39.49,0
40.00,39.55,0
41.00,39.65,0
40.00,39.74,0
39.00,39.83,0
42.00,39.90,0
40.00,39.98,0
41.00,40.07,0
40.00,40.15,0
40.00,40.21,0
40.00,40.25,0
40.00,40.28,0
40.00,40.28,0
39.00,40.27,0
38.00,40.22,0
41.00,40.14,0
40.00,40.08,0
40.00,40.04,0
40.00,40.00,0
41.00,39.98,0
40.00,39.99,0
40.00,40.00,0
40.00,40.01,0
38.00,40.00,0
39.00,39.95,0
38.00,39.86,0
39.00,39.76,0
40.00,39.65,0
40.00,39.57,0
40.00,39.52,0
41.00,39.51,0
38.00,39.52,0
40.00,39.52,0
41.00,39.52,0
41.00,39.57,0
39.00,39.63,0
41.00,39.69,0
39.00,39.75,0
36.00,39.76,0
40.00,39.70,0
39.00,39.63,0
40.00,39.56,0
41.00,39.53,0
40.00,39.54,0
44.00,39.60,0
40.00,39.73,0
40.00,39.87,0
40.00,39.98,0
41.00,40.07,0
40.00,40.15,0
40.00,40.22,0
40.00,40.27,0
40.00,40.29,0
38.00,40.28,0
40.00,40.23,0
39.00,40.17,0
40.00,40.09,0
39.00,40.02,0
39.00,39.93,0
42.00,39.86,0
40.00,39.84,0
40.00,39.85,0
40.00,39.85,0
41.00,39.87,0
39.00,39.90,0
40.00,39.92,0
40.00,39.92,0
39.00,39.92,0
37.00,39.88,0
40.00,39.80,0
39.00,39.71,0
40.00,39.63,0
40.00,39.58,0
40.00,39.55,0
43.00,39.57,0
40.00,39.65,0
42.00,39.76,0
40.00,39.89,0
39.00,40.00,0
40.00,40.06,0
40.00,40.10,0
41.00,40.14,0
39.00,40.17,0
40.00,40.18,0
40.00,40.17,0
40.00,40.16,0
40.00,40.15,0
40.00,40.13,0
41.00,40.12,0
40.00,40.13,0
39.00,40.13,0
39.00,40.10,0
40.00,40.05,0
38.00,39.99,0
41.00,39.91,0
43.00,39.89,0
44.00,39.96,0
38.00,40.09,0
39.00,40.18,0
38.00,40.19,0
40.00,40.15,0
43.00,40.12,0
42.00,40.17,0
41.00,40.26,0
39.00,40.35,0
38.00,40.38,0
40.00,40.34,0
39.00,40.28,0
44.00,40.24,0
40.00,40.27,0
39.00,40.30,0
40.00,40.29,0
40.00,40.27,0
40.00,40.25,0
39.00,40.22,0
40.00,40.17,0
40.00,40.11,0
43.00,40.10,0
38.00,40.11,0
40.00,40.11,0
40.00,40.09,0
40.00,40.07,0
39.00,40.05,0
41.00,40.02,0
39.00,40.00,0
40.00,39.97,0
42.00,39.96,0
40.00,39.99,0
40.00,40.03,0
40.00,40.05,0
37.00,40.05,0
41.00,40.00,0
39.00,39.95,0
40.00,39.90,0
39.00,39.85,0
40.00,39.80,0
40.00,39.77,0
40.00,39.74,0
39.00,39.73,0
41.00,39.72,0
40.00,39.72,0
40.00,39.75,0
41.00,39.78,0
40.00,39.83,0
40.00,39.88,0
38.00,39.91,0
40.00,39.90,0
40.00,39.88,0
38.00,39.85,0
40.00,39.80,0
39.00,39.75,0
40.00,39.70,0
42.00,39.68,0
39.00,39.70,0
40.00,39.72,0
39.00,39.73,0
41.00,39.74,0
38.00,39.75,0
41.00,39.75,0
39.00,39.75,0
41.00,39.75,0
39.00,39.77,0
39.00,39.77,0
43.00,39.78,0
39.00,39.83,0
40.00,39.88,0
41.00,39.92,0
40.00,39.97,0
40.00,40.02,0
40.00,40.05,0
40.00,40.08,0
40.00,40.10,0
40.00,40.11,0
40.00,40.11,0
40.00,40.11,0
40.00,40.10,0
41.00,40.11,0
40.00,40.12,0
43.00,40.16,0
40.00,40.24,0
40.00,40.31,0
41.00,40.36,0
39.00,40.40,0
44.00,40.44,0
39.00,40.50,0
41.00,40.56,0
42.00,40.61,0
41.00,40.68,0
40.00,40.74,0
40.00,40.77,0
40.00,40.77,0
40.00,40.74,0
42.00,40.71,0
40.00,40.70,0
40.00,40.69,0
41.00,40.66,0
40.00,40.63,0
36.00,40.57,0
40.00,40.44,0
40.00,40.29,0
39.00,40.15,0
40.00,40.03,0
40.00,39.93,0
41.00,39.86,0
40.00,39.84,0
41.00,39.84,0
40.00,39.86,0
39.00,39.88,0
39.00,39.87,0
40.00,39.85,0
40.00,39.83,0
40.00,39.82,0
41.00,39.82,0
39.00,39.84,0
43.00,39.88,0
40.00,39.95,0
40.00,40.03,0
35.00,40.05,0
40.00,39.98,0
40.00,39.89,0
40.00,39.82,0
40.00,39.78,0
41.00,39.76,0
39.00,39.76,0
44.00,39.79,0
40.00,39.89,0
41.00,40.00,0
37.00,40.08,0
40.00,40.09,0
40.00,40.08,0
40.00,40.06,0
38.00,40.03,0
39.00,39.97,0
40.00,39.89,0
40.00,39.82,0
40.00,39.78,0
40.00,39.75,0
38.00,39.72,0
38.00,39.66,0
39.00,39.56,0
40.00,39.47,0
41.00,39.42,0
40.00,39.42,0
40.00,39.45,0
39.00,39.48,0
41.00,39.51,0
40.00,39.55,0
39.00,39.61,0
38.00,39.63,0
40.00,39.61,0
40.00,39.60,0
42.00,39.61,0
40.00,39.67,0
40.00,39.75,0
39.00,39.80,0
41.00,39.84,0
40.00,39.89,0
40.00,39.93,0
40.00,39.97,0
39.00,39.99,0
39.00,39.98,0
40.00,39.95,0
40.00,39.92,0
43.00,39.93,0
40.00,39.98,0
41.00,40.06,0
39.00,40.12,0
38.00,40.14,0
39.00,40.10,0
38.00,40.02,0
39.00,39.91,0
38.00,39.77,0
40.00,39.64,0
40.00,39.53,0
40.00,39.47,0
40.00,39.44,0
41.00,39.44,0
42.00,39.49,0
43.00,39.62,0
40.00,39.79,0
42.00,39.97,0
38.00,40.12,0
41.00,40.23,0
43.00,40.32,0
39.00,40.44,0
38.00,40.50,0
40.00,40.49,0
41.00,40.46,0
41.00,40.44,0
40.00,40.44,0
39.00,40.43,0
38.00,40.37,0
38.00,40.25,0
40.00,40.11,0
43.00,40.00,0
38.00,39.96,0
42.00,39.93,0
39.00,39.92,0
45.00,39.96,0
40.00,40.06,0
39.00,40.17,0
41.00,40.24,0
40.00,40.29,0
40.00,40.33,0
40.00,40.35,0
40.00,40.36,0
39.00,40.34,0
40.00,40.30,0
40.00,40.25,0
40.00,40.20,0
40.00,40.16,0
44.00,40.16,0
42.00,40.23,0
39.00,40.34,0
40.00,40.41,0
39.00,40.43,0
42.00,40.43,0
40.00,40.44,0
43.00,40.48,0
38.00,40.53,0
41.00,40.54,0
40.00,40.54,0
40.00,40.53,0
38.00,40.48,0
40.00,40.40,0
39.00,40.30,0
39.00,40.19,0
40.00,40.07,0
40.00,39.98,0
40.00,39.90,0
40.00,39.85,0
39.00,39.81,0
41.00,39.77,0
38.00,39.74,0
42.00,39.72,0
38.00,39.72,0
40.00,39.70,0
39.00,39.68,0
40.00,39.66,0
40.00,39.64,0
41.00,39.65,0
40.00,39.68,0
42.00,39.75,0
39.00,39.83,0
41.00,39.90,0
40.00,39.97,0
40.00,40.03,0
39.00,40.07,0
41.00,40.08,0
38.00,40.09,0
40.00,40.06,0
40.00,40.02,0
40.00,39.99,0
40.00,39.97,0
40.00,39.96,0
39.00,39.94,0
39.00,39.90,0
42.00,39.87,0
40.00,39.87,0
38.00,39.88,0
40.00,39.85,0
40.00,39.83,0
37.00,39.78,0
42.00,39.73,0
43.00,39.73,0
40.00,39.80,0
43.00,39.91,0
42.00,40.07,0
40.00,40.24,0
41.00,40.39,0
39.00,40.50,0
39.00,40.55,0
40.00,40.54,0
40.00,40.51,0
39.00,40.46,0
42.00,40.41,0
40.00,40.38,0
35.00,40.33,0
40.00,40.19,0
41.00,40.04,0
40.00,39.95,0
43.00,39.91,0
39.00,39.93,0
40.00,39.95,0
40.00,39.96,0
38.00,39.96,0
40.00,39.92,0
44.00,39.91,0
42.00,39.99,0
40.00,40.12,0
43.00,40.25,0
37.00,40.37,0
40.00,40.42,0
39.00,40.41,0
40.00,40.38,0
39.00,40.32,0
35.00,40.21,0
39.00,40.02,0
41.00,39.82,0
39.00,39.68,0
41.00,39.58,0
39.00,39.52,0
42.00,39.50,0
40.00,39.53,0
39.00,39.57,0
40.00,39.60,0
39.00,39.62,0
40.00,39.63,0
41.00,39.65,0
40.00,39.69,0
44.00,39.78,0
39.00,39.91,0
42.00,40.04,0
39.00,40.16,0
40.00,40.24,0
41.00,40.30,0
40.00,40.35,0
40.00,40.38,0
43.00,40.42,0
40.00,40.48,0
38.00,40.53,0
41.00,40.52,0
39.00,40.48,0
44.00,40.47,0
39.00,40.49,0
39.00,40.50,0
38.00,40.44,0
41.00,40.36,0
39.00,40.27,0
39.00,40.18,0
43.00,40.10,0
41.00,40.09,0
40.00,40.12,0
42.00,40.17,0
40.00,40.23,0
41.00,40.29,0
42.00,40.36,0
42.00,40.46,0
38.00,40.56,0
40.00,40.59,0
41.00,40.59,0
40.00,40.59,0
41.00,40.58,0
41.00,40.59,0
41.00,40.60,0
40.00,40.62,0
40.00,40.62,0
40.00,40.60,0
41.00,40.57,0
39.00,40.54,0
37.00,40.46,0
39.00,40.32,0
40.00,40.17,0
40.00,40.03,0
40.00,39.93,0
40.00,39.85,0
40.00,39.80,0
39.00,39.76,0
40.00,39.72,0
40.00,39.69,0
44.00,39.71,0
40.00,39.80,0
40.00,39.91,0
39.00,39.99,0
40.00,40.03,0
43.00,40.08,0
40.00,40.16,0
40.00,40.25,0
40.00,40.30,0
40.00,40.33,0
40.00,40.34,0
40.00,40.34,0
39.00,40.32,0
40.00,40.28,0
44.00,40.26,0
40.00,40.31,0
40.00,40.36,0
40.00,40.40,0
38.00,40.39,0
40.00,40.34,0
39.00,40.26,0
40.00,40.18,0
42.00,40.12,0
41.00,40.11,0
39.00,40.13,0
43.00,40.15,0
41.00,40.21,0
40.00,40.30,0
40.00,40.36,0
41.00,40.40,0
42.00,40.45,0
41.00,40.52,0
40.00,40.60,0
42.00,40.66,0
40.00,40.71,0
41.00,40.76,0
38.00,40.77,0
39.00,40.71,0
40.00,40.62,0
40.00,40.52,0
38.00,40.40,0
39.00,40.27,0
42.00,40.13,0
40.00,40.06,0
39.00,40.00,0
41.00,39.95,0
40.00,39.92,0
39.00,39.91,0
40.00,39.88,0
39.00,39.85,0
39.00,39.80,0
39.00,39.74,0
40.00,39.68,0
43.00,39.66,0
41.00,39.71,0
39.00,39.79,0
41.00,39.86,0
40.00,39.93,0
41.00,40.00,0
40.00,40.07,0
39.00,40.12,0
40.00,40.14,0
41.00,40.14,0
39.00,40.15,0
37.00,40.12,0
40.00,40.04,0
40.00,39.95,0
38.00,39.86,0
40.00,39.77,0
40.00,39.69,0
38.00,39.63,0
41.00,39.56,0
39.00,39.52,0
41.00,39.51,0
40.00,39.52,0
40.00,39.55,0
43.00,39.62,0
40.00,39.73,0
39.00,39.84,0
40.00,39.91,0
39.00,39.95,0
41.00,39.98,0
42.00,40.02,0
35.00,40.06,0
40.00,40.01,0
38.00,39.92,0
40.00,39.82,0
41.00,39.75,0
40.00,39.71,0
41.00,39.71,0
40.00,39.74,0
40.00,39.77,0
39.00,39.80,0
41.00,39.82,0
39.00,39.84,0
41.00,39.86,0
38.00,39.87,0
39.00,39.85,0
40.00,39.81,0
40.00,39.78,0
40.00,39.76,0
40.00,39.75,0
40.00,39.75,0
40.00,39.76,0
40.00,39.78,0
41.00,39.81,0
40.00,39.85,0
39.00,39.89,0
40.00,39.91,0
39.00,39.90,0
44.00,39.92,0
39.00,39.99,0
39.00,40.05,0
39.00,40.06,0
40.00,40.04,0
40.00,40.02,0
43.00,40.02,0
39.00,40.07,0
41.00,40.12,0
39.00,40.15,0
40.00,40.16,0
40.00,40.16,0
40.00,40.15,0
41.00,40.14,0
41.00,40.16,0
40.00,40.19,0
40.00,40.22,0
40.00,40.23,0
38.00,40.22,0
39.00,40.16,0
39.00,40.07,0
42.00,39.99,0
36.00,39.92,0
42.00,39.84,0
40.00,39.78,0
39.00,39.75,0
43.00,39.75,0
40.00,39.79,0
39.00,39.85,0
42.00,39.90,0
38.00,39.95,0
44.00,40.00,0
39.00,40.09,0
41.00,40.17,0
40.00,40.24,0
40.00,40.29,0
40.00,40.32,0
41.00,40.34,0
39.00,40.35,0
41.00,40.35,0
39.00,40.34,0
38.00,40.29,0
42.00,40.22,0
40.00,40.18,0
39.00,40.15,0
41.00,40.11,0
39.00,40.08,0
39.00,40.04,0
41.00,39.99,0
40.00,39.96,0
40.00,39.94,0
43.00,39.96,0
40.00,40.02,0
40.00,40.10,0
44.00,40.18,0
39.00,40.30,0
40.00,40.39,0
40.00,40.45,0
40.00,40.47,0
43.00,40.50,0
41.00,40.56,0
39.00,40.62,0
41.00,40.65,0
40.00,40.66,0
39.00,40.64,0
40.00,40.59,0
43.00,40.55,0
39.00,40.54,0
41.00,40.53,0
40.00,40.52,0
40.00,40.50,0
40.00,40.46,0
39.00,40.42,0
39.00,40.34,0
40.00,40.25,0
43.00,40.19,0
38.00,40.17,0
40.00,40.14,0
40.00,40.09,0
40.00,40.06,0
41.00,40.04,0
39.00,40.03,0
40.00,40.01,0
39.00,39.98,0
40.00,39.95,0
40.00,39.91,0
40.00,39.89,0
40.00,39.87,0
39.00,39.86,0
41.00,39.84,0
40.00,39.84,0
41.00,39.87,0
43.00,39.93,0
44.00,40.07,0
40.00,40.27,0
42.00,40.46,0
39.00,40.61,0
40.00,40.71,0
37.00,40.72,0
39.00,40.66,0
39.00,40.53,0
40.00,40.40,0
40.00,40.27,0
40.00,40.17,0
39.00,40.08,0
41.00,40.00,0
40.00,39.94,0
39.00,39.90,0
40.00,39.86,0
40.00,39.82,0
39.00,39.79,0
39.00,39.75,0
40.00,39.71,0
42.00,39.69,0
40.00,39.72,0
39.00,39.76,0
40.00,39.78,0
38.00,39.78,0
42.00,39.77,0
40.00,39.78,0
40.00,39.82,0
39.00,39.85,0
42.00,39.87,0
40.00,39.92,0
41.00,39.98,0
43.00,40.07,0
41.00,40.20,0
38.00,40.32,0
37.00,40.35,0
40.00,40.30,0
40.00,40.22,0
43.00,40.18,0
39.00,40.18,0
39.00,40.18,0
40.00,40.15,0
40.00,40.11,0
39.00,40.07,0
43.00,40.04,0
40.00,40.07,0
43.00,40.13,0
41.00,40.23,0
40.00,40.34,0
43.00,40.45,0
40.00,40.56,0
41.00,40.67,0
40.00,40.74,0
40.00,40.78,0
41.00,40.79,0
39.00,40.78,0
40.00,40.74,0
34.00,40.63,0
43.00,40.44,0
40.00,40.29,0
39.00,40.18,0
39.00,40.07,0
41.00,39.96,0
38.00,39.88,0
42.00,39.81,0
40.00,39.77,0
41.00,39.78,0
39.00,39.81,0
44.00,39.85,0
38.00,39.94,0
40.00,40.00,0
40.00,40.03,0
39.00,40.05,0
42.00,40.06,0
40.00,40.09,0
40.00,40.13,0
41.00,40.16,0
43.00,40.22,0
41.00,40.32,0
40.00,40.43,0
40.00,40.51,0
39.00,40.54,0
36.00,40.50,0
40.00,40.38,0
39.00,40.23,0
43.00,40.12,0
39.00,40.06,0
42.00,40.04,0
40.00,40.05,0
41.00,40.08,0
39.00,40.11,0
40.00,40.12,0
39.00,40.11,0
42.00,40.09,0
35.00,40.06,0
39.00,39.96,0