40.00,40.32,0
38.00,40.31,0
41.00,40.26,0
41.00,40.23,0
40.00,40.22,0
40.00,40.21,0
42.00,40.22,0
40.00,40.25,0
40.00,40.28,0
40.00,40.29,0
39.00,40.29,0
43.00,40.28,0
40.00,40.31,0
40.00,40.34,0
41.00,40.37,0
40.00,40.39,0
41.00,40.41,0
40.00,40.43,0
39.00,40.43,0
40.00,40.40,0
40.00,40.35,0
40.00,40.31,0
40.00,40.26,0
40.00,40.22,0
44.00,40.21,0
40.00,40.27,0
42.00,40.35,0
39.00,40.42,0
40.00,40.47,0
38.00,40.46,0
40.00,40.41,0
41.00,40.35,0
43.00,40.33,0
41.00,40.37,0
40.00,40.43,0
44.00,40.50,0
40.00,40.61,0
40.00,40.70,0
38.00,40.73,0
44.00,40.73,0
40.00,40.76,0
44.00,40.82,0
40.00,40.90,0
40.00,40.97,0
39.00,40.98,0
42.00,40.96,0
39.00,40.92,0
40.00,40.87,0
40.00,40.79,0
40.00,40.70,0
40.00,40.61,0
41.00,40.53,0
43.00,40.50,0
40.00,40.51,0
38.00,40.51,0
41.00,40.47,0
40.00,40.43,0
41.00,40.39,0
40.00,40.37,0
40.00,40.35,0
40.00,40.33,0
38.00,40.28,0
42.00,40.22,0
40.00,40.18,0
40.00,40.16,0
39.00,40.13,0
40.00,40.09,0
40.00,40.05,0
40.00,40.01,0
39.00,39.98,0
40.00,39.94,0
40.00,39.90,0
44.00,39.91,0
40.00,39.98,0
41.00,40.08,0
40.00,40.17,0
39.00,40.23,0
40.00,40.25,0
40.00,40.26,0
40.00,40.25,0
39.00,40.23,0
40.00,40.18,0
40.00,40.14,0
40.00,40.10,0
41.00,40.08,0
39.00,40.06,0
41.00,40.05,0
39.00,40.04,0
40.00,40.02,0
40.00,40.00,0
41.00,39.99,0
40.00,40.00,0
39.00,40.01,0
40.00,40.00,0
40.00,39.98,0
40.00,39.97,0
39.00,39.95,0
40.00,39.93,0
43.00,39.92,0
39.00,39.97,0
40.00,40.01,0
41.00,40.04,0
43.00,40.10,0
40.00,40.21,0
40.00,40.30,0
39.00,40.36,0
40.00,40.37,0
40.00,40.36,0
40.00,40.34,0
43.00,40.34,0
39.00,40.37,0
44.00,40.42,0
40.00,40.50,0
41.00,40.59,0
40.00,40.65,0
42.00,40.71,0
40.00,40.75,0
40.00,40.78,0
40.00,40.78,0
41.00,40.76,0
40.00,40.73,0
40.00,40.70,0
41.00,40.66,0
38.00,40.61,0
40.00,40.52,0
38.00,40.41,0
41.00,40.28,0
40.00,40.18,0
42.00,40.12,0
35.00,40.06,0
44.00,39.98,0
40.00,39.94,0
42.00,39.97,0
41.00,40.03,0
41.00,40.12,0
40.00,40.20,0
44.00,40.30,0
39.00,40.43,0
41.00,40.53,0
41.00,40.61,0
40.00,40.68,0
38.00,40.69,0
45.00,40.69,0
40.00,40.74,0
39.00,40.78,0
40.00,40.77,0
41.00,40.73,0
39.00,40.69,0
40.00,40.63,0
40.00,40.55,0
39.00,40.47,0
43.00,40.40,0
40.00,40.37,0
40.00,40.36,0
38.00,40.33,0
42.00,40.28,0
39.00,40.23,0
42.00,40.21,0
39.00,40.20,0
42.00,40.21,0
38.00,40.21,0
42.00,40.21,0
42.00,40.23,0
43.00,40.32,0
38.00,40.42,0
45.00,40.52,0
36.00,40.61,0
42.00,40.65,0
40.00,40.66,0
43.00,40.68,0
37.00,40.71,0
44.00,40.71,0
46.00,40.78,0
42.00,40.95,0
41.00,41.15,0
40.00,41.29,0
40.00,41.36,0
44.00,41.41,0
40.00,41.46,0
40.00,41.48,0
42.00,41.47,0
40.00,41.44,0
43.00,41.42,0
38.00,41.38,0
43.00,41.33,0
38.00,41.26,0
47.00,41.22,0
39.00,41.23,0
42.00,41.26,0
36.00,41.24,0
42.00,41.14,0
36.00,41.00,0
41.00,40.81,0
34.00,40.58,0
45.00,40.34,0
40.00,40.17,0
44.00,40.11,0
37.00,40.11,0
48.00,40.15,0
38.00,40.27,0
50.00,40.46,0
39.00,40.74,0
47.00,41.04,0
37.00,41.33,0
41.00,41.51,0
39.00,41.59,0
40.00,41.58,0
38.00,41.50,0
37.00,41.33,0
41.00,41.10,0
39.00,40.88,0
46.00,40.72,0
51.00,40.75,0
39.00,40.98,0
41.00,41.20,0
44.00,41.37,0
39.00,41.52,0
44.00,41.63,0
38.00,41.71,0
45.00,41.75,0
38.00,41.77,0
46.00,41.79,0
36.00,41.79,0
49.00,41.79,0
45.00,41.89,0
54.00,42.17,0
38.00,42.57,0
48.00,42.94,0
35.00,43.20,0
65.00,43.48,0
48.00,44.02,0
47.00,44.69,0
39.00,45.22,0
45.00,45.53,0
43.00,45.68,0
51.00,45.79,0
48.00,45.95,0
50.00,46.19,0
41.00,46.40,0
60.00,46.62,0
46.00,46.95,0
52.00,47.34,0
50.00,47.72,0
50.00,48.10,0
41.00,48.38,0
44.00,48.45,0
43.00,48.32,0
44.00,48.06,0
46.00,47.74,0
45.00,47.41,0
40.00,47.05,0
42.00,46.60,0
63.00,46.27,0
62.00,46.38,0
64.00,47.01,0
56.00,47.96,0
78.00,49.21,0
51.00,50.70,0
67.00,52.20,0
64.00,53.67,0
84.00,55.32,0
66.00,57.21,0
93.00,59.31,0
53.00,61.46,0
54.00,63.16,0
71.00,64.28,0
48.00,65.03,0
65.00,65.36,0
75.00,65.55,0
64.00,65.83,0
72.00,66.13,0
83.00,66.59,0
59.00,67.19,0
64.00,67.61,0
57.00,67.71,0
59.00,67.51,0
56.00,67.04,0
46.00,66.26,0
56.00,65.16,0
76.00,64.11,0
43.00,63.26,0
83.00,62.55,0
68.00,62.24,0
86.00,62.45,0
73.00,63.15,0
106.00,64.38,0
82.00,66.21,0
89.00,68.39,0
72.00,70.53,0
146.00,72.95,0
74.00,76.00,0
96.00,79.04,0
70.00,81.50,0
95.00,83.42,0
64.00,84.80,0
120.00,85.88,0
93.00,87.14,0
152.00,89.00,0
81.00,91.43,0
164.00,94.19,0
90.00,97.30,0
64.00,99.82,0
96.00,101.03,0
71.00,101.31,0
90.00,100.89,0
97.00,100.11,0
85.00,99.25,0
127.00,98.58,0
80.00,98.27,0
98.00,97.97,0
73.00,97.38,0
73.00,96.34,0
81.00,94.85,0
99.00,93.34,0
101.00,92.24,0
113.00,91.79,0
113.00,92.05,0
168.00,93.39,0
99.00,95.84,0
95.00,98.35,0
89.00,100.12,0
114.00,101.36,0
62.00,102.08,0
91.00,101.96,0
107.00,101.41,0
87.00,100.87,0
170.00,100.85,0
146.00,102.25,0
84.00,104.46,0
102.00,106.12,0
127.00,107.30,0
150.00,108.83,0
126.00,110.96,0
81.00,112.91,0
92.00,113.79,0
58.00,113.37,0
76.00,111.66,0
78.00,109.05,0
70.00,105.96,0
81.00,102.58,0
94.00,99.31,0
87.00,96.49,0
99.00,94.19,0
106.00,92.56,0
139.00,91.97,0
117.00,92.64,0
105.00,94.03,0
163.00,96.03,0
197.00,99.55,0
144.00,104.73,0
84.00,109.92,0
168.00,114.19,0
117.00,118.10,0
165.00,121.85,0
119.00,125.35,0
125.00,128.23,0
195.00,130.84,0
125.00,133.79,0
85.00,135.98,0
121.00,136.59,0
89.00,135.98,0
121.00,134.50,0
84.00,132.36,0
94.00,129.51,0
166.00,126.69,0
99.00,124.69,0
171.00,123.47,0
82.00,122.78,0
63.00,121.50,0
87.00,118.95,0
84.00,115.74,0
99.00,112.40,0
88.00,109.21,0
122.00,106.45,0
120.00,104.57,0
131.00,103.76,0
80.00,103.53,0
163.00,103.69,0
227.00,105.62,0
140.00,109.83,0
100.00,114.41,0
247.00,118.96,0
226.00,125.28,0
125.00,132.75,0
127.00,139.02,0
186.00,143.86,0
110.00,147.82,0
172.00,150.72,0
118.00,152.67,0
121.00,153.47,0
95.00,152.78,0
191.00,151.35,0
149.00,150.44,0
98.00,149.62,0
163.00,148.26,0
95.00,146.61,0
215.00,145.20,0
57.00,144.14,0
115.00,142.25,0
61.00,138.99,0
122.00,134.89,0
126.00,130.87,0
113.00,127.52,0
71.00,124.26,0
133.00,120.87,0
85.00,117.79,0
82.00,114.74,0
75.00,111.31,0
209.00,108.67,0
114.00,108.08,0
180.00,109.15,0
212.00,112.04,0
160.00,116.84,0
103.00,121.87,0
214.00,126.46,0
259.00,132.30,0
193.00,140.00,0
140.00,147.70,0
269.00,154.80,0
163.00,162.02,0
285.00,169.43,0
142.00,176.68,0
289.00,183.45,0
120.00,189.47,0
189.00,193.72,0
201.00,196.33,0
201.00,198.37,0
167.00,199.73,0
82.00,199.26,0
137.00,196.21,0
61.00,190.84,0
78.00,183.23,0
72.00,173.80,0
87.00,163.43,0
64.00,152.69,0
88.00,142.00,0
70.00,131.75,0
111.00,122.41,0
106.00,114.55,0
286.00,109.83,0
177.00,109.66,0
182.00,112.72,0
88.00,116.52,0
120.00,119.50,0
186.00,122.07,0
149.00,125.28,0
252.00,129.66,0
182.00,135.60,0
194.00,142.33,0
213.00,149.20,0
300.00,157.08,0
113.00,165.55,0
155.00,172.13,0
261.00,177.10,0
240.00,182.59,0
285.00,189.23,0
159.00,196.02,0
244.00,201.70,0
82.00,205.38,0
83.00,205.43,0
44.00,201.11,0
54.00,193.03,0
81.00,182.40,0
71.00,170.65,0
97.00,158.72,0
113.00,147.53,0
127.00,137.87,0
131.00,130.09,0
162.00,124.44,0
115.00,120.74,0
199.00,118.82,0
68.00,118.25,0
102.00,117.51,0
124.00,116.33,0
288.00,116.87,0
246.00,121.28,0
143.00,128.28,0
209.00,135.47,0
190.00,142.69,0
224.00,150.17,0
162.00,157.50,0
169.00,163.79,0
281.00,169.62,0
123.00,175.49,0
131.00,179.58,0
189.00,181.49,0
130.00,182.22,0
99.00,181.29,0
132.00,178.36,0
112.00,174.16,0
75.00,168.77,0
102.00,162.08,0
125.00,154.98,0
132.00,148.45,0
129.00,142.87,0
135.00,138.24,0
106.00,134.33,0
173.00,131.21,0
78.00,128.89,0
124.00,126.61,0
136.00,124.50,0
105.00,122.93,0
171.00,121.95,0
279.00,123.18,0
157.00,127.37,0
269.00,133.47,0
255.00,141.57,0
188.00,151.07,0
136.00,159.63,0
338.00,167.46,0
120.00,175.58,0
324.00,183.41,0
189.00,191.21,0
247.00,198.66,0
136.00,204.52,0
138.00,207.64,0
131.00,207.62,0
122.00,205.03,0
182.00,200.89,0
98.00,195.93,0
136.00,189.94,0
127.00,183.20,0
127.00,176.30,0
76.00,169.02,0
93.00,160.97,0
255.00,153.81,0
144.00,149.45,0
200.00,147.33,0
101.00,146.19,0
227.00,145.68,0
106.00,145.94,0
340.00,147.74,0
375.00,153.87,0
163.00,163.80,0
298.00,174.17,0
256.00,184.68,0
136.00,194.37,0
260.00,201.83,0
135.00,207.36,0
129.00,210.14,0
338.00,211.35,0
143.00,213.11,0
271.00,214.80,0
132.00,215.74,0
146.00,214.95,0
107.00,211.65,0
125.00,206.12,0
147.00,199.28,0
102.00,191.79,0
140.00,183.83,0
102.00,175.70,0
144.00,167.75,0
74.00,160.00,0
175.00,152.68,0
83.00,146.26,0
204.00,141.05,0
147.00,137.70,0
156.00,136.01,0
231.00,135.94,0
156.00,137.77,0
301.00,141.58,0
129.00,147.14,0
261.00,153.28,0
125.00,159.28,0
170.00,164.21,0
223.00,168.21,0
276.00,173.06,0
154.00,178.68,0
318.00,184.51,0
120.00,190.36,0
308.00,195.66,0
162.00,200.65,0
321.00,205.68,0
164.00,210.71,0
226.00,214.79,0
85.00,216.59,0
131.00,215.16,0
82.00,210.53,0
120.00,203.48,0
76.00,194.65,0
70.00,184.35,0
68.00,172.78,0
72.00,160.55,0
80.00,148.37,0
97.00,136.93,0
144.00,127.16,0
112.00,119.65,0
208.00,114.75,0
116.00,112.55,0
123.00,111.81,0
169.00,111.95,0
170.00,113.56,0
166.00,116.60,0
132.00,120.30,0
206.00,124.39,0
162.00,129.21,0
203.00,134.68,0
110.00,139.98,0
196.00,144.50,0
139.00,148.46,0
203.00,152.15,0
143.00,155.61,0
246.00,159.17,0
112.00,162.79,0
184.00,165.56,0
107.00,167.05,0
62.00,166.47,0
68.00,162.99,0
87.00,157.32,0
79.00,150.47,0
51.00,142.74,0
100.00,134.47,0
76.00,126.45,0
95.00,119.04,0
45.00,112.05,0
121.00,105.56,0
89.00,100.24,0
157.00,96.65,0
102.00,94.91,0
127.00,94.48,0
118.00,94.94,0
146.00,96.36,0
94.00,98.41,0
150.00,100.72,0
96.00,103.19,0
136.00,105.61,0
80.00,107.66,0
129.00,109.17,0
93.00,110.27,0
111.00,110.99,0
69.00,111.03,0
115.00,110.41,0
114.00,109.70,0
101.00,109.20,0
103.00,108.68,0
106.00,108.10,0
65.00,107.23,0
47.00,105.35,0
58.00,102.24,0
47.00,98.25,0
66.00,93.76,0
46.00,89.11,0
66.00,84.48,0
47.00,80.03,0
60.00,75.82,0
47.00,71.88,0
53.00,68.22,0
97.00,65.26,0
76.00,63.51,0
63.00,62.66,0
72.00,62.21,0
75.00,62.15,0
82.00,62.55,0
68.00,63.33,0
66.00,64.18,0
85.00,65.05,0
59.00,66.01,0
96.00,67.02,0
57.00,68.12,0
79.00,69.09,0
48.00,69.72,0
67.00,69.89,0
51.00,69.64,0
85.00,69.25,0
55.00,68.94,0
63.00,68.56,0
39.00,67.82,0
65.00,66.72,0
39.00,65.41,0
45.00,63.80,0
39.00,61.86,0
58.00,59.83,0
41.00,57.94,0
48.00,56.14,0
49.00,54.45,0
51.00,53.00,0
48.00,51.78,0
48.00,50.76,0
71.00,50.08,0
57.00,49.95,0
75.00,50.35,0
55.00,51.15,0
61.00,52.10,0
60.00,53.06,0
54.00,53.97,0
58.00,54.75,0
50.00,55.35,0
43.00,55.64,0
57.00,55.61,0
48.00,55.45,0
58.00,55.24,0
46.00,54.98,0
65.00,54.75,0
61.00,54.72,0
62.00,54.95,0
48.00,55.24,0
45.00,55.31,0
44.00,55.04,0
36.00,54.41,0
40.00,53.43,0
37.00,52.18,0
39.00,50.77,0
36.00,49.26,0
47.00,47.80,0
36.00,46.48,0
49.00,45.33,0
36.00,44.36,0
55.00,43.61,0
43.00,43.17,0
42.00,42.91,0
40.00,42.68,0
46.00,42.48,0
43.00,42.38,0
42.00,42.33,0
40.00,42.28,0
64.00,42.38,0
38.00,42.75,0
49.00,43.19,0
35.00,43.50,0
38.00,43.60,0
47.00,43.54,0
42.00,43.49,0
44.00,43.47,0
43.00,43.44,0
42.00,43.40,0
41.00,43.33,0
41.00,43.20,0
37.00,43.00,0
45.00,42.75,0
36.00,42.49,0
39.00,42.18,0
36.00,41.79,0
47.00,41.42,0
36.00,41.14,0
55.00,41.01,0
37.00,41.06,0
44.00,41.17,0
40.00,41.26,0
48.00,41.39,0
37.00,41.54,0
49.00,41.70,0
36.00,41.86,0
45.00,41.96,0
36.00,42.00,0
51.00,42.02,0
38.00,42.11,0
43.00,42.18,0
37.00,42.18,0
43.00,42.10,0
40.00,42.00,0
44.00,41.91,0
35.00,41.81,0
42.00,41.64,0
37.00,41.42,0
44.00,41.21,0
38.00,41.03,0
36.00,40.83,0
34.00,40.52,0
37.00,40.11,0
42.00,39.71,0
36.00,39.39,0
46.00,39.17,0
38.00,39.07,0
46.00,39.10,0
35.00,39.19,0
44.00,39.29,0
35.00,39.37,0
44.00,39.43,0
37.00,39.50,0
46.00,39.60,0
37.00,39.74,0
50.00,39.94,0
37.00,40.21,0
45.00,40.48,0
35.00,40.68,0
47.00,40.84,0
36.00,40.96,0
44.00,41.05,0
37.00,41.10,0
40.00,41.08,0
40.00,41.00,0
44.00,40.94,0
39.00,40.93,0
40.00,40.90,0
36.00,40.81,0
41.00,40.65,0
39.00,40.49,0
40.00,40.34,0
43.00,40.23,0
36.00,40.16,0
44.00,40.09,0
38.00,40.05,0
38.00,40.00,0
36.00,39.89,0
42.00,39.73,0
36.00,39.59,0
48.00,39.52,0
34.00,39.52,0
46.00,39.56,0
39.00,39.65,0
48.00,39.82,0
43.00,40.11,0
44.00,40.47,0
38.00,40.81,0
44.00,41.07,0
35.00,41.24,0
46.00,41.33,0
33.00,41.35,0
44.00,41.29,0
41.00,41.22,0
43.00,41.20,0
38.00,41.19,0
39.00,41.12,0
39.00,40.99,0
40.00,40.84,0
45.00,40.73,0
38.00,40.68,0
41.00,40.64,0
35.00,40.55,0
39.00,40.38,0
38.00,40.16,0
45.00,39.99,0
42.00,39.95,0
42.00,40.00,0
38.00,40.08,0
41.00,40.13,0
37.00,40.13,0
46.00,40.14,0
36.00,40.18,0
40.00,40.19,0
36.00,40.13,0
50.00,40.09,0
36.00,40.16,0
43.00,40.25,0
38.00,40.31,0
43.00,40.36,0
38.00,40.40,0
46.00,40.46,0
40.00,40.57,0
42.00,40.71,0
40.00,40.82,0
41.00,40.90,0
44.00,40.98,0
41.00,41.10,0
39.00,41.19,0
44.00,41.24,0
42.00,41.32,0
37.00,41.37,0
38.00,41.32,0
43.00,41.20,0
39.00,41.10,0
40.00,40.99,0
43.00,40.89,0
36.00,40.80,0
45.00,40.71,0
37.00,40.64,0
43.00,40.59,0
38.00,40.53,0
41.00,40.47,0
39.00,40.40,0
44.00,40.36,0
37.00,40.35,0
46.00,40.37,0
37.00,40.41,0
50.00,40.52,0
36.00,40.69,0
44.00,40.85,0
36.00,40.94,0
46.00,40.99,0
36.00,41.03,0
42.00,41.03,0
41.00,41.00,0
43.00,41.01,0
38.00,41.02,0
43.00,41.01,0
39.00,40.99,0
40.00,40.96,0
45.00,40.93,0
41.00,40.97,0
39.00,41.02,0
42.00,41.03,0
41.00,41.04,0
40.00,41.04,0
41.00,41.03,0
37.00,40.97,0
51.00,40.95,0
37.00,41.03,0
45.00,41.15,0
36.00,41.22,0
48.00,41.27,0
36.00,41.34,0
40.00,41.35,0
39.00,41.27,0
42.00,41.16,0
36.00,41.04,0
52.00,40.96,0
35.00,40.99,0
39.00,40.99,0
37.00,40.87,0
42.00,40.72,0
37.00,40.56,0
42.00,40.40,0
42.00,40.29,0
50.00,40.33,0
40.00,40.54,0
40.00,40.76,0
40.00,40.90,0
41.00,40.98,0
42.00,41.05,0
41.00,41.12,0
39.00,41.15,0
38.00,41.12,0
46.00,41.06,0
41.00,41.08,0
42.00,41.13,0
37.00,41.16,0
46.00,41.15,0
45.00,41.23,0
42.00,41.39,0
38.00,41.53,0
43.00,41.59,0
37.00,41.59,0
41.00,41.52,0
36.00,41.38,0
44.00,41.20,0
40.00,41.06,0
44.00,40.98,0
36.00,40.92,0
43.00,40.84,0
36.00,40.73,0
48.00,40.65,0
41.00,40.68,0
40.00,40.76,0
40.00,40.80,0
42.00,40.82,0
40.00,40.85,0
41.00,40.86,0
39.00,40.85,0
41.00,40.82,0
39.00,40.76,0
38.00,40.67,0
44.00,40.57,0
40.00,40.53,0
42.00,40.53,0
40.00,40.54,0
42.00,40.57,0
37.00,40.58,0
43.00,40.56,0
37.00,40.52,0
41.00,40.46,0
37.00,40.37,0
43.00,40.27,0
39.00,40.20,0
42.00,40.17,0
36.00,40.13,0
40.00,40.04,0
37.00,39.92,0
42.00,39.80,0
37.00,39.69,0
42.00,39.61,0
40.00,39.56,0
44.00,39.59,0
42.00,39.71,0
43.00,39.90,0
40.00,40.12,0
40.00,40.30,0
38.00,40.42,0
38.00,40.44,0
39.00,40.38,0
36.00,40.26,0
41.00,40.10,0
39.00,39.94,0
40.00,39.82,0
39.00,39.71,0
40.00,39.63,0
39.00,39.56,0
44.00,39.54,0
35.00,39.55,0
45.00,39.57,0
40.00,39.64,0
44.00,39.78,0
38.00,39.94,0
42.00,40.08,0
41.00,40.21,0
42.00,40.35,0
37.00,40.47,0
42.00,40.52,0
38.00,40.53,0
40.00,40.51,0
33.00,40.40,0
40.00,40.19,0
39.00,39.95,0
44.00,39.79,0
39.00,39.73,0
40.00,39.71,0
39.00,39.68,0
40.00,39.66,0
40.00,39.64,0
40.00,39.64,0
42.00,39.67,0
42.00,39.75,0
40.00,39.87,0
40.00,39.98,0
44.00,40.10,0
38.00,40.24,0
44.00,40.37,0
37.00,40.48,0
43.00,40.55,0
38.00,40.60,0
46.00,40.66,0
38.00,40.75,0
43.00,40.83,0
38.00,40.89,0
42.00,40.91,0
39.00,40.90,0
39.00,40.86,0
38.00,40.75,0
42.00,40.63,0
37.00,40.50,0
43.00,40.38,0
41.00,40.31,0
44.00,40.32,0
39.00,40.38,0
43.00,40.46,0
39.00,40.53,0
45.00,40.62,0
38.00,40.73,0
39.00,40.79,0
40.00,40.77,0
39.00,40.72,0
41.00,40.64,0
39.00,40.57,0
42.00,40.50,0
40.00,40.45,0
41.00,40.43,0
39.00,40.41,0
39.00,40.36,0
39.00,40.28,0
43.00,40.21,0
38.00,40.17,0
42.00,40.15,0
39.00,40.13,0
43.00,40.14,0
42.00,40.20,0
43.00,40.32,0
39.00,40.46,0
41.00,40.57,0
42.00,40.65,0
40.00,40.74,0
36.00,40.77,0
40.00,40.69,0
41.00,40.59,0
41.00,40.52,0
40.00,40.47,0
40.00,40.43,0
39.00,40.37,0
42.00,40.31,0
43.00,40.31,0
41.00,40.37,0
42.00,40.47,0
39.00,40.55,0
43.00,40.63,0
40.00,40.70,0
39.00,40.75,0
38.00,40.74,0
43.00,40.68,0
40.00,40.65,0
39.00,40.62,0
38.00,40.55,0
42.00,40.45,0
38.00,40.35,0
42.00,40.27,0
42.00,40.24,0
42.00,40.27,0
40.00,40.33,0
42.00,40.40,0
38.00,40.46,0
41.00,40.48,0
38.00,40.46,0
42.00,40.42,0
39.00,40.39,0
43.00,40.38,0
38.00,40.38,0
43.00,40.38,0
40.00,40.41,0
40.00,40.44,0
38.00,40.43,0
40.00,40.38,0
38.00,40.29,0
40.00,40.18,0
39.00,40.07,0
37.00,39.94,0
42.00,39.80,0
38.00,39.70,0
44.00,39.64,0
40.00,39.66,0
42.00,39.74,0
39.00,39.83,0
42.00,39.92,0
33.00,39.96,0
42.00,39.91,0
39.00,39.84,0
42.00,39.81,0
37.00,39.79,0
42.00,39.77,0
39.00,39.76,0
41.00,39.77,0
38.00,39.78,0
41.00,39.77,0
39.00,39.77,0
41.00,39.77,0
42.00,39.81,0
42.00,39.90,0
39.00,40.01,0
39.00,40.09,0
40.00,40.12,0
41.00,40.14,0
45.00,40.21,0
42.00,40.36,0
40.00,40.54,0
40.00,40.68,0
39.00,40.75,0
40.00,40.76,0
39.00,40.73,0
40.00,40.67,0
41.00,40.59,0
38.00,40.52,0
41.00,40.43,0
38.00,40.33,0
44.00,40.25,0
37.00,40.21,0
46.00,40.20,0
41.00,40.28,0
43.00,40.41,0
36.00,40.52,0
45.00,40.59,0
44.00,40.71,0
45.00,40.92,0
35.00,41.13,0
42.00,41.22,0
38.00,41.23,0
40.00,41.18,0
38.00,41.07,0
45.00,40.95,0
39.00,40.90,0
39.00,40.84,0
39.00,40.73,0
42.00,40.62,0
43.00,40.56,0
41.00,40.58,0
41.00,40.62,0
39.00,40.64,0
39.00,40.63,0
38.00,40.55,0
42.00,40.45,0
38.00,40.36,0
43.00,40.29,0
44.00,40.29,0
42.00,40.39,0
38.00,40.50,0
43.00,40.57,0
37.00,40.62,0
42.00,40.63,0
34.00,40.57,0
46.00,40.48,0
36.00,40.41,0
45.00,40.36,0
38.00,40.35,0
39.00,40.33,0
37.00,40.25,0
42.00,40.13,0
38.00,40.04,0
43.00,39.97,0
38.00,39.93,0
41.00,39.91,0
38.00,39.88,0
42.00,39.85,0
43.00,39.87,0
39.00,39.96,0
38.00,40.01,0
40.00,40.01,0
41.00,40.00,0
38.00,40.00,0
42.00,39.98,0
38.00,39.97,0
41.00,39.96,0
37.00,39.93,0
41.00,39.87,0
38.00,39.81,0
44.00,39.77,0
36.00,39.77,0
43.00,39.77,0
38.00,39.77,0
40.00,39.78,0
37.00,39.75,0
46.00,39.73,0
39.00,39.80,0
42.00,39.90,0
36.00,39.98,0
43.00,40.01,0
38.00,40.03,0
42.00,40.06,0
37.00,40.07,0
41.00,40.05,0
37.00,40.00,0
40.00,39.92,0
40.00,39.84,0
40.00,39.78,0
37.00,39.72,0
40.00,39.63,0
43.00,39.58,0
40.00,39.60,0
42.00,39.67,0
39.00,39.76,0
42.00,39.86,0
32.00,39.89,0
42.00,39.82,0
38.00,39.73,0
43.00,39.67,0
36.00,39.64,0
42.00,39.60,0
39.00,39.58,0
41.00,39.58,0
39.00,39.60,0
42.00,39.64,0
37.00,39.67,0
42.00,39.70,0
40.00,39.73,0
39.00,39.78,0
37.00,39.78,0
40.00,39.73,0
35.00,39.63,0
39.00,39.48,0
38.00,39.31,0
42.00,39.17,0
38.00,39.10,0
42.00,39.07,0
37.00,39.08,0
42.00,39.09,0
39.00,39.13,0
40.00,39.19,0
39.00,39.25,0
38.00,39.28,0
40.00,39.29,0
40.00,39.31,0
42.00,39.36,0
37.00,39.42,0
40.00,39.46,0
38.00,39.46,0
43.00,39.48,0
36.00,39.50,0
44.00,39.53,0
38.00,39.59,0
44.00,39.67,0
39.00,39.79,0
44.00,39.94,0
38.00,40.09,0
43.00,40.23,0
37.00,40.34,0
42.00,40.40,0
40.00,40.44,0
46.00,40.52,0
38.00,40.65,0
40.00,40.75,0
37.00,40.75,0
42.00,40.70,0
43.00,40.66,0
44.00,40.72,0
38.00,40.81,0
39.00,40.84,0
40.00,40.81,0
40.00,40.75,0
40.00,40.67,0
38.00,40.58,0
41.00,40.47,0
38.00,40.35,0
42.00,40.24,0
38.00,40.15,0
37.00,40.03,0
40.00,39.88,0
40.00,39.74,0
41.00,39.65,0
42.00,39.63,0
29.00,39.57,0
41.00,39.39,0
37.00,39.17,0
43.00,39.01,0
37.00,38.93,0
44.00,38.91,0
36.00,38.94,0
46.00,39.01,0
39.00,39.16,0
42.00,39.34,0
39.00,39.53,0
44.00,39.71,0
37.00,39.90,0
43.00,40.05,0
42.00,40.20,0
42.00,40.39,0
41.00,40.58,0
38.00,40.72,0
38.00,40.75,0
43.00,40.74,0
39.00,40.72,0
39.00,40.69,0
44.00,40.65,0
37.00,40.63,0
42.00,40.59,0
37.00,40.53,0
41.00,40.44,0
36.00,40.31,0
48.00,40.22,0
40.00,40.24,0
42.00,40.33,0
37.00,40.39,0
38.00,40.38,0
37.00,40.27,0
42.00,40.14,0
38.00,40.02,0
45.00,39.95,0
36.00,39.94,0
44.00,39.94,0
39.00,39.96,0
44.00,40.04,0
39.00,40.14,0
44.00,40.26,0
39.00,40.39,0
41.00,40.51,0
42.00,40.60,0
39.00,40.69,0
39.00,40.72,0
41.00,40.71,0
38.00,40.66,0
47.00,40.64,0
43.00,40.73,0
40.00,40.88,0
41.00,41.00,0
37.00,41.04,0
38.00,40.99,0
37.00,40.83,0
42.00,40.64,0
37.00,40.45,0
44.00,40.29,0
38.00,40.19,0
46.00,40.15,0
36.00,40.17,0
45.00,40.20,0
38.00,40.25,0
42.00,40.31,0
37.00,40.33,0
44.00,40.34,0
38.00,40.36,0
48.00,40.43,0
37.00,40.56,0
40.00,40.65,0
37.00,40.65,0
41.00,40.59,0
42.00,40.53,0
43.00,40.54,0
42.00,40.61,0
36.00,40.66,0
42.00,40.65,0
42.00,40.64,0
43.00,40.68,0
42.00,40.77,0
40.00,40.87,0
40.00,40.94,0
42.00,40.98,0
40.00,41.00,0
43.00,41.03,0
36.00,41.04,0
42.00,40.98,0
35.00,40.87,0
41.00,40.69,0
36.00,40.48,0
44.00,40.27,0
40.00,40.14,0
49.00,40.15,0
37.00,40.27,0
48.00,40.44,0
36.00,40.64,0
39.00,40.75,0
38.00,40.75,0
52.00,40.78,0
36.00,40.92,0
45.00,41.08,0
39.00,41.20,0
43.00,41.31,0
41.00,41.39,0
40.00,41.45,0
38.00,41.44,0
41.00,41.36,0
47.00,41.31,0
39.00,41.35,0
43.00,41.40,0
42.00,41.45,0
40.00,41.49,0
39.00,41.49,0
41.00,41.43,0
39.00,41.33,0
45.00,41.25,0
38.00,41.21,0
42.00,41.16,0
40.00,41.10,0
41.00,41.04,0
38.00,40.96,0
47.00,40.90,0
38.00,40.91,0
48.00,40.98,0
35.00,41.07,0
43.00,41.12,0
42.00,41.14,0
43.00,41.20,0
38.00,41.26,0
44.00,41.28,0
38.00,41.29,0
44.00,41.29,0
40.00,41.30,0
47.00,41.35,0
42.00,41.48,0
42.00,41.63,0
39.00,41.74,0
46.00,41.81,0
41.00,41.90,0
40.00,41.98,0
41.00,41.99,0
39.00,41.93,0
40.00,41.82,0
38.00,41.65,0
42.00,41.45,0
37.00,41.24,0
44.00,41.04,0
42.00,40.92,0
46.00,40.90,0
36.00,40.95,0
54.00,41.05,0
36.00,41.26,0
54.00,41.54,0
35.00,41.86,0
47.00,42.13,0
34.00,42.29,0
44.00,42.33,0
40.00,42.30,0
42.00,42.25,0
39.00,42.16,0
46.00,42.07,0
38.00,42.01,0
43.00,41.94,0
44.00,41.89,0
40.00,41.87,0
40.00,41.84,0
41.00,41.75,0
36.00,41.62,0
42.00,41.42,0
44.00,41.25,0
36.00,41.14,0
42.00,40.99,0
38.00,40.83,0
40.00,40.67,0
36.00,40.47,0
48.00,40.31,0
40.00,40.27,0
44.00,40.33,0
36.00,40.41,0
56.00,40.55,0
37.00,40.84,0
49.00,41.19,0
34.00,41.50,0
52.00,41.75,0
39.00,42.03,0
49.00,42.33,0
39.00,42.62,0
43.00,42.83,0
36.00,42.90,0
43.00,42.85,0
40.00,42.73,0
53.00,42.68,0
37.00,42.74,0
43.00,42.78,0
48.00,42.81,0
42.00,42.92,0
43.00,43.02,0
39.00,43.06,0
42.00,43.02,0
35.00,42.87,0
41.00,42.60,0
38.00,42.27,0
43.00,41.94,0
39.00,41.66,0
48.00,41.46,0
35.00,41.34,0
45.00,41.23,0
38.00,41.13,0
50.00,41.11,0
36.00,41.18,0
46.00,41.25,0
43.00,41.36,0
43.00,41.52,0
38.00,41.65,0
53.00,41.79,0
37.00,42.01,0
49.00,42.25,0
37.00,42.45,0
52.00,42.65,0
38.00,42.87,0
46.00,43.06,0
37.00,43.15,0
45.00,43.17,0
38.00,43.11,0
43.00,43.00,0
34.00,42.80,0
45.00,42.53,0
40.00,42.27,0
36.00,42.00,0
42.00,41.68,0
36.00,41.36,0
46.00,41.06,0
39.00,40.86,0
41.00,40.72,0
37.00,40.57,0
48.00,40.47,0
36.00,40.44,0
46.00,40.46,0
36.00,40.49,0
47.00,40.54,0
40.00,40.64,0
46.00,40.81,0
42.00,41.02,0
42.00,41.25,0
38.00,41.41,0
45.00,41.52,0
38.00,41.60,0
45.00,41.65,0
39.00,41.70,0
44.00,41.74,0
42.00,41.78,0
46.00,41.87,0
45.00,42.03,0
41.00,42.23,0
45.00,42.41,0
43.00,42.58,0
43.00,42.74,0
39.00,42.84,0
38.00,42.81,0
40.00,42.65,0
43.00,42.46,0
36.00,42.24,0
42.00,41.98,0
37.00,41.69,0
44.00,41.42,0
36.00,41.17,0
43.00,40.93,0
36.00,40.71,0
49.00,40.54,0
40.00,40.52,0
53.00,40.66,0
44.00,41.00,0
47.00,41.45,0
37.00,41.87,0
50.00,42.22,0
39.00,42.55,0
52.00,42.87,0
41.00,43.23,0
49.00,43.58,0
38.00,43.86,0
53.00,44.10,0
44.00,44.38,0
41.00,44.63,0
43.00,44.74,0
47.00,44.78,0
39.00,44.79,0
42.00,44.69,0
43.00,44.52,0
36.00,44.26,0
39.00,43.88,0
36.00,43.38,0
42.00,42.83,0
36.00,42.29,0
43.00,41.77,0
34.00,41.29,0
42.00,40.82,0
42.00,40.44,0
40.00,40.18,0
38.00,39.98,0
48.00,39.86,0
36.00,39.86,0
55.00,39.99,0
38.00,40.28,0
44.00,40.62,0
36.00,40.87,0
50.00,41.09,0
39.00,41.34,0
47.00,41.61,0
38.00,41.85,0
43.00,42.02,0
43.00,42.14,0
46.00,42.29,0
45.00,42.49,0
42.00,42.71,0
38.00,42.84,0
45.00,42.88,0
37.00,42.85,0
44.00,42.76,0
42.00,42.65,0
39.00,42.54,0
40.00,42.38,0
38.00,42.15,0
40.00,41.87,0
36.00,41.55,0
41.00,41.20,0
38.00,40.86,0
42.00,40.56,0
37.00,40.31,0
47.00,40.13,0
38.00,40.07,0
47.00,40.10,0
45.00,40.26,0
51.00,40.60,0
39.00,41.06,0
46.00,41.49,0
38.00,41.85,0
49.00,42.15,0
37.00,42.41,0
50.00,42.64,0
38.00,42.85,0
42.00,42.99,0
41.00,43.01,0
43.00,42.99,0
40.00,42.93,0
43.00,42.84,0
40.00,42.73,0
46.00,42.62,0
42.00,42.57,0
44.00,42.57,0
42.00,42.58,0
47.00,42.62,0
41.00,42.71,0
36.00,42.73,0
44.00,42.63,0
36.00,42.47,0
42.00,42.24,0
36.00,41.97,0
52.00,41.74,0
36.00,41.65,0
44.00,41.59,0
36.00,41.49,0
57.00,41.47,0
37.00,41.63,0
58.00,41.94,0
35.00,42.34,0
50.00,42.72,0
41.00,43.05,0
50.00,43.38,0
36.00,43.66,0
45.00,43.81,0
37.00,43.82,0
44.00,43.73,0
42.00,43.59,0
44.00,43.47,0
40.00,43.34,0
39.00,43.16,0
44.00,42.94,0
44.00,42.76,0
48.00,42.70,0
38.00,42.71,0
48.00,42.73,0
42.00,42.79,0
48.00,42.90,0
35.00,43.00,0
42.00,42.98,0
36.00,42.83,0
43.00,42.59,0
36.00,42.31,0
49.00,42.05,0
35.00,41.86,0
48.00,41.71,0
40.00,41.64,0
50.00,41.67,0
36.00,41.77,0
48.00,41.88,0
40.00,41.99,0
46.00,42.13,0
40.00,42.26,0
45.00,42.38,0
39.00,42.47,0
38.00,42.46,0
42.00,42.34,0
46.00,42.25,0
40.00,42.21,0
46.00,42.22,0
56.00,42.38,0
46.00,42.78,0
55.00,43.35,0
44.00,44.01,0
52.00,44.66,0
41.00,45.24,0
47.00,45.68,0
40.00,45.96,0
57.00,46.16,0
37.00,46.38,0
43.00,46.44,0
36.00,46.27,0
50.00,45.98,0
40.00,45.69,0
40.00,45.36,0
40.00,44.94,0
64.00,44.65,0
40.00,44.67,0
55.00,44.86,0
43.00,45.11,0
55.00,45.43,0
40.00,45.77,0
69.00,46.19,0
41.00,46.80,0
55.00,47.42,0
46.00,47.95,0
53.00,48.42,0
39.00,48.75,0
78.00,49.12,0
47.00,49.78,0
40.00,50.38,0
60.00,50.72,0
40.00,50.96,0
50.00,51.02,0
42.00,50.89,0
48.00,50.61,0
42.00,50.21,0
42.00,49.69,0
41.00,49.02,0
44.00,48.29,0
46.00,47.58,0
40.00,46.93,0
47.00,46.31,0
54.00,45.86,0
42.00,45.63,0
64.00,45.62,0
54.00,45.95,0
66.00,46.65,0
45.00,47.55,0
72.00,48.54,0
49.00,49.66,0
50.00,50.69,0
55.00,51.48,0
65.00,52.24,0
52.00,53.04,0
52.00,53.73,0
75.00,54.38,0
70.00,55.33,0
63.00,56.51,0
66.00,57.71,0
66.00,58.87,0
73.00,60.04,0
82.00,61.38,0
64.00,62.86,0
48.00,64.03,0
91.00,64.89,0
82.00,65.97,0
50.00,67.13,0
56.00,67.76,0
58.00,67.83,0
53.00,67.49,0
46.00,66.74,0
67.00,65.71,0
70.00,64.83,0
49.00,64.13,0
76.00,63.49,0
68.00,63.13,0
84.00,63.22,0
99.00,63.96,0
80.00,65.40,0
93.00,67.24,0
69.00,69.18,0
95.00,71.07,0
68.00,72.85,0
127.00,74.76,0
64.00,76.93,0
100.00,78.96,0
65.00,80.62,0
76.00,81.74,0
56.00,82.15,0
86.00,82.01,0
50.00,81.49,0
69.00,80.51,0
44.00,79.02,0
71.00,77.16,0
74.00,75.35,0
66.00,73.83,0
44.00,72.31,0
45.00,70.40,0
55.00,68.19,0
43.00,65.89,0
46.00,63.51,0
43.00,61.07,0
91.00,59.05,0
48.00,57.81,0
124.00,57.53,0
54.00,58.31,0
83.00,59.57,0
46.00,60.76,0
96.00,61.90,0
73.00,63.28,0
76.00,64.87,0
66.00,66.34,0
85.00,67.68,0
58.00,68.89,0
51.00,69.62,0
48.00,69.59,0
74.00,69.09,0
51.00,68.47,0
47.00,67.58,0
62.00,66.39,0
55.00,65.15,0
39.00,63.80,0
54.00,62.22,0
49.00,60.58,0
45.00,58.95,0
59.00,57.41,0
38.00,56.00,0
36.00,54.49,0
40.00,52.78,0
43.00,51.05,0
38.00,49.41,0
60.00,48.00,0
41.00,46.99,0
75.00,46.46,0
75.00,46.73,0
69.00,47.81,0
78.00,49.45,0
92.00,51.68,0
49.00,54.24,0
61.00,56.47,0
65.00,58.24,0
73.00,59.85,0
61.00,61.34,0
106.00,62.93,0
52.00,64.75,0
49.00,66.13,0
61.00,66.73,0
77.00,67.04,0
42.00,67.18,0
65.00,66.93,0
62.00,66.47,0
54.00,65.93,0
45.00,65.12,0
68.00,64.10,0
61.00,63.21,0
40.00,62.34,0
41.00,61.13,0
67.00,59.75,0
48.00,58.57,0
38.00,57.39,0
59.00,56.12,0
37.00,54.89,0
52.00,53.67,0
58.00,52.62,0
87.00,52.18,0
58.00,52.53,0
68.00,53.29,0
44.00,54.08,0
74.00,54.79,0
46.00,55.48,0
65.00,56.09,0
41.00,56.49,0
65.00,56.68,0
59.00,56.85,0
57.00,57.08,0
50.00,57.21,0
77.00,57.36,0
79.00,57.91,0
85.00,59.05,0
40.00,60.36,0
74.00,61.34,0
44.00,61.97,0
68.00,62.30,0
37.00,62.29,0
54.00,61.84,0
47.00,61.04,0
41.00,59.98,0
70.00,58.84,0
64.00,58.05,0
67.00,57.72,0
37.00,57.50,0
55.00,57.05,0
37.00,56.35,0
94.00,55.80,0
53.00,55.83,0
51.00,56.08,0
43.00,56.06,0
100.00,56.15,0
56.00,56.82,0
88.00,57.94,0
98.00,59.60,0
112.00,62.18,0
66.00,65.29,0
81.00,68.18,0
62.00,70.52,0
55.00,72.12,0
45.00,72.74,0
72.00,72.60,0
62.00,72.17,0
40.00,71.41,0
38.00,69.96,0
68.00,68.07,0
59.00,66.31,0
56.00,64.78,0
36.00,63.18,0
46.00,61.32,0
52.00,59.37,0
47.00,57.55,0
42.00,55.82,0
63.00,54.26,0
70.00,53.25,0
51.00,52.82,0
52.00,52.59,0
61.00,52.47,0
71.00,52.66,0
47.00,53.13,0
86.00,53.81,0
36.00,54.65,0
77.00,55.43,0
64.00,56.29,0
70.00,57.35,0
35.00,58.24,0
70.00,58.73,0
51.00,59.02,0
67.00,59.27,0
62.00,59.54,0
86.00,60.07,0
59.00,60.91,0
73.00,61.82,0
39.00,62.49,0
46.00,62.56,0
35.00,61.91,0
68.00,60.90,0
44.00,59.89,0
43.00,58.80,0
37.00,57.40,0
36.00,55.71,0
40.00,53.81,0
66.00,52.10,0
39.00,50.82,0
40.00,49.68,0
58.00,48.64,0
49.00,47.93,0
61.00,47.61,0
63.00,47.71,0
92.00,48.52,0
63.00,50.09,0
68.00,51.99,0
50.00,53.77,0
87.00,55.45,0
62.00,57.26,0
119.00,59.47,0
71.00,62.26,0
92.00,65.23,0
43.00,67.80,0
61.00,69.48,0
43.00,70.19,0
77.00,70.26,0
112.00,70.54,0
56.00,71.38,0
45.00,71.88,0
60.00,71.59,0
53.00,70.80,0
50.00,69.65,0
89.00,68.47,0
68.00,67.76,0
63.00,67.36,0
58.00,66.91,0
41.00,66.18,0
45.00,64.97,0
43.00,63.33,0
40.00,61.41,0
46.00,59.32,0
34.00,57.14,0
46.00,54.92,0
59.00,52.94,0
71.00,51.63,0
66.00,51.13,0
61.00,51.25,0
49.00,51.60,0
82.00,52.15,0
71.00,53.19,0
81.00,54.74,0
52.00,56.47,0
76.00,58.07,0
50.00,59.47,0
54.00,60.47,0
95.00,61.31,0
70.00,62.53,0
65.00,63.86,0
78.00,65.06,0
51.00,66.07,0
58.00,66.62,0
36.00,66.51,0
59.00,65.80,0
37.00,64.66,0
43.00,63.11,0
37.00,61.17,0
37.00,58.95,0
40.00,56.56,0
36.00,54.13,0
47.00,51.82,0
43.00,49.78,0
61.00,48.19,0
41.00,47.08,0
60.00,46.37,0
43.00,45.97,0
69.00,45.93,0
51.00,46.30,0
79.00,47.10,0
44.00,48.25,0
70.00,49.48,0
74.00,50.92,0
65.00,52.66,0
41.00,54.27,0
82.00,55.59,0
36.00,56.75,0
84.00,57.72,0
44.00,58.60,0
74.00,59.36,0
41.00,59.91,0
73.00,60.23,0
40.00,60.37,0
56.00,60.20,0
40.00,59.67,0
46.00,58.80,0
48.00,57.68,0
35.00,56.39,0
40.00,54.85,0
39.00,53.14,0
51.00,51.48,0
39.00,50.00,0
68.00,48.86,0
43.00,48.17,0
38.00,47.65,0
47.00,47.05,0
62.00,46.64,0
64.00,46.72,0
60.00,47.31,0
49.00,48.12,0
86.00,49.16,0
46.00,50.53,0
66.00,51.92,0
37.00,53.04,0
91.00,54.04,0
61.00,55.33,0
37.00,56.54,0
48.00,57.11,0
45.00,57.13,0
52.00,56.83,0
49.00,56.35,0
59.00,55.86,0
62.00,55.53,0
44.00,55.31,0
57.00,55.04,0
41.00,54.65,0
82.00,54.38,0
40.00,54.39,0
59.00,54.44,0
49.00,54.38,0
35.00,54.13,0
38.00,53.44,0
37.00,52.38,0
52.00,51.20,0
42.00,50.12,0
48.00,49.16,0
38.00,48.27,0
54.00,47.46,0
49.00,46.89,0
68.00,46.73,0
36.00,46.88,0
80.00,47.27,0
40.00,47.95,0
47.00,48.60,0
55.00,49.04,0
94.00,49.84,0
54.00,51.25,0
89.00,53.03,0
61.00,55.05,0
74.00,57.12,0
79.00,59.18,0
71.00,61.30,0
48.00,63.11,0
64.00,64.30,0
35.00,64.82,0
58.00,64.66,0
42.00,64.01,0
40.00,62.90,0
66.00,61.53,0
38.00,60.19,0
36.00,58.65,0
40.00,56.79,0
37.00,54.76,0
39.00,52.67,0
54.00,50.74,0
59.00,49.30,0
55.00,48.45,0
51.00,48.02,0
83.00,48.09,0
38.00,48.66,0
48.00,49.20,0
51.00,49.51,0
93.00,50.11,0
70.00,51.45,0
44.00,53.05,0
38.00,54.13,0
45.00,54.53,0
42.00,54.43,0
78.00,54.27,0
41.00,54.33,0
65.00,54.43,0
46.00,54.51,0
94.00,54.84,0
40.00,55.54,0
61.00,56.17,0
54.00,56.59,0
59.00,56.91,0
36.00,57.00,0
36.00,56.57,0
36.00,55.55,0
36.00,54.14,0
41.00,52.51,0
53.00,50.94,0
49.00,49.69,0
37.00,48.65,0
55.00,47.73,0
43.00,47.01,0
42.00,46.43,0
36.00,45.80,0
51.00,45.17,0
55.00,44.80,0
76.00,44.99,0
57.00,45.84,0
76.00,47.17,0
90.00,49.08,0
69.00,51.60,0
82.00,54.36,0
60.00,57.08,0
54.00,59.38,0
74.00,61.17,0
66.00,62.72,0
74.00,64.14,0
60.00,65.36,0
69.00,66.30,0
42.00,66.81,0
44.00,66.62,0
40.00,65.68,0
50.00,64.24,0
36.00,62.47,0
41.00,60.41,0
38.00,58.14,0
40.00,55.79,0
44.00,53.50,0
40.00,51.38,0
50.00,49.51,0
48.00,48.01,0
45.00,46.85,0
41.00,45.91,0
58.00,45.20,0
38.00,44.78,0
53.00,44.53,0
55.00,44.51,0
65.00,44.90,0
39.00,45.57,0
89.00,46.49,0
37.00,47.75,0
75.00,49.10,0
45.00,50.42,0
79.00,51.77,0
51.00,53.18,0
80.00,54.66,0
57.00,56.18,0
64.00,57.62,0
47.00,58.72,0
47.00,59.31,0
59.00,59.46,0
48.00,59.36,0
43.00,58.96,0
54.00,58.26,0
37.00,57.36,0
41.00,56.17,0
46.00,54.77,0
40.00,53.33,0
43.00,51.87,0
48.00,50.48,0
60.00,49.40,0
52.00,48.77,0
78.00,48.67,0
41.00,49.04,0
58.00,49.51,0
38.00,49.84,0
51.00,49.97,0
42.00,49.92,0
74.00,49.96,0
54.00,50.35,0
58.00,50.97,0
59.00,51.65,0
78.00,52.56,0
41.00,53.62,0
77.00,54.62,0
51.00,55.60,0
74.00,56.60,0
66.00,57.68,0
64.00,58.82,0
72.00,59.95,0
61.00,61.04,0
41.00,61.80,0
58.00,61.99,0
42.00,61.73,0
60.00,61.16,0
52.00,60.47,0
48.00,59.70,0
61.00,58.87,0
54.00,58.15,0
76.00,57.70,0
46.00,57.53,0
44.00,57.26,0
40.00,56.59,0
52.00,55.67,0
43.00,54.68,0
40.00,53.59,0
38.00,52.31,0
54.00,51.02,0
44.00,49.92,0
44.00,48.97,0
67.00,48.28,0
72.00,48.22,0
58.00,48.80,0
92.00,49.95,0
51.00,51.59,0
88.00,53.46,0
47.00,55.38,0
88.00,57.24,0
56.00,59.07,0
72.00,60.75,0
67.00,62.23,0
46.00,63.38,0
73.00,64.07,0
64.00,64.60,0
67.00,65.08,0
55.00,65.39,0
61.00,65.43,0
86.00,65.47,0
57.00,65.73,0
87.00,66.13,0
65.00,66.69,0
87.00,67.42,0
42.00,68.07,0
37.00,68.04,0
48.00,67.13,0
51.00,65.73,0
48.00,64.14,0
47.00,62.41,0
63.00,60.73,0
62.00,59.39,0
45.00,58.32,0
37.00,57.14,0
47.00,55.73,0
55.00,54.35,0
73.00,53.40,0
75.00,53.20,0
60.00,53.62,0
76.00,54.40,0
73.00,55.56,0
61.00,56.94,0
67.00,58.27,0
70.00,59.55,0
54.00,60.70,0
55.00,61.50,0
44.00,61.80,0
63.00,61.68,0
51.00,61.39,0
68.00,61.06,0
60.00,60.83,0
47.00,60.59,0
71.00,60.26,0
68.00,60.14,0
65.00,60.32,0
44.00,60.45,0
54.00,60.27,0
45.00,59.76,0
46.00,58.97,0
45.00,57.93,0
46.00,56.73,0
61.00,55.57,0
60.00,54.74,0
53.00,54.24,0
62.00,53.94,0
62.00,53.91,0
61.00,54.14,0
79.00,54.71,0
120.00,56.13,0
82.00,58.65,0
46.00,61.36,0
58.00,63.30,0
71.00,64.62,0
62.00,65.64,0
57.00,66.34,0
58.00,66.60,0
60.00,66.53,0
60.00,66.24,0
53.00,65.75,0
64.00,65.11,0
56.00,64.43,0
57.00,63.71,0
68.00,63.02,0
55.00,62.46,0
64.00,61.97,0
58.00,61.54,0
66.00,61.22,0
49.00,60.92,0
52.00,60.46,0
57.00,59.85,0
68.00,59.35,0
49.00,59.00,0
66.00,58.70,0
77.00,58.66,0
69.00,59.09,0
68.00,59.80,0
78.00,60.69,0
77.00,61.86,0
91.00,63.36,0
67.00,65.11,0
72.00,66.74,0
71.00,68.10,0
92.00,69.42,0
71.00,70.82,0
78.00,72.12,0
62.00,73.11,0
65.00,73.66,0
76.00,73.85,0
62.00,73.87,0
52.00,73.52,0
52.00,72.62,0
51.00,71.26,0
82.00,69.82,0
58.00,68.67,0
55.00,67.62,0
47.00,66.36,0
56.00,64.91,0
41.00,63.31,0
61.00,61.65,0
66.00,60.24,0
61.00,59.28,0
42.00,58.49,0
60.00,57.65,0
64.00,56.97,0
43.00,56.48,0
61.00,55.99,0
72.00,55.72,0
87.00,56.08,0
52.00,56.96,0
82.00,58.01,0
62.00,59.18,0
73.00,60.42,0
50.00,61.49,0
83.00,62.40,0
54.00,63.25,0
94.00,64.16,0
49.00,65.14,0
75.00,65.94,0
51.00,66.43,0
66.00,66.61,0
67.00,66.62,0
42.00,66.42,0
53.00,65.76,0
69.00,64.87,0
45.00,64.00,0
97.00,63.34,0
50.00,63.14,0
45.00,62.90,0
40.00,62.12,0
47.00,60.89,0
58.00,59.53,0
58.00,58.36,0
66.00,57.52,0
46.00,56.93,0
60.00,56.41,0
52.00,55.94,0
83.00,55.79,0
59.00,56.11,0
75.00,56.78,0
74.00,57.76,0
61.00,58.94,0
67.00,60.06,0
88.00,61.27,0
58.00,62.65,0
79.00,63.97,0
58.00,65.12,0
77.00,66.09,0
51.00,66.82,0
61.00,67.14,0
51.00,67.03,0
61.00,66.57,0
43.00,65.81,0
60.00,64.76,0
52.00,63.60,0
67.00,62.53,0
44.00,61.55,0
43.00,60.41,0
54.00,59.05,0
50.00,57.73,0
41.00,56.43,0
45.00,55.04,0
46.00,53.62,0
58.00,52.38,0
68.00,51.62,0
56.00,51.39,0
61.00,51.52,0
72.00,51.97,0
92.00,53.06,0
69.00,54.81,0
66.00,56.78,0
45.00,58.43,0
66.00,59.59,0
53.00,60.40,0
70.00,61.02,0
61.00,61.57,0
67.00,62.09,0
66.00,62.60,0
78.00,63.20,0
55.00,63.86,0
62.00,64.32,0
58.00,64.49,0
85.00,64.67,0
48.00,64.94,0
76.00,65.13,0
38.00,65.08,0
53.00,64.59,0
43.00,63.63,0
71.00,62.54,0
48.00,61.56,0
53.00,60.60,0
49.00,59.55,0
46.00,58.40,0
64.00,57.30,0
51.00,56.42,0
77.00,55.90,0
52.00,55.78,0
67.00,55.90,0
78.00,56.32,0
62.00,57.14,0
69.00,58.11,0
70.00,59.16,0
72.00,60.33,0
67.00,61.54,0
46.00,62.51,0
49.00,62.90,0
74.00,62.92,0
55.00,62.93,0
50.00,62.79,0
44.00,62.26,0
51.00,61.36,0
76.00,60.48,0
74.00,60.10,0
57.00,60.15,0
44.00,60.12,0
48.00,59.70,0
48.00,58.96,0
68.00,58.20,0
38.00,57.53,0
48.00,56.71,0
54.00,55.77,0
76.00,55.12,0
47.00,54.90,0
60.00,54.81,0
58.00,54.80,0
80.00,55.09,0
109.00,56.20,0
60.00,58.14,0
82.00,60.26,0
53.00,62.17,0
89.00,63.85,0
54.00,65.38,0
83.00,66.69,0
68.00,67.86,0
53.00,68.76,0
42.00,68.95,0
67.00,68.50,0
72.00,67.95,0
54.00,67.47,0
45.00,66.74,0
59.00,65.65,0
77.00,64.63,0
68.00,64.05,0
71.00,63.83,0
54.00,63.74,0
44.00,63.40,0
52.00,62.66,0
46.00,61.62,0
45.00,60.36,0
57.00,59.01,0
53.00,57.78,0
53.00,56.72,0
53.00,55.79,0
66.00,55.10,0
53.00,54.72,0
64.00,54.57,0
56.00,54.62,0
84.00,54.99,0
62.00,55.82,0
76.00,56.95,0
50.00,58.10,0
89.00,59.25,0
79.00,60.71,0
77.00,62.48,0
55.00,64.14,0
53.00,65.27,0
75.00,65.92,0
63.00,66.43,0
38.00,66.60,0
40.00,65.99,0
37.00,64.64,0
60.00,62.91,0
42.00,61.17,0
49.00,59.41,0
40.00,57.60,0
38.00,55.71,0
54.00,53.83,0
37.00,52.14,0
42.00,50.53,0
37.00,48.95,0
50.00,47.50,0
44.00,46.32,0
58.00,45.51,0
51.00,45.14,0
72.00,45.28,0
58.00,45.98,0
50.00,46.96,0
40.00,47.79,0
68.00,48.47,0
46.00,49.22,0
67.00,50.04,0
40.00,50.83,0
72.00,51.56,0
56.00,52.39,0
56.00,53.27,0
38.00,53.88,0
57.00,54.13,0
34.00,54.06,0
49.00,53.66,0
39.00,53.00,0
36.00,52.09,0
35.00,50.89,0
53.00,49.61,0
45.00,48.53,0
40.00,47.62,0
55.00,46.84,0
37.00,46.24,0
52.00,45.76,0
36.00,45.34,0
52.00,44.98,0
41.00,44.71,0
65.00,44.68,0
42.00,44.93,0
52.00,45.30,0
40.00,45.62,0
56.00,45.91,0
45.00,46.24,0
73.00,46.78,0
44.00,47.58,0
64.00,48.47,0
36.00,49.26,0
56.00,49.82,0
35.00,50.12,0
88.00,50.45,0
45.00,51.15,0
78.00,52.11,0
36.00,53.08,0
57.00,53.77,0
36.00,54.05,0
52.00,53.97,0
37.00,53.59,0
72.00,53.17,0
42.00,52.93,0
48.00,52.69,0
54.00,52.34,0
38.00,51.96,0
36.00,51.32,0
35.00,50.33,0
50.00,49.20,0
38.00,48.15,0
56.00,47.27,0
47.00,46.66,0
74.00,46.51,0
36.00,46.77,0
54.00,47.07,0
54.00,47.38,0
72.00,47.99,0
38.00,48.81,0
58.00,49.52,0
43.00,50.05,0
64.00,50.52,0
59.00,51.11,0
56.00,51.83,0
31.00,52.34,0
76.00,52.60,0
38.00,52.88,0
45.00,52.98,0
35.00,52.65,0
49.00,52.01,0
37.00,51.21,0
35.00,50.21,0
36.00,48.98,0
38.00,47.62,0
54.00,46.39,0
39.00,45.44,0
43.00,44.67,0
40.00,43.97,0
47.00,43.39,0
36.00,42.91,0
54.00,42.57,0
38.00,42.40,0
70.00,42.53,0
36.00,42.99,0
57.00,43.56,0
52.00,44.23,0
50.00,45.02,0
57.00,45.86,0
64.00,46.87,0
48.00,48.01,0
71.00,49.20,0
54.00,50.49,0
51.00,51.71,0
44.00,52.58,0
68.00,53.21,0
48.00,53.81,0
53.00,54.29,0
37.00,54.43,0
57.00,54.26,0
35.00,53.87,0
52.00,53.28,0
64.00,52.74,0
40.00,52.41,0
48.00,52.01,0
38.00,51.43,0
39.00,50.63,0
40.00,49.64,0
39.00,48.55,0
38.00,47.41,0
50.00,46.34,0
51.00,45.55,0
46.00,45.09,0
43.00,44.78,0
75.00,44.78,0
45.00,45.26,0
54.00,45.94,0
64.00,46.74,0
56.00,47.76,0
42.00,48.76,0
74.00,49.68,0
58.00,50.78,0
58.00,51.99,0
56.00,53.09,0
68.00,54.14,0
42.00,55.08,0
54.00,55.68,0
37.00,55.83,0
70.00,55.74,0
35.00,55.58,0
38.00,55.10,0
38.00,54.14,0
42.00,52.90,0
39.00,51.55,0
40.00,50.13,0
45.00,48.76,0
38.00,47.49,0
51.00,46.37,0
34.00,45.43,0
56.00,44.66,0
36.00,44.10,0
77.00,43.92,0
49.00,44.30,0
56.00,45.04,0
40.00,45.77,0
73.00,46.54,0
40.00,47.46,0
64.00,48.38,0
41.00,49.21,0
68.00,49.98,0
37.00,50.68,0
99.00,51.53,0
46.00,52.79,0
46.00,53.97,0
37.00,54.52,0
53.00,54.57,0
39.00,54.31,0
55.00,53.85,0
36.00,53.25,0
46.00,52.47,0
45.00,51.57,0
47.00,50.69,0
39.00,49.82,0
40.00,48.87,0
47.00,47.91,0
38.00,47.01,0
47.00,46.19,0
43.00,45.48,0
49.00,44.94,0
36.00,44.51,0
69.00,44.28,0
57.00,44.56,0
35.00,45.10,0
45.00,45.44,0
81.00,45.89,0
39.00,46.76,0
69.00,47.76,0
36.00,48.70,0
72.00,49.56,0
53.00,50.50,0
36.00,51.32,0
36.00,51.58,0
69.00,51.53,0
38.00,51.54,0
78.00,51.69,0
42.00,52.05,0
69.00,52.51,0
39.00,52.93,0
42.00,53.07,0
35.00,52.72,0
43.00,52.00,0
36.00,51.03,0
40.00,49.88,0
35.00,48.61,0
40.00,47.28,0
45.00,46.02,0
48.00,45.02,0
50.00,44.34,0
40.00,43.92,0
60.00,43.72,0
36.00,43.74,0
51.00,43.82,0
41.00,43.91,0
49.00,44.04,0
66.00,44.37,0
45.00,45.02,0
53.00,45.75,0
70.00,46.62,0
42.00,47.69,0
69.00,48.76,0
45.00,49.82,0
70.00,50.88,0
41.00,51.86,0
66.00,52.70,0
47.00,53.41,0
56.00,53.97,0
41.00,54.27,0
63.00,54.36,0
35.00,54.30,0
41.00,53.90,0
42.00,53.12,0
49.00,52.22,0
35.00,51.25,0
41.00,50.15,0
56.00,49.08,0
34.00,48.19,0
63.00,47.47,0
34.00,46.95,0
65.00,46.63,0
43.00,46.55,0
67.00,46.76,0
37.00,47.14,0
72.00,47.63,0
39.00,48.24,0
66.00,48.90,0
55.00,49.65,0
69.00,50.61,0
43.00,51.61,0
69.00,52.52,0
42.00,53.32,0
98.00,54.24,0
53.00,55.54,0
47.00,56.78,0
46.00,57.43,0
60.00,57.67,0
39.00,57.65,0
52.00,57.29,0
43.00,56.66,0
36.00,55.74,0
56.00,54.62,0
46.00,53.56,0
44.00,52.58,0
38.00,51.51,0
48.00,50.38,0
39.00,49.29,0
43.00,48.23,0
39.00,47.18,0
45.00,46.20,0
53.00,45.43,0
79.00,45.25,0
50.00,45.78,0
57.00,46.62,0
62.00,47.58,0
73.00,48.84,0
45.00,50.27,0
88.00,51.76,0
49.00,53.43,0
80.00,55.12,0
55.00,56.77,0
43.00,58.07,0
55.00,58.76,0
80.00,59.27,0
35.00,59.76,0
61.00,59.90,0
36.00,59.62,0
67.00,59.09,0
64.00,58.67,0
51.00,58.44,0
43.00,58.06,0
40.00,57.32,0
44.00,56.24,0
37.00,54.92,0
44.00,53.45,0
52.00,52.02,0
42.00,50.78,0
42.00,49.64,0
58.00,48.65,0
38.00,47.91,0
62.00,47.38,0
48.00,47.15,0
36.00,47.02,0
36.00,46.66,0
107.00,46.62,0
35.00,47.41,0
111.00,48.82,0
42.00,50.74,0
72.00,52.73,0
38.00,54.36,0
80.00,55.68,0
42.00,56.82,0
66.00,57.72,0
64.00,58.45,0
114.00,59.63,0
36.00,61.26,0
65.00,62.56,0
45.00,63.21,0
53.00,63.34,0
36.00,62.89,0
51.00,61.91,0
42.00,60.61,0
36.00,59.02,0
39.00,57.13,0
87.00,55.46,0
48.00,54.52,0
38.00,53.83,0
35.00,52.85,0
39.00,51.57,0
81.00,50.49,0
39.00,49.99,0
56.00,49.73,0
88.00,49.87,0
72.00,50.84,0
84.00,52.50,0
68.00,54.57,0
48.00,56.56,0
81.00,58.23,0
66.00,59.85,0
84.00,61.56,0
55.00,63.22,0
84.00,64.68,0
53.00,65.93,0
66.00,66.82,0
36.00,67.12,0
71.00,66.85,0
36.00,66.19,0
60.00,65.19,0
36.00,63.85,0
53.00,62.25,0
43.00,60.50,0
34.00,58.61,0
43.00,56.50,0
36.00,54.32,0
35.00,52.10,0
39.00,49.90,0
55.00,47.96,0
39.00,46.46,0
48.00,45.27,0
67.00,44.55,0
68.00,44.60,0
38.00,45.15,0
79.00,45.91,0
47.00,46.99,0
66.00,48.23,0
50.00,49.47,0
86.00,50.86,0
56.00,52.53,0
75.00,54.32,0
44.00,55.95,0
67.00,57.25,0
49.00,58.21,0
80.00,59.05,0
36.00,59.76,0
61.00,60.08,0
42.00,60.00,0
52.00,59.58,0
42.00,58.84,0
43.00,57.82,0
40.00,56.52,0
56.00,55.14,0
36.00,53.82,0
77.00,52.74,0
58.00,52.22,0
36.00,52.00,0
42.00,51.53,0
35.00,50.75,0
89.00,50.15,0
53.00,50.22,0
56.00,50.69,0
40.00,51.07,0
73.00,51.39,0
37.00,51.78,0
65.00,52.12,0
52.00,52.46,0
79.00,53.04,0
41.00,53.80,0
89.00,54.66,0
62.00,55.84,0
67.00,57.20,0
47.00,58.35,0
47.00,59.01,0
39.00,59.05,0
63.00,58.68,0
35.00,58.11,0
37.00,57.17,0
36.00,55.76,0
55.00,54.21,0
44.00,52.80,0
57.00,51.64,0
37.00,50.67,0
45.00,49.70,0
47.00,48.77,0
36.00,47.89,0
58.00,47.10,0
38.00,46.51,0
101.00,46.47,0
36.00,47.18,0
56.00,48.05,0
46.00,48.73,0
58.00,49.34,0
37.00,49.81,0
49.00,50.02,0
57.00,50.11,0
58.00,50.35,0
57.00,50.77,0
86.00,51.55,0
32.00,52.59,0
42.00,53.23,0
51.00,53.33,0
75.00,53.46,0
48.00,53.85,0
64.00,54.31,0
36.00,54.61,0
58.00,54.64,0
38.00,54.43,0
50.00,53.99,0
37.00,53.32,0
53.00,52.51,0
45.00,51.71,0
72.00,51.17,0
44.00,50.99,0
41.00,50.83,0
55.00,50.52,0
69.00,50.44,0
72.00,50.90,0
65.00,51.87,0
51.00,52.98,0
48.00,53.85,0
65.00,54.48,0
47.00,55.02,0
67.00,55.48,0
53.00,55.93,0
62.00,56.36,0
93.00,57.06,0
78.00,58.41,0
70.00,60.13,0
78.00,61.90,0
67.00,63.62,0
134.00,65.68,0
80.00,68.51,0
63.00,71.33,0
76.00,73.46,0
84.00,75.11,0
94.00,76.67,0
86.00,78.29,0
78.00,79.77,0
57.00,80.72,0
102.00,81.21,0
80.00,81.72,0
72.00,82.16,0
83.00,82.32,0
87.00,82.41,0
74.00,82.48,0
62.00,82.27,0
57.00,81.49,0
70.00,80.24,0
56.00,78.73,0
63.00,77.00,0
72.00,75.24,0
68.00,73.70,0
58.00,72.28,0
66.00,70.88,0
66.00,69.59,0
110.00,68.86,0
92.00,69.15,0
113.00,70.45,0
90.00,72.49,0
104.00,74.93,0
101.00,77.60,0
122.00,80.60,0
68.00,83.64,0
91.00,86.06,0
107.00,88.01,0
137.00,90.24,0
72.00,92.69,0
56.00,94.28,0
75.00,94.51,0
145.00,94.46,0
65.00,94.86,0
83.00,94.98,0
63.00,94.36,0
76.00,93.12,0
71.00,91.48,0
80.00,89.66,0
51.00,87.65,0
68.00,85.29,0
55.00,82.69,0
66.00,79.98,0
71.00,77.42,0
44.00,75.00,0
69.00,72.56,0
80.00,70.48,0
110.00,69.36,0
94.00,69.48,0
114.00,70.67,0
81.00,72.57,0
116.00,74.85,0
80.00,77.36,0
111.00,79.91,0
104.00,82.56,0
107.00,85.37,0
84.00,88.00,0
82.00,90.03,0
81.00,91.33,0
62.00,91.82,0
68.00,91.41,0
105.00,90.58,0
66.00,89.80,0
147.00,89.41,0
62.00,89.65,0
105.00,89.98,0
62.00,90.01,0
61.00,89.46,0
74.00,88.21,0
83.00,86.77,0
48.00,85.18,0
54.00,83.07,0
61.00,80.52,0
77.00,78.01,0
73.00,75.90,0
73.00,74.24,0
83.00,73.02,0
100.00,72.48,0
109.00,72.92,0
92.00,74.23,0
73.00,75.80,0
82.00,77.13,0
74.00,78.16,0
96.00,79.05,0
105.00,80.19,0
89.00,81.66,0
77.00,83.06,0
108.00,84.27,0
116.00,85.80,0
75.00,87.55,0
82.00,88.86,0
57.00,89.36,0
90.00,89.15,0
58.00,88.48,0
143.00,87.93,0
64.00,87.98,0
79.00,88.00,0
61.00,87.45,0
79.00,86.46,0
61.00,85.16,0
70.00,83.60,0
73.00,81.91,0
62.00,80.22,0
88.00,78.64,0
58.00,77.28,0
82.00,76.06,0
87.00,75.17,0
85.00,74.83,0
127.00,75.27,0
117.00,76.89,0
89.00,79.30,0
99.00,81.77,0
78.00,83.96,0
114.00,85.90,0
86.00,87.77,0
127.00,89.70,0
67.00,91.57,0
131.00,93.20,0
84.00,94.77,0
129.00,96.37,0
60.00,97.72,0
96.00,98.37,0
57.00,98.16,0
76.00,97.11,0
108.00,95.73,0
76.00,94.55,0
84.00,93.37,0
78.00,92.05,0
60.00,90.48,0
69.00,88.51,0
57.00,86.19,0
60.00,83.58,0
55.00,80.76,0
73.00,77.95,0
79.00,75.56,0
108.00,74.04,0
59.00,73.36,0
71.00,72.87,0
87.00,72.47,0
76.00,72.42,0
107.00,72.85,0
110.00,74.08,0
111.00,76.18,0
71.00,78.58,0
117.00,80.87,0
59.00,82.94,0
104.00,84.57,0
100.00,86.05,0
142.00,88.02,0
93.00,90.55,0
85.00,92.90,0
97.00,94.58,0
106.00,95.91,0
138.00,97.45,0
127.00,99.60,0
146.00,102.39,0
124.00,105.62,0
70.00,108.41,0
79.00,109.79,0
90.00,109.83,0
110.00,109.28,0
105.00,108.68,0
79.00,107.92,0
90.00,106.70,0
114.00,105.33,0
75.00,104.05,0
82.00,102.50,0
100.00,100.73,0
161.00,99.72,0
167.00,100.51,0
127.00,102.95,0
86.00,105.58,0
115.00,107.52,0
127.00,109.10,0
117.00,110.70,0
178.00,112.72,0
124.00,115.47,0
107.00,118.14,0
156.00,120.35,0
161.00,122.84,0
113.00,125.57,0
114.00,127.62,0
141.00,128.95,0
178.00,130.44,0
176.00,132.82,0
200.00,136.26,0
89.00,139.87,0
101.00,141.94,0
68.00,141.80,0
115.00,139.92,0
65.00,136.86,0
79.00,132.69,0
70.00,127.55,0
70.00,121.82,0
71.00,115.75,0
87.00,109.78,0
99.00,104.46,0
104.00,100.18,0
143.00,97.33,0
176.00,96.62,0
113.00,97.90,0
163.00,100.30,0
94.00,103.21,0
185.00,106.45,0
112.00,110.14,0
165.00,114.06,0
105.00,117.78,0
119.00,120.80,0
140.00,123.09,0
173.00,125.50,0
102.00,128.04,0
126.00,129.89,0
110.00,130.85,0
187.00,131.65,0
120.00,132.90,0
143.00,134.16,0
105.00,134.90,0
125.00,134.96,0
67.00,134.04,0
60.00,131.56,0
80.00,127.53,0
83.00,122.75,0
56.00,117.57,0
70.00,111.94,0
67.00,106.13,0
69.00,100.47,0
62.00,95.05,0
73.00,90.00,0
92.00,85.66,0
87.00,82.37,0
138.00,80.48,0
109.00,80.30,0
115.00,81.39,0
142.00,83.50,0
88.00,86.37,0
124.00,89.35,0
95.00,92.22,0
86.00,94.65,0
90.00,96.33,0
82.00,97.29,0
98.00,97.72,0
91.00,97.87,0
58.00,97.54,0
77.00,96.41,0
72.00,94.72,0
97.00,92.93,0
100.00,91.52,0
81.00,90.55,0
107.00,89.87,0
70.00,89.39,0
54.00,88.56,0
58.00,86.97,0
71.00,84.87,0
47.00,82.52,0
72.00,79.96,0
64.00,77.48,0
66.00,75.23,0
53.00,73.10,0
79.00,71.13,0
75.00,69.65,0
97.00,68.91,0
73.00,68.91,0
149.00,69.86,0
81.00,72.00,0
110.00,74.72,0
86.00,77.52,0
96.00,80.21,0
116.00,82.85,0
101.00,85.67,0
111.00,88.52,0
88.00,91.16,0
110.00,93.43,0
92.00,95.37,0
89.00,96.86,0
116.00,97.98,0
105.00,99.12,0
60.00,99.89,0
80.00,99.69,0
120.00,99.05,0
127.00,98.99,0
45.00,99.14,0
46.00,98.15,0
94.00,96.03,0
69.00,93.76,0
85.00,91.55,0
68.00,89.38,0
78.00,87.24,0
75.00,85.21,0
96.00,83.53,0
76.00,82.32,0
67.00,81.29,0
110.00,80.46,0
129.00,80.62,0
95.00,81.90,0
71.00,83.38,0
110.00,84.62,0
98.00,85.98,0
99.00,87.52,0
121.00,89.24,0
102.00,91.27,0
62.00,92.99,0
80.00,93.76,0
78.00,93.72,0
58.00,93.02,0
126.00,92.06,0
100.00,91.67,0
157.00,92.34,0
96.00,94.01,0
56.00,95.51,0
108.00,96.12,0
66.00,96.19,0
48.00,95.45,0
62.00,93.59,0
40.00,90.84,0
54.00,87.36,0
68.00,83.61,0
72.00,80.17,0
53.00,77.09,0
56.00,74.13,0
87.00,71.52,0
78.00,69.71,0
184.00,69.56,0
153.00,72.07,0
82.00,76.33,0
127.00,80.70,0
88.00,84.86,0
93.00,88.49,0
87.00,91.31,0
73.00,93.24,0
138.00,94.69,0
110.00,96.45,0
95.00,98.35,0
86.00,99.73,0
62.00,100.20,0
122.00,100.00,0
74.00,99.68,0
114.00,99.32,0
62.00,98.77,0
181.00,98.54,0
121.00,99.63,0
82.00,101.34,0
48.00,102.04,0
79.00,101.33,0
57.00,99.62,0
55.00,97.07,0
58.00,93.78,0
74.00,90.21,0
70.00,86.80,0
77.00,83.75,0
73.00,81.11,0
68.00,78.83,0
80.00,76.88,0
96.00,75.53,0
146.00,75.47,0
98.00,76.94,0
139.00,79.49,0
84.00,82.59,0
93.00,85.53,0
93.00,87.93,0
82.00,89.83,0
106.00,91.31,0
116.00,92.80,0
67.00,94.22,0
98.00,95.06,0
63.00,95.25,0
126.00,95.14,0
60.00,95.01,0
137.00,94.93,0
82.00,95.18,0
132.00,95.79,0
82.00,96.63,0
108.00,97.41,0
56.00,97.71,0
53.00,96.96,0
59.00,95.01,0
47.00,92.21,0
68.00,88.85,0
85.00,85.59,0
93.00,83.01,0
84.00,81.24,0
82.00,80.04,0
70.00,79.12,0
79.00,78.29,0
92.00,77.71,0
94.00,77.66,0
124.00,78.38,0
116.00,80.14,0
61.00,82.28,0
87.00,83.87,0
124.00,85.27,0
136.00,87.41,0
52.00,89.86,0
92.00,91.50,0
70.00,92.23,0
137.00,92.79,0
101.00,93.82,0
79.00,94.97,0
138.00,95.98,0
63.00,97.02,0
109.00,97.69,0
73.00,97.90,0
79.00,97.58,0
55.00,96.47,0
52.00,94.42,0
62.00,91.57,0
64.00,88.35,0
69.00,85.13,0
72.00,82.12,0
56.00,79.35,0
82.00,76.82,0
59.00,74.66,0
130.00,73.28,0
126.00,73.50,0
89.00,75.13,0
116.00,77.36,0
117.00,80.12,0
193.00,84.07,0
113.00,89.38,0
113.00,94.86,0
120.00,99.68,0
88.00,103.70,0
116.00,106.72,0
148.00,109.36,0
67.00,111.71,0
93.00,112.90,0
63.00,112.69,0
91.00,111.37,0
166.00,110.07,0
77.00,109.59,0
68.00,108.80,0
61.00,106.86,0
53.00,103.86,0
52.00,99.96,0
64.00,95.52,0
59.00,90.95,0
76.00,86.61,0
88.00,82.92,0
56.00,79.92,0
77.00,77.28,0
71.00,75.05,0
137.00,73.81,0
130.00,74.35,0
128.00,76.65,0
61.00,79.55,0
99.00,82.01,0
62.00,83.82,0
148.00,85.50,0
137.00,88.04,0
86.00,91.25,0
111.00,94.15,0
66.00,96.33,0
146.00,98.02,0
107.00,99.91,0
72.00,101.61,0
60.00,102.12,0
122.00,101.73,0
116.00,101.54,0
111.00,101.89,0
85.00,102.28,0
64.00,102.05,0
62.00,100.78,0
58.00,98.52,0
56.00,95.47,0
48.00,91.80,0
86.00,87.93,0
71.00,84.49,0
85.00,81.67,0
76.00,79.45,0
80.00,77.75,0
74.00,76.45,0
110.00,75.74,0
137.00,76.27,0
74.00,77.93,0
100.00,79.80,0
139.00,82.00,0
141.00,85.24,0
146.00,89.58,0
136.00,94.60,0
103.00,99.61,0
80.00,103.61,0
63.00,105.93,0
114.00,106.82,0
101.00,107.21,0
74.00,107.18,0
104.00,106.54,0
136.00,105.98,0
79.00,105.81,0
133.00,105.72,0
83.00,105.69,0
55.00,105.10,0
62.00,103.28,0
68.00,100.53,0
50.00,97.17,0
59.00,93.27,0
55.00,89.08,0
50.00,84.76,0
62.00,80.46,0
70.00,76.55,0
70.00,73.30,0
86.00,70.86,0
104.00,69.51,0
144.00,69.82,0
116.00,71.94,0
114.00,75.23,0
92.00,78.84,0
120.00,82.43,0
90.00,85.92,0
101.00,89.05,0
132.00,91.98,0
63.00,94.71,0
106.00,96.66,0
127.00,98.27,0
93.00,99.98,0
71.00,101.16,0
83.00,101.33,0
117.00,101.04,0
107.00,100.98,0
132.00,101.42,0
89.00,102.20,0
59.00,102.47,0
54.00,101.45,0
52.00,99.11,0
54.00,95.82,0
60.00,91.98,0
52.00,87.88,0
82.00,83.89,0
63.00,80.40,0
94.00,77.57,0
70.00,75.53,0
71.00,73.99,0
58.00,72.61,0
130.00,71.78,0
112.00,72.33,0
145.00,74.47,0
147.00,78.17,0
83.00,82.73,0
122.00,87.05,0
81.00,90.82,0
160.00,94.36,0
137.00,98.39,0
80.00,102.44,0
88.00,105.32,0
103.00,106.99,0
98.00,107.97,0
98.00,108.42,0
79.00,108.27,0
84.00,107.38,0
79.00,105.85,0
90.00,103.93,0
61.00,101.69,0
70.00,98.95,0
48.00,95.66,0
59.00,91.86,0
55.00,87.77,0
56.00,83.61,0
87.00,79.78,0
70.00,76.72,0
72.00,74.32,0
85.00,72.52,0
110.00,71.66,0
86.00,71.88,0
84.00,72.70,0
128.00,74.08,0
160.00,76.81,0
82.00,80.74,0
92.00,84.50,0
107.00,87.64,0
62.00,90.18,0
99.00,91.85,0
57.00,92.70,0
93.00,92.81,0
133.00,92.94,0
84.00,93.62,0
128.00,94.59,0
133.00,96.12,0
56.00,97.82,0
108.00,98.80,0
149.00,99.75,0
71.00,101.13,0
85.00,101.94,0
53.00,101.60,0
71.00,100.14,0
70.00,97.92,0
64.00,95.28,0
63.00,92.26,0
84.00,89.19,0
76.00,86.44,0
70.00,84.03,0
54.00,81.65,0
74.00,79.22,0
75.00,77.05,0
129.00,75.77,0
70.00,75.61,0
127.00,76.27,0
107.00,77.81,0
118.00,80.21,0
125.00,83.24,0
106.00,86.72,0
80.00,89.93,0
105.00,92.47,0
62.00,94.25,0
83.00,95.06,0
120.00,95.42,0
106.00,96.07,0
65.00,96.68,0
98.00,96.70,0
71.00,96.26,0
142.00,95.91,0
139.00,96.56,0
71.00,97.92,0
85.00,98.74,0
64.00,98.62,0
73.00,97.63,0
73.00,95.99,0
56.00,93.85,0
78.00,91.29,0
58.00,88.56,0
57.00,85.63,0
77.00,82.64,0
106.00,80.25,0
124.00,79.21,0
94.00,79.49,0
154.00,80.92,0
67.00,83.21,0
122.00,85.59,0
76.00,87.77,0
103.00,89.64,0
138.00,91.56,0
110.00,94.04,0
169.00,97.16,0
73.00,100.63,0
138.00,103.69,0
88.00,106.19,0
123.00,108.20,0
154.00,110.17,0
159.00,112.92,0
154.00,116.43,0
109.00,120.02,0
78.00,122.50,0
102.00,123.37,0
52.00,122.71,0
93.00,120.63,0
58.00,117.51,0
68.00,113.54,0
107.00,109.25,0
88.00,105.44,0
71.00,101.99,0
83.00,98.58,0
57.00,95.16,0
103.00,91.89,0
99.00,89.36,0
161.00,88.31,0
71.00,88.66,0
91.00,89.26,0
95.00,89.64,0
145.00,90.48,0
143.00,92.49,0
106.00,95.40,0
86.00,98.11,0
78.00,99.86,0
151.00,101.14,0
147.00,103.14,0
65.00,105.46,0
138.00,107.17,0
61.00,108.25,0
99.00,108.46,0
72.00,107.77,0
75.00,106.31,0
127.00,104.57,0
56.00,102.97,0
77.00,100.96,0
56.00,98.29,0
73.00,95.18,0
59.00,91.84,0
50.00,88.25,0
52.00,84.35,0
78.00,80.52,0
57.00,77.13,0
79.00,74.25,0
73.00,71.99,0
104.00,70.61,0
89.00,70.27,0
109.00,70.93,0
78.00,72.26,0
95.00,73.86,0
101.00,75.68,0
108.00,77.92,0
76.00,80.29,0
147.00,82.80,0
94.00,85.82,0
83.00,88.73,0
54.00,90.60,0
90.00,91.35,0
112.00,91.76,0
94.00,92.41,0
114.00,93.27,0
48.00,93.90,0
74.00,93.61,0
60.00,92.42,0
59.00,90.56,0
37.00,87.91,0
46.00,84.47,0
56.00,80.60,0
49.00,76.70,0
91.00,73.23,0
63.00,70.60,0
44.00,68.42,0
94.00,66.53,0
55.00,65.26,0
77.00,64.46,0
56.00,63.92,0
101.00,63.78,0
74.00,64.32,0
70.00,65.24,0
128.00,66.61,0
54.00,68.59,0
45.00,70.15,0
44.00,70.57,0
53.00,70.09,0
98.00,69.47,0
53.00,69.19,0
50.00,68.79,0
49.00,67.88,0
55.00,66.63,0
45.00,65.16,0
109.00,63.99,0
68.00,63.72,0
40.00,63.76,0
39.00,63.24,0
40.00,62.05,0
43.00,60.44,0
44.00,58.63,0
48.00,56.79,0
48.00,55.07,0
102.00,53.97,0
41.00,53.78,0
74.00,54.00,0
53.00,54.37,0
55.00,54.81,0
58.00,55.15,0
83.00,55.69,0
44.00,56.47,0
62.00,57.12,0
91.00,57.87,0
122.00,59.55,0
87.00,62.37,0
69.00,65.46,0
60.00,68.00,0
65.00,69.78,0
40.00,70.73,0
60.00,70.81,0
60.00,70.35,0
80.00,69.82,0
64.00,69.46,0
68.00,69.17,0
50.00,68.72,0
42.00,67.85,0
51.00,66.47,0
58.00,64.90,0
44.00,63.30,0
48.00,61.59,0
54.00,59.87,0
42.00,58.21,0
59.00,56.65,0
50.00,55.33,0
68.00,54.38,0
54.00,53.84,0
94.00,53.87,0
62.00,54.63,0
70.00,55.78,0
56.00,56.94,0
68.00,58.00,0
58.00,58.96,0
79.00,59.91,0
56.00,60.91,0
87.00,61.94,0
103.00,63.43,0
74.00,65.51,0
60.00,67.48,0
69.00,68.93,0
41.00,69.72,0
66.00,69.81,0
91.00,69.76,0
86.00,70.17,0
39.00,70.65,0
57.00,70.52,0
40.00,69.68,0
75.00,68.49,0
45.00,67.26,0
64.00,66.00,0
61.00,64.79,0
61.00,63.78,0
52.00,62.84,0
36.00,61.71,0
65.00,60.38,0
50.00,59.15,0
70.00,58.21,0
57.00,57.61,0
111.00,57.69,0
77.00,58.77,0
74.00,60.45,0
52.00,62.02,0
108.00,63.53,0
57.00,65.26,0
93.00,67.02,0
61.00,68.66,0
62.00,69.92,0
46.00,70.48,0
93.00,70.61,0
75.00,70.92,0
70.00,71.39,0
66.00,71.71,0
82.00,71.93,0
44.00,71.99,0
44.00,71.42,0
46.00,70.09,0
44.00,68.26,0
56.00,66.18,0
54.00,64.14,0
51.00,62.25,0
76.00,60.68,0
70.00,59.73,0
60.00,59.32,0
43.00,58.97,0
39.00,58.28,0
64.00,57.36,0
46.00,56.53,0
95.00,56.10,0
60.00,56.37,0
80.00,57.15,0
56.00,58.13,0
83.00,59.23,0
109.00,60.83,0
88.00,63.27,0
77.00,66.02,0
109.00,68.82,0
95.00,71.90,0
87.00,75.06,0
52.00,77.62,0
99.00,79.41,0
61.00,80.71,0
80.00,81.52,0
59.00,81.76,0
60.00,81.37,0
48.00,80.26,0
48.00,78.46,0
69.00,76.26,0
56.00,74.07,0
55.00,71.90,0
43.00,69.61,0
97.00,67.53,0
38.00,65.99,0
69.00,64.65,0
37.00,63.25,0
64.00,61.80,0
61.00,60.53,0
68.00,59.66,0
39.00,58.98,0
47.00,58.10,0
59.00,57.10,0
79.00,56.47,0
56.00,56.38,0
112.00,56.97,0
82.00,58.52,0
106.00,60.91,0
88.00,63.88,0
112.00,67.28,0
71.00,70.80,0
94.00,74.01,0
67.00,76.70,0
129.00,79.15,0
75.00,81.70,0
92.00,84.01,0
98.00,85.93,0
85.00,87.64,0
122.00,89.26,0
62.00,90.77,0
110.00,91.87,0
88.00,92.72,0
120.00,93.65,0
69.00,94.55,0
126.00,95.28,0
54.00,95.78,0
58.00,95.42,0
40.00,93.70,0
61.00,90.94,0
51.00,87.61,0
78.00,84.16,0
67.00,81.03,0
131.00,78.80,0
46.00,77.59,0
92.00,76.71,0
50.00,75.83,0
86.00,74.94,0
74.00,74.24,0
100.00,74.01,0
127.00,74.71,0
88.00,76.42,0
113.00,78.64,0
158.00,81.62,0
92.00,85.49,0
111.00,89.35,0
131.00,93.00,0
85.00,96.48,0
111.00,99.35,0
93.00,101.54,0
134.00,103.42,0
88.00,105.14,0
170.00,106.93,0
87.00,109.02,0
127.00,110.89,0
102.00,112.31,0
68.00,112.98,0
68.00,112.27,0
66.00,110.25,0
84.00,107.43,0
109.00,104.56,0
78.00,102.07,0
79.00,99.65,0
61.00,96.97,0
106.00,94.26,0
97.00,92.14,0
110.00,90.88,0
70.00,90.10,0
78.00,89.25,0
112.00,88.45,0
134.00,88.51,0
111.00,89.68,0
160.00,91.88,0
100.00,94.91,0
135.00,98.16,0
96.00,101.23,0
132.00,104.02,0
115.00,106.62,0
120.00,109.06,0
106.00,111.11,0
161.00,113.08,0
116.00,115.32,0
138.00,117.60,0
104.00,119.55,0
109.00,120.83,0
122.00,121.49,0
93.00,121.66,0
131.00,121.39,0
148.00,121.33,0
83.00,121.49,0
102.00,121.02,0
110.00,119.96,0
96.00,118.64,0
101.00,117.05,0
117.00,115.40,0
106.00,113.97,0
135.00,112.96,0
148.00,112.79,0
126.00,113.54,0
118.00,114.63,0
115.00,115.61,0
109.00,116.32,0
162.00,117.10,0
127.00,118.44,0
129.00,120.06,0
117.00,121.46,0
127.00,122.57,0
127.00,123.47,0
154.00,124.50,0
145.00,125.96,0
135.00,127.68,0
105.00,129.07,0
134.00,129.82,0
184.00,130.70,0
113.00,132.13,0
154.00,133.51,0
118.00,134.60,0
139.00,135.35,0
97.00,135.52,0
130.00,135.00,0
124.00,134.11,0
120.00,133.12,0
113.00,131.90,0
132.00,130.57,0
88.00,129.09,0
84.00,126.93,0
109.00,124.12,0
85.00,121.07,0
113.00,117.99,0
129.00,115.39,0
140.00,113.82,0
98.00,113.05,0
142.00,112.67,0
144.00,113.02,0
124.00,114.12,0
81.00,115.09,0
123.00,115.40,0
138.00,115.66,0
64.00,115.86,0
112.00,115.31,0
164.00,114.81,0
98.00,115.08,0
89.00,115.20,0
76.00,114.37,0
144.00,113.15,0
96.00,112.28,0
60.00,111.18,0
73.00,109.05,0
137.00,106.66,0
89.00,104.92,0
66.00,103.28,0
66.00,100.99,0
90.00,98.30,0
71.00,95.62,0
62.00,92.86,0
80.00,89.96,0
65.00,87.15,0
86.00,84.58,0
112.00,82.72,0
80.00,81.80,0
72.00,81.23,0
81.00,80.63,0
115.00,80.40,0
135.00,81.25,0
111.00,83.31,0
119.00,86.06,0
170.00,89.59,0
127.00,94.15,0
166.00,99.38,0
110.00,104.77,0
80.00,109.25,0
121.00,112.28,0
78.00,114.18,0
136.00,115.26,0
87.00,115.89,0
96.00,115.89,0
66.00,114.90,0
176.00,113.70,0
93.00,113.25,0
94.00,112.93,0
59.00,111.75,0
104.00,109.78,0
70.00,107.44,0
59.00,104.63,0
59.00,101.07,0
53.00,96.93,0
56.00,92.41,0
76.00,87.91,0
66.00,83.85,0
95.00,80.49,0
78.00,78.04,0
116.00,76.64,0
83.00,76.28,0
116.00,76.77,0
106.00,78.08,0
112.00,80.13,0
118.00,82.74,0
109.00,85.76,0
116.00,88.96,0
102.00,92.11,0
87.00,94.83,0
130.00,97.11,0
150.00,99.75,0
115.00,102.95,0
92.00,105.88,0
138.00,108.22,0
115.00,110.41,0
132.00,112.56,0
92.00,114.36,0
144.00,115.76,0
83.00,116.81,0
146.00,117.52,0
88.00,118.01,0
62.00,117.64,0
133.00,116.32,0
80.00,114.85,0
63.00,112.86,0
81.00,110.00,0
124.00,107.08,0
82.00,104.72,0
73.00,102.44,0
89.00,99.95,0
105.00,97.69,0
99.00,96.04,0
146.00,95.31,0
170.00,96.24,0
64.00,98.31,0
127.00,100.14,0
84.00,101.54,0
146.00,102.90,0
103.00,104.48,0
106.00,106.02,0
96.00,107.08,0
200.00,108.46,0
111.00,110.93,0
152.00,113.89,0
88.00,116.53,0
144.00,118.58,0
183.00,120.85,0
118.00,123.76,0
83.00,126.03,0
140.00,127.09,0
184.00,128.22,0
87.00,129.76,0
82.00,130.27,0
72.00,129.01,0
126.00,126.70,0
66.00,123.97,0
87.00,120.66,0
49.00,116.55,0
82.00,111.78,0
68.00,106.78,0
92.00,102.02,0
73.00,97.72,0
78.00,93.83,0
120.00,90.65,0
144.00,89.08,0
78.00,88.96,0
127.00,89.45,0
116.00,90.58,0
90.00,92.16,0
169.00,94.14,0
118.00,97.05,0
106.00,100.28,0
78.00,102.79,0
150.00,104.70,0
154.00,107.11,0
72.00,109.78,0
117.00,111.61,0
80.00,112.50,0
99.00,112.56,0
133.00,112.28,0
191.00,112.96,0
137.00,115.15,0
64.00,117.38,0
63.00,117.90,0
79.00,116.63,0
81.00,114.31,0
78.00,111.41,0
64.00,108.01,0
73.00,104.15,0
92.00,100.28,0
103.00,96.99,0
82.00,94.42,0
79.00,92.21,0
137.00,90.60,0
100.00,90.11,0
94.00,90.33,0
104.00,90.74,0
143.00,91.73,0
122.00,93.68,0
134.00,96.38,0
73.00,99.06,0
94.00,100.92,0
76.00,101.79,0
48.00,101.51,0
38.00,99.68,0
39.00,96.35,0
45.00,91.97,0
50.00,87.08,0
51.00,82.11,0
44.00,77.25,0
35.00,72.43,0
39.00,67.64,0
44.00,63.06,0
38.00,58.86,0
54.00,55.16,0
53.00,52.17,0
77.00,50.14,0
38.00,48.95,0
79.00,48.35,0
47.00,48.30,0
55.00,48.55,0
51.00,48.85,0
72.00,49.36,0
54.00,50.17,0
95.00,51.39,0
37.00,52.95,0
68.00,54.34,0
69.00,55.60,0
83.00,57.10,0
66.00,58.85,0
71.00,60.60,0
52.00,62.07,0
71.00,63.17,0
45.00,63.90,0
89.00,64.40,0
37.00,64.80,0
58.00,64.79,0
64.00,64.44,0
100.00,64.40,0
51.00,64.84,0
44.00,65.07,0
34.00,64.52,0
80.00,63.56,0
40.00,62.67,0
37.00,61.54,0
38.00,59.91,0
44.00,57.99,0
97.00,56.45,0
38.00,55.70,0
66.00,55.26,0
54.00,54.95,0
71.00,54.92,0
53.00,55.15,0
65.00,55.49,0
56.00,55.90,0
73.00,56.43,0
49.00,57.03,0
70.00,57.60,0
77.00,58.33,0
53.00,59.25,0
76.00,60.12,0
69.00,61.07,0
40.00,61.86,0
84.00,62.35,0
52.00,62.81,0
70.00,63.21,0
40.00,63.35,0
88.00,63.33,0
39.00,63.32,0
56.00,63.06,0
51.00,62.45,0
74.00,61.84,0
58.00,61.45,0
38.00,61.02,0
40.00,60.11,0
38.00,58.71,0
56.00,57.14,0
53.00,55.73,0
69.00,54.73,0
39.00,54.06,0
59.00,53.46,0
72.00,53.14,0
76.00,53.44,0
86.00,54.46,0
77.00,56.12,0
60.00,58.00,0
68.00,59.71,0
61.00,61.15,0
87.00,62.52,0
46.00,63.81,0
84.00,64.86,0
86.00,65.99,0
107.00,67.66,0
68.00,69.73,0
50.00,71.42,0
98.00,72.54,0
86.00,73.74,0
57.00,74.92,0
78.00,75.64,0
49.00,75.84,0
38.00,75.25,0
60.00,73.85,0
44.00,72.02,0
74.00,70.08,0
37.00,68.18,0
41.00,66.04,0
41.00,63.56,0
47.00,60.98,0
37.00,58.42,0
50.00,55.96,0
45.00,53.75,0
43.00,51.80,0
42.00,50.04,0
56.00,48.56,0
82.00,47.78,0
88.00,48.15,0
52.00,49.41,0
85.00,51.01,0
102.00,53.23,0
95.00,56.33,0
67.00,59.78,0
111.00,63.24,0
62.00,66.68,0
94.00,69.80,0
42.00,72.28,0
55.00,73.71,0
53.00,74.05,0
63.00,73.72,0
39.00,72.83,0
79.00,71.57,0
67.00,70.43,0
64.00,69.52,0
38.00,68.46,0
38.00,66.86,0
36.00,64.67,0
42.00,62.13,0
48.00,59.53,0
42.00,57.07,0
61.00,54.92,0
37.00,53.12,0
42.00,51.46,0
40.00,49.84,0
56.00,48.42,0
38.00,47.32,0
95.00,46.79,0
42.00,47.08,0
69.00,47.78,0
85.00,48.93,0
76.00,50.79,0
58.00,52.96,0
70.00,55.02,0
92.00,57.17,0
81.00,59.67,0
43.00,62.06,0
98.00,64.01,0
53.00,65.79,0
77.00,67.29,0
59.00,68.41,0
74.00,69.22,0
42.00,69.60,0
75.00,69.52,0
60.00,69.25,0
44.00,68.73,0
40.00,67.61,0
46.00,65.94,0
44.00,63.94,0
43.00,61.77,0
39.00,59.48,0
39.00,57.09,0
61.00,54.86,0
48.00,53.08,0
53.00,51.71,0
40.00,50.56,0
44.00,49.47,0
71.00,48.66,0
103.00,48.82,0
43.00,49.96,0
60.00,51.23,0
68.00,52.42,0
83.00,53.89,0
59.00,55.65,0
72.00,57.41,0
75.00,59.14,0
86.00,61.05,0
51.00,62.94,0
68.00,64.42,0
72.00,65.55,0
63.00,66.52,0
36.00,66.99,0
56.00,66.71,0
39.00,65.84,0
75.00,64.72,0
64.00,63.83,0
59.00,63.20,0
58.00,62.62,0
45.00,61.93,0
46.00,60.95,0
38.00,59.65,0
39.00,58.01,0
49.00,56.21,0
63.00,54.64,0
39.00,53.41,0
70.00,52.46,0
42.00,51.82,0
75.00,51.52,0
38.00,51.49,0
58.00,51.49,0
71.00,51.65,0
75.00,52.33,0
44.00,53.32,0
101.00,54.49,0
73.00,56.21,0
113.00,58.66,0
48.00,61.44,0
72.00,63.85,0
76.00,65.78,0
106.00,67.79,0
48.00,69.86,0
97.00,71.60,0
55.00,73.00,0
66.00,73.91,0
50.00,74.12,0
46.00,73.57,0
38.00,72.20,0
47.00,70.17,0
41.00,67.73,0
54.00,65.15,0
36.00,62.56,0
57.00,60.03,0
53.00,57.80,0
41.00,55.89,0
58.00,54.18,0
48.00,52.78,0
70.00,51.83,0
44.00,51.31,0
89.00,51.26,0
43.00,51.72,0
101.00,52.64,0
40.00,53.97,0
95.00,55.47,0
62.00,57.19,0
85.00,59.12,0
59.00,61.05,0
84.00,62.86,0
52.00,64.47,0
60.00,65.61,0
50.00,66.14,0
80.00,66.34,0
44.00,66.40,0
68.00,66.19,0
34.00,65.62,0
77.00,64.77,0
32.00,63.80,0
43.00,62.48,0
46.00,60.76,0
42.00,58.90,0
37.00,56.93,0
36.00,54.80,0
38.00,52.58,0
78.00,50.73,0
44.00,49.61,0
47.00,48.88,0
52.00,48.29,0
41.00,47.82,0
74.00,47.61,0
49.00,47.83,0
88.00,48.57,0
87.00,50.10,0
107.00,52.67,0
89.00,56.10,0
88.00,59.93,0
58.00,63.53,0
76.00,66.47,0
59.00,68.74,0
92.00,70.55,0
64.00,72.14,0
76.00,73.40,0
37.00,74.03,0
51.00,73.72,0
40.00,72.52,0
57.00,70.77,0
87.00,69.10,0
98.00,68.26,0
71.00,68.29,0
42.00,68.39,0
59.00,67.97,0
39.00,67.05,0
58.00,65.74,0
36.00,64.16,0
58.00,62.38,0
46.00,60.61,0
71.00,59.08,0
37.00,57.83,0
63.00,56.69,0
71.00,55.88,0
83.00,55.79,0
60.00,56.34,0
58.00,57.05,0
76.00,57.78,0
86.00,58.88,0
56.00,60.28,0
58.00,61.46,0
54.00,62.20,0
88.00,62.81,0
56.00,63.56,0
91.00,64.43,0
62.00,65.44,0
65.00,66.36,0
38.00,66.77,0
51.00,66.46,0
59.00,65.67,0
55.00,64.75,0
44.00,63.67,0
36.00,62.22,0
41.00,60.36,0
40.00,58.26,0
55.00,56.19,0
46.00,54.37,0
63.00,52.94,0
36.00,51.81,0
58.00,50.84,0
44.00,50.04,0
79.00,49.64,0
48.00,49.75,0
80.00,50.30,0
44.00,51.14,0
79.00,52.13,0
69.00,53.39,0
78.00,55.02,0
41.00,56.64,0
68.00,57.88,0
102.00,59.22,0
71.00,61.12,0
81.00,63.22,0
90.00,65.40,0
39.00,67.37,0
58.00,68.51,0
59.00,68.88,0
68.00,68.90,0
37.00,68.55,0
37.00,67.50,0
45.00,65.77,0
74.00,63.93,0
40.00,62.36,0
52.00,60.80,0
36.00,59.09,0
39.00,57.19,0
43.00,55.15,0
49.00,53.22,0
51.00,51.57,0
67.00,50.42,0
77.00,50.04,0
43.00,50.28,0
104.00,51.00,0
38.00,52.26,0
56.00,53.44,0
47.00,54.20,0
98.00,55.03,0
56.00,56.32,0
64.00,57.70,0
55.00,58.82,0
78.00,59.81,0
37.00,60.63,0
74.00,61.12,0
75.00,61.62,0
60.00,62.31,0
38.00,62.70,0
84.00,62.75,0
49.00,62.82,0
74.00,62.91,0
53.00,62.96,0
49.00,62.82,0
36.00,62.17,0
61.00,61.13,0
41.00,59.96,0
54.00,58.73,0
36.00,57.37,0
35.00,55.78,0
43.00,53.95,0
38.00,52.10,0
47.00,50.34,0
49.00,48.84,0
72.00,47.87,0
45.00,47.53,0
83.00,47.72,0
43.00,48.38,0
66.00,49.23,0
38.00,50.00,0
87.00,50.83,0
47.00,51.92,0
76.00,53.16,0
43.00,54.34,0
63.00,55.30,0
38.00,55.92,0
86.00,56.40,0
89.00,57.36,0
96.00,59.17,0
47.00,61.30,0
70.00,63.03,0
53.00,64.25,0
78.00,65.16,0
47.00,65.80,0
62.00,66.05,0
43.00,65.83,0
77.00,65.35,0
43.00,64.80,0
91.00,64.34,0
42.00,64.07,0
43.00,63.55,0
39.00,62.44,0
46.00,60.91,0
50.00,59.23,0
52.00,57.63,0
53.00,56.23,0
37.00,54.91,0
70.00,53.72,0
38.00,52.82,0
76.00,52.22,0
50.00,52.02,0
94.00,52.38,0
67.00,53.44,0
113.00,55.30,0
42.00,57.65,0
57.00,59.63,0
56.00,60.91,0
77.00,61.91,0
58.00,62.84,0
80.00,63.72,0
67.00,64.64,0
99.00,65.78,0
77.00,67.31,0
59.00,68.82,0
47.00,69.69,0
56.00,69.77,0
50.00,69.26,0
68.00,68.43,0
82.00,67.75,0
57.00,67.38,0
41.00,66.83,0
53.00,65.80,0
43.00,64.41,0
45.00,62.73,0
49.00,60.89,0
36.00,58.96,0
53.00,56.99,0
41.00,55.11,0
56.00,53.44,0
60.00,52.17,0
41.00,51.27,0
41.00,50.41,0
74.00,49.71,0
45.00,49.48,0
72.00,49.61,0
61.00,50.14,0
70.00,51.07,0
67.00,52.30,0
98.00,54.01,0
48.00,56.10,0
93.00,58.21,0
37.00,60.12,0
82.00,61.65,0
53.00,62.87,0
64.00,63.80,0
46.00,64.28,0
58.00,64.28,0
44.00,63.86,0
38.00,62.95,0
32.00,61.43,0
40.00,59.40,0
42.00,57.18,0
41.00,54.96,0
40.00,52.82,0
36.00,50.73,0
60.00,48.90,0
47.00,47.56,0
76.00,46.88,0
66.00,47.01,0
82.00,47.95,0
53.00,49.42,0
111.00,51.38,0
42.00,53.78,0
74.00,56.05,0
67.00,58.05,0
66.00,59.91,0
68.00,61.55,0
71.00,63.02,0
58.00,64.27,0
103.00,65.49,0
54.00,66.88,0
51.00,67.89,0
68.00,68.26,0
61.00,68.34,0
46.00,68.09,0
72.00,67.51,0
37.00,66.71,0
50.00,65.52,0
39.00,63.90,0
50.00,62.03,0
36.00,60.01,0
43.00,57.85,0
36.00,55.60,0
41.00,53.34,0
48.00,51.24,0
36.00,49.37,0
60.00,47.81,0
70.00,46.91,0
75.00,46.94,0
66.00,47.79,0
66.00,49.10,0
65.00,50.65,0
80.00,52.44,0
71.00,54.51,0
72.00,56.70,0
75.00,58.89,0
76.00,61.07,0
45.00,62.96,0
73.00,64.29,0
40.00,65.09,0
63.00,65.32,0
66.00,65.26,0
78.00,65.31,0
52.00,65.45,0
84.00,65.60,0
39.00,65.68,0
62.00,65.42,0
72.00,65.01,0
55.00,64.70,0
61.00,64.33,0
44.00,63.75,0
40.00,62.77,0
40.00,61.30,0
46.00,59.53,0
42.00,57.66,0
44.00,55.77,0
42.00,53.91,0
50.00,52.18,0
43.00,50.68,0
58.00,49.46,0
41.00,48.55,0
72.00,48.01,0
54.00,47.99,0
91.00,48.62,0
43.00,49.80,0
79.00,51.16,0
52.00,52.59,0
80.00,54.12,0
57.00,55.71,0
126.00,57.73,0
88.00,60.63,0
57.00,63.79,0
50.00,66.17,0
70.00,67.66,0
38.00,68.45,0
107.00,68.88,0
35.00,69.29,0
58.00,69.26,0
38.00,68.51,0
43.00,67.14,0
42.00,65.25,0
79.00,63.36,0
64.00,62.02,0
37.00,60.96,0
65.00,59.82,0
36.00,58.65,0
50.00,57.37,0
40.00,55.95,0
68.00,54.67,0
46.00,53.71,0
77.00,53.17,0
46.00,53.03,0
70.00,53.15,0
43.00,53.37,0
91.00,53.82,0
55.00,54.70,0
75.00,55.83,0
67.00,57.10,0
97.00,58.70,0
127.00,61.18,0
67.00,64.49,0
74.00,67.64,0
84.00,70.27,0
48.00,72.34,0
84.00,73.71,0
81.00,74.76,0
70.00,75.70,0
66.00,76.29,0
44.00,76.24,0
54.00,75.40,0
49.00,73.94,0
58.00,72.11,0
43.00,70.06,0
37.00,67.69,0
42.00,64.96,0
51.00,62.15,0
44.00,59.52,0
37.00,57.01,0
45.00,54.56,0
51.00,52.36,0
48.00,50.58,0
68.00,49.32,0
41.00,48.60,0
71.00,48.26,0
50.00,48.34,0
48.00,48.61,0
57.00,48.89,0
41.00,49.16,0
61.00,49.39,0
93.00,50.05,0
62.00,51.45,0
81.00,53.28,0
49.00,55.16,0
80.00,56.91,0
46.00,58.46,0
100.00,59.96,0
77.00,61.78,0
78.00,63.87,0
37.00,65.57,0
39.00,66.29,0
36.00,65.88,0
53.00,64.76,0
39.00,63.26,0
104.00,61.97,0
164.00,62.34,0
130.00,65.20,0
143.00,69.90,0
86.00,75.30,0
51.00,79.94,0
44.00,82.74,0
41.00,83.63,0
54.00,83.04,0
58.00,81.55,0
52.00,79.55,0
62.00,77.26,0
77.00,75.05,0
88.00,73.41,0
51.00,72.24,0
102.00,71.38,0
128.00,71.53,0
101.00,73.07,0
128.00,75.60,0
102.00,78.83,0
118.00,82.39,0
121.00,86.16,0
140.00,90.31,0
172.00,95.23,0
190.00,101.38,0
89.00,107.99,0
115.00,113.43,0
78.00,117.11,0
138.00,119.41,0
126.00,121.19,0
66.00,122.30,0
139.00,122.38,0
127.00,122.29,0
105.00,122.30,0
124.00,122.07,0
89.00,121.51,0
104.00,120.43,0
110.00,118.99,0
87.00,117.36,0
79.00,115.24,0
92.00,112.60,0
81.00,109.71,0
85.00,106.69,0
122.00,103.95,0
113.00,102.08,0
89.00,100.90,0
92.00,99.84,0
168.00,99.37,0
142.00,100.45,0
246.00,103.71,0
175.00,109.44,0
169.00,116.47,0
170.00,123.63,0
186.00,130.72,0
156.00,137.55,0
218.00,144.11,0
164.00,150.59,0
168.00,156.43,0
203.00,161.50,0
123.00,165.78,0
166.00,168.64,0
146.00,170.21,0
235.00,171.50,0
165.00,173.26,0
183.00,175.06,0
156.00,176.31,0
141.00,176.69,0
62.00,175.28,0
84.00,171.30,0
90.00,165.27,0
147.00,158.61,0
113.00,152.42,0
77.00,146.40,0
74.00,139.80,0
111.00,132.94,0
79.00,126.44,0
116.00,120.50,0
84.00,115.27,0
227.00,111.70,0
190.00,111.32,0
236.00,114.30,0
203.00,119.99,0
221.00,127.46,0
193.00,135.84,0
218.00,144.52,0
249.00,153.62,0
155.00,162.64,0
165.00,170.10,0
205.00,175.84,0
298.00,181.61,0
186.00,188.13,0
147.00,193.62,0
127.00,196.38,0
243.00,197.32,0
252.00,198.66,0
227.00,201.16,0
203.00,203.92,0
260.00,206.65,0
99.00,208.69,0
122.00,208.14,0
84.00,204.38,0
138.00,198.30,0
54.00,190.57,0
67.00,180.97,0
90.00,169.99,0
82.00,158.76,0
83.00,147.77,0
110.00,137.49,0
101.00,128.47,0
127.00,121.00,0
173.00,115.70,0
119.00,112.73,0
132.00,111.23,0
186.00,111.11,0
195.00,113.14,0
114.00,116.64,0
172.00,120.35,0
215.00,124.76,0
115.00,129.91,0
78.00,133.84,0
100.00,135.49,0
106.00,135.44,0
162.00,134.85,0
180.00,134.98,0
107.00,135.81,0
111.00,136.12,0
134.00,135.69,0
174.00,135.44,0
123.00,135.77,0
91.00,135.76,0
108.00,134.68,0
94.00,132.73,0
84.00,130.00,0
97.00,126.60,0
109.00,123.02,0
81.00,119.52,0
83.00,115.82,0
80.00,111.89,0
103.00,108.06,0
100.00,104.77,0
76.00,101.94,0
127.00,99.55,0
144.00,98.36,0
213.00,99.40,0
239.00,103.58,0
212.00,110.79,0
130.00,119.14,0
154.00,126.72,0
178.00,133.39,0
246.00,140.28,0
162.00,147.75,0
185.00,154.78,0
258.00,161.54,0
158.00,168.43,0
185.00,174.36,0
148.00,178.70,0
156.00,181.36,0
185.00,182.72,0
246.00,184.09,0
158.00,185.95,0
196.00,187.48,0
134.00,188.10,0
74.00,186.78,0
74.00,182.57,0
85.00,175.85,0
79.00,167.56,0
86.00,158.43,0
113.00,149.28,0
71.00,140.55,0
66.00,131.92,0
70.00,123.25,0
122.00,115.29,0
158.00,109.35,0
155.00,106.11,0
135.00,105.13,0
197.00,106.07,0
142.00,108.81,0
93.00,112.04,0
123.00,114.52,0
105.00,116.28,0
134.00,117.64,0
81.00,118.54,0
116.00,118.71,0
93.00,118.27,0
116.00,117.48,0
94.00,116.46,0
129.00,115.42,0
113.00,114.65,0
115.00,114.16,0
139.00,114.00,0
111.00,114.27,0
150.00,114.92,0
60.00,115.51,0
50.00,114.78,0
53.00,112.18,0
73.00,108.40,0
84.00,104.28,0
72.00,100.29,0
55.00,96.28,0
68.00,92.12,0
83.00,88.18,0
88.00,84.93,0
70.00,82.38,0
119.00,80.57,0
126.00,80.12,0
182.00,81.71,0
248.00,86.30,0
156.00,93.82,0
142.00,102.22,0
174.00,110.31,0
181.00,118.35,0
140.00,126.13,0
206.00,133.39,0
170.00,140.46,0
286.00,148.05,0
184.00,156.58,0
195.00,164.91,0
174.00,171.98,0
152.00,177.41,0
262.00,181.78,0
211.00,186.42,0
157.00,190.74,0
231.00,193.96,0
121.00,196.12,0
82.00,195.86,0
112.00,192.48,0
117.00,187.06,0
107.00,180.50,0
88.00,173.02,0
89.00,164.70,0
94.00,155.91,0
110.00,147.28,0
104.00,139.30,0
113.00,132.20,0
126.00,126.20,0
154.00,121.76,0
160.00,119.27,0
185.00,118.87,0
180.00,120.51,0
193.00,123.86,0
182.00,128.48,0
149.00,133.58,0
144.00,138.19,0
151.00,141.98,0
147.00,145.08,0
111.00,147.22,0
140.00,148.19,0
219.00,149.07,0
182.00,151.09,0
147.00,153.67,0
240.00,156.47,0
127.00,159.65,0
147.00,162.08,0
137.00,163.19,0
136.00,163.24,0
86.00,161.98,0
73.00,158.80,0
71.00,153.65,0
90.00,147.18,0
98.00,140.27,0
86.00,133.46,0
95.00,126.88,0
56.00,120.43,0
75.00,113.88,0
72.00,107.44,0
88.00,101.53,0
204.00,97.43,0
221.00,97.02,0
171.00,100.26,0
211.00,105.79,0
216.00,113.22,0
201.00,122.07,0
133.00,130.97,0
228.00,139.16,0
127.00,146.69,0
168.00,152.94,0
185.00,157.99,0
178.00,162.52,0
127.00,166.12,0
105.00,167.80,0
141.00,167.45,0
154.00,166.13,0
170.00,164.75,0
226.00,164.21,0
174.00,164.94,0
88.00,165.52,0
92.00,164.15,0
104.00,160.80,0
123.00,156.43,0
148.00,152.06,0
107.00,148.06,0
74.00,143.72,0
107.00,138.67,0
113.00,133.56,0
82.00,128.69,0
122.00,124.03,0
203.00,120.76,0
173.00,120.07,0
217.00,121.90,0
151.00,125.52,0
212.00,130.15,0
231.00,136.01,0
163.00,142.91,0
177.00,149.48,0
162.00,155.15,0
197.00,160.10,0
171.00,164.57,0
219.00,168.80,0
145.00,172.66,0
170.00,175.50,0
168.00,177.26,0
283.00,179.25,0
188.00,182.45,0
213.00,186.05,0
182.00,189.21,0
243.00,192.14,0
202.00,195.20,0
127.00,197.46,0
128.00,197.49,0
124.00,195.18,0
154.00,191.36,0
125.00,186.72,0
129.00,181.44,0
152.00,175.85,0
174.00,170.81,0
127.00,166.51,0
132.00,162.37,0
150.00,158.33,0
267.00,155.80,0
194.00,155.97,0
193.00,157.96,0
169.00,160.44,0
121.00,162.41,0
230.00,163.83,0
146.00,165.51,0
185.00,167.15,0
217.00,168.93,0
164.00,171.17,0
142.00,172.89,0
172.00,173.60,0
208.00,174.13,0
164.00,175.00,0
214.00,176.07,0
192.00,177.54,0
143.00,178.91,0
214.00,179.76,0
142.00,180.36,0
196.00,180.58,0
154.00,180.48,0
146.00,179.80,0
111.00,177.94,0
115.00,174.64,0
92.00,169.93,0
112.00,164.15,0
94.00,157.72,0
123.00,151.12,0
89.00,144.66,0
127.00,138.50,0
114.00,133.01,0
159.00,128.69,0
204.00,126.41,0
208.00,126.94,0
212.00,130.00,0
199.00,134.88,0
232.00,141.10,0
130.00,147.70,0
201.00,153.57,0
198.00,158.98,0
216.00,164.56,0
127.00,169.62,0
238.00,173.71,0
126.00,177.10,0
216.00,179.66,0
99.00,181.09,0
198.00,181.26,0
142.00,180.67,0
220.00,180.04,0
152.00,179.68,0
229.00,179.69,0
118.00,179.77,0
165.00,179.11,0
130.00,177.46,0
137.00,174.98,0
93.00,171.42,0
76.00,166.35,0
83.00,159.71,0
93.00,152.14,0
98.00,144.38,0
106.00,136.98,0
116.00,130.35,0
127.00,124.84,0
104.00,120.45,0
263.00,118.06,0
130.00,118.64,0
138.00,120.61,0
121.00,122.47,0
88.00,123.71,0
127.00,124.06,0
91.00,123.81,0
224.00,123.93,0
210.00,126.13,0
161.00,130.29,0
263.00,135.71,0
162.00,142.35,0
142.00,148.72,0
103.00,153.19,0
218.00,156.21,0
128.00,158.85,0
68.00,160.08,0
95.00,158.70,0
80.00,155.21,0
87.00,150.24,0
76.00,144.23,0
128.00,137.93,0
82.00,132.01,0
149.00,126.79,0
107.00,122.65,0
150.00,119.70,0
98.00,117.67,0
127.00,116.14,0
86.00,114.77,0
140.00,113.55,0
191.00,113.49,0
176.00,115.44,0
203.00,119.28,0
247.00,125.13,0
152.00,132.44,0
138.00,139.31,0
162.00,144.80,0
234.00,149.95,0
119.00,155.08,0
113.00,158.70,0
212.00,160.81,0
142.00,162.70,0
161.00,164.20,0
132.00,164.84,0
127.00,164.42,0
187.00,163.42,0
187.00,162.93,0
144.00,163.00,0
170.00,162.99,0
105.00,162.47,0
98.00,160.65,0
101.00,157.29,0
90.00,152.75,0
83.00,147.28,0
92.00,141.13,0
78.00,134.65,0
80.00,127.99,0
69.00,121.24,0
62.00,114.42,0
106.00,107.92,0
92.00,102.44,0
149.00,98.52,0
199.00,97.14,0
223.00,99.27,0
149.00,104.16,0
186.00,110.27,0
180.00,117.08,0
205.00,124.58,0
191.00,132.61,0
133.00,140.29,0
150.00,146.49,0
169.00,151.34,0
200.00,155.71,0
241.00,160.58,0
126.00,165.66,0
222.00,169.94,0
142.00,173.47,0
196.00,176.21,0
125.00,177.92,0
194.00,178.64,0
179.00,179.00,0
94.00,178.69,0
103.00,176.44,0
106.00,172.25,0
74.00,166.57,0
115.00,159.80,0
105.00,152.77,0
112.00,145.99,0
107.00,139.61,0
171.00,134.26,0
103.00,130.31,0
142.00,127.29,0
170.00,125.40,0
145.00,124.99,0
220.00,126.17,0
204.00,129.44,0
229.00,134.71,0
122.00,140.74,0
277.00,146.86,0
152.00,153.50,0
196.00,159.90,0
231.00,165.88,0
174.00,171.81,0
138.00,176.57,0
240.00,180.05,0
166.00,183.23,0
185.00,185.84,0
141.00,187.28,0
163.00,187.40,0
214.00,186.91,0
136.00,186.38,0
156.00,185.12,0
110.00,182.66,0
86.00,178.57,0
119.00,172.88,0
92.00,166.29,0
119.00,159.28,0
76.00,152.03,0
77.00,144.38,0
87.00,136.41,0
87.00,128.64,0
73.00,121.25,0
100.00,114.37,0
124.00,108.65,0
192.00,105.18,0
192.00,104.85,0
162.00,107.23,0
187.00,111.31,0
171.00,116.56,0
119.00,122.05,0
171.00,126.98,0
120.00,131.33,0
189.00,135.25,0
127.00,138.92,0
117.00,141.75,0
246.00,144.23,0
189.00,147.93,0
131.00,152.09,0
204.00,155.63,0
127.00,158.68,0
144.00,160.73,0
135.00,161.52,0
154.00,161.48,0
174.00,161.20,0
66.00,160.37,0
64.00,157.50,0
46.00,152.10,0
64.00,144.79,0
73.00,136.49,0
124.00,128.43,0
75.00,121.33,0
138.00,115.33,0
189.00,111.41,0
162.00,110.37,0
138.00,111.30,0
175.00,113.39,0
144.00,116.45,0
125.00,119.79,0
139.00,122.78,0
136.00,125.44,0
102.00,127.56,0
127.00,128.80,0
166.00,129.81,0
172.00,131.51,0
91.00,133.42,0
162.00,134.72,0
138.00,135.83,0
171.00,137.22,0
105.00,138.57,0
118.00,139.13,0
171.00,139.19,0
103.00,139.29,0
173.00,139.30,0
67.00,138.97,0
73.00,137.26,0
72.00,133.78,0
71.00,129.07,0
70.00,123.57,0
57.00,117.53,0
69.00,111.14,0
105.00,105.09,0
83.00,100.00,0
67.00,95.62,0
80.00,91.59,0
150.00,88.61,0
105.00,87.42,0
102.00,87.47,0
129.00,88.23,0
101.00,89.70,0
105.00,91.46,0
152.00,93.60,0
112.00,96.44,0
112.00,99.44,0
108.00,102.11,0
206.00,105.17,0
92.00,109.08,0
84.00,112.36,0
106.00,114.16,0
192.00,115.79,0
197.00,118.90,0
84.00,122.88,0
120.00,125.84,0
71.00,127.18,0
83.00,126.84,0
51.00,124.78,0
46.00,121.00,0
92.00,116.06,0
68.00,110.93,0
62.00,105.76,0
99.00,100.75,0
92.00,96.51,0
100.00,93.27,0
102.00,90.98,0
90.00,89.49,0
142.00,88.89,0
107.00,89.48,0
94.00,90.69,0
101.00,91.88,0
106.00,93.08,0
163.00,94.84,0
141.00,97.78,0
135.00,101.58,0
91.00,105.25,0
118.00,108.16,0
90.00,110.24,0
107.00,111.52,0
91.00,112.08,0
87.00,111.90,0
65.00,110.80,0
110.00,109.00,0
67.00,106.94,0
75.00,104.47,0
111.00,101.85,0
57.00,99.42,0
52.00,96.56,0
80.00,93.20,0
60.00,89.81,0
65.00,86.46,0
62.00,83.13,0
84.00,80.11,0
63.00,77.59,0
71.00,75.43,0
59.00,73.48,0
94.00,71.90,0
86.00,71.09,0
99.00,71.14,0
79.00,71.83,0
76.00,72.73,0
128.00,73.97,0
93.00,75.99,0
134.00,78.71,0
106.00,82.05,0
61.00,85.23,0
80.00,87.38,0
87.00,88.66,0
63.00,89.33,0
88.00,89.37,0
64.00,88.96,0
63.00,88.00,0
100.00,86.76,0
67.00,85.67,0
73.00,84.55,0
49.00,83.08,0
48.00,81.02,0
60.00,78.48,0
51.00,75.76,0
77.00,73.17,0
50.00,70.89,0
70.00,68.86,0
48.00,67.00,0
90.00,65.49,0
49.00,64.46,0
84.00,63.80,0
75.00,63.60,0
103.00,64.13,0
78.00,65.37,0
83.00,66.98,0
47.00,68.40,0
84.00,69.37,0
67.00,70.15,0
78.00,70.87,0
55.00,71.37,0
84.00,71.64,0
83.00,72.01,0
76.00,72.60,0
74.00,73.20,0
85.00,73.80,0
64.00,74.35,0
58.00,74.56,0
42.00,74.08,0
53.00,72.89,0
49.00,71.20,0
57.00,69.28,0
40.00,67.21,0
52.00,64.98,0
72.00,62.91,0
52.00,61.32,0
72.00,60.12,0
50.00,59.26,0
45.00,58.45,0
55.00,57.50,0
55.00,56.62,0
71.00,56.03,0
93.00,56.13,0
66.00,57.01,0
96.00,58.45,0
84.00,60.44,0
98.00,62.95,0
76.00,65.71,0
63.00,68.23,0
47.00,69.95,0
78.00,70.89,0
54.00,71.38,0
59.00,71.42,0
49.00,70.91,0
85.00,70.19,0
59.00,69.62,0
88.00,69.28,0
79.00,69.33,0
75.00,69.73,0
49.00,70.03,0
81.00,70.04,0
66.00,70.02,0
83.00,70.14,0
43.00,70.18,0
44.00,69.66,0
43.00,68.39,0
43.00,66.60,0
52.00,64.53,0
91.00,62.79,0
70.00,61.90,0
56.00,61.55,0
47.00,61.14,0
71.00,60.64,0
101.00,60.65,0
52.00,61.34,0
61.00,62.03,0
54.00,62.39,0
99.00,62.81,0
63.00,63.66,0
95.00,64.85,0
81.00,66.36,0
67.00,67.99,0
55.00,69.22,0
70.00,69.91,0
46.00,70.11,0
100.00,70.12,0
71.00,70.42,0
74.00,70.93,0
58.00,71.27,0
36.00,71.03,0
83.00,70.27,0
103.00,69.89,0
43.00,70.04,0
48.00,69.79,0
45.00,68.82,0
53.00,67.38,0
43.00,65.66,0
60.00,63.83,0
54.00,62.13,0
40.00,60.49,0
83.00,59.04,0
54.00,58.14,0
77.00,57.75,0
59.00,57.75,0
53.00,57.89,0
41.00,57.78,0
74.00,57.52,0
37.00,57.28,0
92.00,57.19,0
120.00,58.05,0
103.00,60.37,0
53.00,63.26,0
72.00,65.69,0
45.00,67.37,0
84.00,68.44,0
76.00,69.39,0
134.00,70.87,0
85.00,73.20,0
56.00,75.53,0
45.00,76.81,0
74.00,77.07,0
57.00,76.78,0
52.00,76.01,0
72.00,74.84,0
39.00,73.42,0
46.00,71.53,0
40.00,69.15,0
35.00,66.39,0
43.00,63.35,0
64.00,60.48,0
39.00,58.04,0
68.00,56.00,0
58.00,54.52,0
68.00,53.68,0
50.00,53.28,0
74.00,53.21,0
42.00,53.39,0
70.00,53.64,0
81.00,54.23,0
54.00,55.25,0
96.00,56.55,0
74.00,58.31,0
89.00,60.47,0
91.00,62.95,0
71.00,65.57,0
84.00,68.02,0
40.00,69.93,0
56.00,70.90,0
36.00,70.84,0
46.00,69.90,0
56.00,68.40,0
80.00,66.97,0
62.00,65.96,0
75.00,65.32,0
73.00,65.03,0
57.00,64.96,0
56.00,64.77,0
38.00,64.19,0
37.00,63.03,0
42.00,61.34,0
42.00,59.38,0
46.00,57.35,0
60.00,55.51,0
45.00,54.02,0
68.00,52.91,0
49.00,52.21,0
64.00,51.86,0
74.00,51.95,0
38.00,52.36,0
69.00,52.76,0
87.00,53.49,0
78.00,54.92,0
94.00,56.98,0
60.00,59.36,0
96.00,61.77,0
45.00,64.01,0
83.00,65.82,0
38.00,67.08,0
92.00,67.89,0
49.00,68.51,0
78.00,68.92,0
48.00,69.05,0
48.00,68.70,0
39.00,67.68,0
99.00,66.53,0
64.00,65.94,0
45.00,65.56,0
56.00,64.84,0
43.00,63.80,0
62.00,62.59,0
64.00,61.51,0
64.00,60.75,0
40.00,60.09,0
66.00,59.33,0
57.00,58.69,0
52.00,58.18,0
47.00,57.59,0
82.00,57.12,0
43.00,56.98,0
96.00,57.17,0
55.00,57.82,0
101.00,58.94,0
56.00,60.43,0
83.00,62.01,0
62.00,63.51,0
73.00,64.87,0
67.00,66.02,0
65.00,66.97,0
42.00,67.45,0
100.00,67.64,0
57.00,68.02,0
93.00,68.60,0
63.00,69.29,0
90.00,70.09,0
62.00,70.89,0
91.00,71.68,0
49.00,72.33,0
52.00,72.43,0
48.00,71.77,0
58.00,70.61,0
40.00,69.07,0
64.00,67.29,0
37.00,65.41,0
39.00,63.28,0
50.00,60.93,0
49.00,58.68,0
56.00,56.72,0
43.00,55.05,0
67.00,53.68,0
54.00,52.77,0
61.00,52.30,0
48.00,52.05,0
78.00,52.09,0
84.00,52.79,0
62.00,54.12,0
72.00,55.65,0
81.00,57.36,0
83.00,59.38,0
65.00,61.52,0
108.00,63.77,0
79.00,66.35,0
50.00,68.73,0
58.00,70.23,0
75.00,71.03,0
65.00,71.55,0
37.00,71.58,0
65.00,70.92,0
42.00,69.80,0
69.00,68.44,0
54.00,67.08,0
45.00,65.66,0
59.00,64.09,0
44.00,62.49,0
60.00,60.92,0
42.00,59.41,0
55.00,57.95,0
50.00,56.59,0
89.00,55.71,0
41.00,55.42,0
64.00,55.31,0
62.00,55.31,0
65.00,55.57,0
58.00,56.00,0
94.00,56.74,0
107.00,58.36,0
100.00,61.02,0
87.00,64.27,0
55.00,67.34,0
48.00,69.46,0
82.00,70.71,0
58.00,71.55,0
76.00,72.09,0
42.00,72.20,0
91.00,71.97,0
58.00,71.75,0
65.00,71.46,0
51.00,70.85,0
75.00,70.05,0
44.00,69.15,0
45.00,67.89,0
52.00,66.23,0
45.00,64.39,0
47.00,62.42,0
46.00,60.38,0
51.00,58.41,0
42.00,56.56,0
48.00,54.79,0
58.00,53.26,0
86.00,52.39,0
50.00,52.32,0
70.00,52.65,0
53.00,53.17,0
79.00,53.92,0
61.00,54.95,0
83.00,56.26,0
56.00,57.74,0
89.00,59.30,0
59.00,60.95,0
94.00,62.67,0
53.00,64.38,0
53.00,65.65,0
39.00,66.08,0
70.00,65.87,0
41.00,65.36,0
66.00,64.61,0
62.00,63.85,0
65.00,63.26,0
53.00,62.75,0
76.00,62.33,0
59.00,62.13,0
51.00,61.96,0
41.00,61.44,0
46.00,60.49,0
52.00,59.31,0
42.00,58.03,0
54.00,56.71,0
45.00,55.45,0
61.00,54.35,0
55.00,53.55,0
51.00,53.01,0
40.00,52.47,0
77.00,52.05,0
68.00,52.17,0
74.00,52.91,0
75.00,54.13,0
73.00,55.73,0
99.00,57.74,0
97.00,60.40,0
78.00,63.49,0
82.00,66.51,0
69.00,69.18,0
88.00,71.46,0
75.00,73.48,0
57.00,75.02,0
48.00,75.67,0
42.00,75.26,0
53.00,74.00,0
40.00,72.14,0
46.00,69.81,0
42.00,67.18,0
41.00,64.38,0
42.00,61.49,0
54.00,58.75,0
45.00,56.33,0
36.00,54.12,0
62.00,52.13,0
65.00,50.75,0
38.00,49.92,0
71.00,49.40,0
56.00,49.32,0
73.00,49.75,0
58.00,50.58,0
79.00,51.75,0
42.00,53.07,0
99.00,54.48,0
45.00,56.11,0
91.00,57.80,0
49.00,59.47,0
50.00,60.74,0
51.00,61.34,0
91.00,61.79,0
47.00,62.39,0
78.00,62.97,0
39.00,63.32,0
71.00,63.37,0
69.00,63.38,0
54.00,63.47,0
52.00,63.33,0
42.00,62.79,0
38.00,61.73,0
41.00,60.20,0
59.00,58.53,0
44.00,57.00,0
61.00,55.68,0
52.00,54.63,0
47.00,53.78,0
64.00,53.09,0
60.00,52.76,0
89.00,53.01,0
45.00,53.80,0
62.00,54.61,0
67.00,55.38,0
47.00,56.13,0
98.00,57.00,0
58.00,58.25,0
67.00,59.61,0
73.00,60.86,0
52.00,61.98,0
64.00,62.78,0
82.00,63.48,0
101.00,64.63,0
79.00,66.36,0
44.00,67.99,0
59.00,68.84,0
45.00,68.93,0
76.00,68.57,0
42.00,68.01,0
76.00,67.29,0
40.00,66.45,0
61.00,65.41,0
42.00,64.15,0
45.00,62.64,0
51.00,60.93,0
46.00,59.22,0
61.00,57.64,0
44.00,56.29,0
68.00,55.20,0
57.00,54.50,0
58.00,54.16,0
101.00,54.36,0
41.00,55.21,0
73.00,56.14,0
61.00,57.04,0
74.00,58.07,0
121.00,59.65,0
42.00,61.85,0
37.00,63.47,0
97.00,64.37,0
81.00,65.50,0
92.00,67.11,0
127.00,69.34,0
87.00,72.33,0
73.00,75.31,0
71.00,77.59,0
75.00,79.16,0
74.00,80.17,0
60.00,80.62,0
88.00,80.64,0
51.00,80.35,0
40.00,79.38,0
53.00,77.55,0
37.00,75.10,0
42.00,72.15,0
67.00,69.07,0
50.00,66.32,0
46.00,63.79,0
40.00,61.27,0
105.00,59.23,0
42.00,58.15,0
68.00,57.53,0
89.00,57.36,0
88.00,58.10,0
106.00,59.81,0
107.00,62.50,0
70.00,65.69,0
114.00,68.94,0
62.00,72.11,0
92.00,74.86,0
60.00,77.00,0
83.00,78.52,0
69.00,79.51,0
95.00,80.25,0
70.00,80.88,0
92.00,81.38,0
41.00,81.51,0
93.00,81.12,0
42.00,80.36,0
59.00,79.08,0
38.00,77.12,0
67.00,74.75,0
44.00,72.26,0
42.00,69.61,0
55.00,66.80,0
48.00,64.12,0
60.00,61.70,0
52.00,59.64,0
76.00,58.09,0
44.00,57.04,0
43.00,56.06,0
91.00,55.30,0
84.00,55.43,0
78.00,56.49,0
64.00,57.95,0
41.00,59.18,0
64.00,59.89,0
85.00,60.56,0
70.00,61.57,0
73.00,62.77,0
68.00,63.95,0
58.00,64.94,0
59.00,65.56,0
51.00,65.73,0
87.00,65.74,0
71.00,66.02,0
54.00,66.39,0
39.00,66.28,0
98.00,65.90,0
40.00,65.70,0
98.00,65.66,0
43.00,65.77,0
71.00,65.79,0
50.00,65.56,0
52.00,65.06,0
49.00,64.21,0
46.00,63.06,0
53.00,61.70,0
40.00,60.21,0
64.00,58.72,0
63.00,57.55,0
45.00,56.70,0
41.00,55.79,0
79.00,54.95,0
54.00,54.59,0
61.00,54.56,0
83.00,54.88,0
65.00,55.71,0
46.00,56.65,0
78.00,57.43,0
50.00,58.21,0
67.00,58.90,0
48.00,59.40,0
81.00,59.83,0
55.00,60.36,0
67.00,60.91,0
78.00,61.52,0
46.00,62.17,0
60.00,62.51,0
48.00,62.47,0
54.00,62.11,0
89.00,61.81,0
43.00,61.81,0
41.00,61.55,0
38.00,60.67,0
40.00,59.29,0
43.00,57.61,0
52.00,55.90,0
44.00,54.33,0
40.00,52.83,0
46.00,51.35,0
50.00,50.03,0
66.00,49.13,0
41.00,48.67,0
53.00,48.37,0
53.00,48.19,0
94.00,48.56,0
44.00,49.59,0
79.00,50.90,0
49.00,52.28,0
90.00,53.81,0
40.00,55.42,0
91.00,56.97,0
72.00,58.69,0
62.00,60.51,0
41.00,61.85,0
44.00,62.38,0
50.00,62.20,0
53.00,61.63,0
41.00,60.79,0
54.00,59.70,0
54.00,58.58,0
38.00,57.44,0
37.00,56.06,0
44.00,54.44,0
38.00,52.76,0
46.00,51.10,0
49.00,49.64,0
40.00,48.40,0
39.00,47.25,0
44.00,46.16,0
48.00,45.24,0
49.00,44.62,0
68.00,44.43,0
55.00,44.81,0
39.00,45.41,0
67.00,46.02,0
57.00,46.86,0
51.00,47.86,0
55.00,48.81,0
63.00,49.77,0
54.00,50.80,0
52.00,51.74,0
64.00,52.58,0
36.00,53.27,0
58.00,53.63,0
47.00,53.78,0
66.00,53.91,0
42.00,54.06,0
55.00,54.08,0
43.00,53.91,0
41.00,53.51,0
36.00,52.76,0
62.00,51.89,0
106.00,51.72,0
102.00,53.00,0
88.00,55.52,0
104.00,58.75,0
143.00,62.90,0
186.00,68.73,0
276.00,77.41,0
67.00,88.10,0
84.00,97.39,0
40.00,103.51,0
87.00,106.81,0
114.00,108.52,0
166.00,110.20,0
113.00,112.45,0
182.00,115.18,0
42.00,117.74,0
86.00,118.71,0
48.00,117.69,0
69.00,115.11,0
87.00,111.58,0
44.00,107.59,0
113.00,103.38,0
53.00,99.43,0
189.00,96.51,0
52.00,95.09,0
283.00,95.63,0
66.00,98.54,0
132.00,102.01,0
80.00,104.66,0
81.00,106.29,0
64.00,106.55,0
77.00,105.58,0
47.00,103.55,0
41.00,100.31,0
52.00,96.03,0
68.00,91.36,0
44.00,86.71,0
47.00,81.98,0
46.00,77.20,0
40.00,72.49,0
37.00,67.85,0
72.00,63.63,0
60.00,60.30,0
61.00,57.88,0
68.00,56.19,0
60.00,55.17,0
84.00,54.83,0
101.00,55.47,0
77.00,57.12,0
65.00,59.14,0
54.00,60.87,0
91.00,62.36,0
44.00,63.74,0
68.00,64.73,0
43.00,65.17,0
44.00,64.99,0
44.00,64.15,0
40.00,62.81,0
38.00,61.05,0
38.00,58.97,0
39.00,56.69,0
44.00,54.42,0
41.00,52.28,0
36.00,50.26,0
47.00,48.39,0
36.00,46.74,0
40.00,45.25,0
39.00,43.91,0
47.00,42.80,0
37.00,41.94,0
34.00,41.19,0
43.00,40.48,0
41.00,39.93,0
40.00,39.56,0
39.00,39.29,0
39.00,39.09,0
48.00,39.00,0
36.00,39.06,0
58.00,39.29,0
38.00,39.73,0
42.00,40.20,0
35.00,40.54,0
61.00,40.88,0
35.00,41.37,0
49.00,41.87,0
52.00,42.39,0
44.00,43.01,0
36.00,43.52,0
48.00,43.82,0
36.00,43.99,0
41.00,44.00,0
44.00,43.88,0
43.00,43.77,0
36.00,43.61,0
38.00,43.31,0
43.00,42.93,0
34.00,42.53,0
37.00,42.04,0
36.00,41.47,0
36.00,40.87,0
36.00,40.25,0
46.00,39.72,0
37.00,39.37,0
38.00,39.11,0
38.00,38.86,0
48.00,38.73,0
36.00,38.76,0
43.00,38.84,0
40.00,38.96,0
37.00,39.09,0
37.00,39.14,0
40.00,39.13,0
38.00,39.11,0
45.00,39.14,0
38.00,39.23,0
50.00,39.43,0
42.00,39.75,0
40.00,40.13,0
47.00,40.48,0
37.00,40.83,0
38.00,41.05,0
45.00,41.17,0
44.00,41.33,0
36.00,41.47,0
54.00,41.62,0
35.00,41.83,0
48.00,42.03,0
39.00,42.20,0
60.00,42.47,0
56.00,43.05,0
38.00,43.80,0
40.00,44.35,0
46.00,44.65,0
44.00,44.86,0
46.00,45.02,0
36.00,45.08,0
39.00,44.93,0
40.00,44.61,0
37.00,44.18,0
39.00,43.65,0
39.00,43.08,0
34.00,42.48,0
44.00,41.86,0
40.00,41.34,0
57.00,41.08,0
35.00,41.08,0
42.00,41.13,0
41.00,41.12,0
60.00,41.28,0
60.00,41.86,0
57.00,42.88,0
62.00,44.18,0
69.00,45.77,0
54.00,47.57,0
58.00,49.30,0
54.00,50.84,0
37.00,52.01,0
44.00,52.60,0
49.00,52.75,0
49.00,52.69,0
34.00,52.41,0
45.00,51.80,0
44.00,51.01,0
44.00,50.18,0
50.00,49.40,0
61.00,48.87,0
38.00,48.59,0
66.00,48.44,0
38.00,48.45,0
41.00,48.37,0
44.00,48.06,0
46.00,47.68,0
36.00,47.24,0
53.00,46.76,0
35.00,46.31,0
42.00,45.80,0
35.00,45.17,0
41.00,44.46,0
35.00,43.71,0
46.00,42.99,0
34.00,42.36,0
41.00,41.75,0
44.00,41.24,0
39.00,40.87,0
40.00,40.58,0
42.00,40.35,0
33.00,40.14,0
33.00,39.81,0
47.00,39.46,0
36.00,39.23,0
40.00,39.07,0
40.00,38.95,0
43.00,38.92,0
38.00,38.96,0
49.00,39.10,0
38.00,39.35,0
43.00,39.62,0
40.00,39.88,0
43.00,40.12,0
36.00,40.32,0
44.00,40.46,0
40.00,40.58,0
41.00,40.69,0
39.00,40.76,0
41.00,40.79,0
38.00,40.78,0
47.00,40.78,0
40.00,40.85,0
40.00,40.93,0
39.00,40.96,0
39.00,40.92,0
36.00,40.81,0
47.00,40.67,0
39.00,40.63,0
39.00,40.60,0
41.00,40.55,0
39.00,40.49,0
40.00,40.42,0
43.00,40.37,0
40.00,40.37,0
37.00,40.35,0
39.00,40.27,0
37.00,40.14,0
44.00,40.01,0
40.00,39.95,0
51.00,40.03,0
42.00,40.29,0
