379.00,344.43,1
507.00,352.89,1
562.00,363.84,1
341.00,376.50,1
548.00,388.49,1
538.00,401.10,1
559.00,415.47,1
402.00,429.68,1
456.00,441.30,1
466.00,450.26,1
605.00,458.66,1
661.00,469.17,1
231.00,479.49,1
853.00,487.81,1
312.00,496.60,1
502.00,503.21,1
424.00,505.92,1
136.00,503.52,1
772.00,497.15,1
80.00,490.41,1
586.00,481.63,1
275.00,471.67,1
367.00,460.91,1
382.00,448.99,1
314.00,437.03,1
774.00,428.26,1
1021.00,431.28,1
984.00,450.86,1
68.00,476.07,1
633.00,493.93,1
232.00,504.09,1
159.00,505.54,1
216.00,496.22,1
540.00,482.08,1
470.00,469.99,1
675.00,463.06,1
461.00,461.36,1
356.00,460.96,1
176.00,456.60,1
598.00,448.96,1
98.00,440.46,1
565.00,430.69,1
280.00,421.48,1
70.00,410.42,1
505.00,396.09,1
392.00,384.26,1
558.00,377.83,1
98.00,373.72,1
335.00,367.26,1
69.00,357.16,1
54.00,341.93,1
47.00,320.84,1
127.00,296.52,1
118.00,271.63,1
283.00,249.07,1
136.00,230.47,1
440.00,216.97,1
269.00,210.17,1
561.00,210.74,1
508.00,219.82,1
600.00,237.59,1
590.00,262.18,1
558.00,291.47,1
363.00,321.18,1
772.00,350.15,1
397.00,379.66,1
559.00,407.11,1
401.00,430.34,1
462.00,448.84,1
344.00,461.83,1
656.00,471.35,1
218.00,478.49,1
378.00,480.22,1
352.00,476.54,1
133.00,468.01,1
289.00,453.48,1
179.00,434.73,1
243.00,413.47,1
66.00,389.70,1
71.00,362.45,1
245.00,333.47,1
185.00,306.59,1
230.00,283.01,1
197.00,262.70,1
302.00,246.22,1
388.00,235.37,1
569.00,232.95,1
364.00,239.03,1
439.00,250.08,1
462.00,264.33,1
446.00,281.43,1
460.00,300.09,1
421.00,319.11,1
456.00,337.52,1
411.00,354.77,1
528.00,371.08,1
458.00,387.11,1
505.00,402.59,1
388.00,416.38,1
436.00,427.29,1
336.00,434.66,1
370.00,438.10,1
351.00,438.02,1
295.00,434.81,1
270.00,428.04,1
183.00,417.18,1
208.00,402.12,1
207.00,384.00,1
108.00,363.56,1
96.00,340.31,1
40.00,314.16,1
48.00,285.76,1
93.00,256.56,1
191.00,229.38,1
210.00,206.81,1
367.00,190.90,1
394.00,183.62,1
369.00,184.71,1
514.00,193.11,1
356.00,207.66,1
540.00,226.40,1
459.00,248.86,1
573.00,274.56,1
541.00,302.77,1
622.00,332.98,1
434.00,363.32,1
488.00,390.70,1
425.00,413.77,1
425.00,432.20,1
384.00,445.64,1
503.00,455.15,1
385.00,462.01,1
360.00,465.45,1
397.00,465.08,1
301.00,461.45,1
313.00,454.26,1
200.00,443.11,1
233.00,427.84,1
154.00,408.87,1
276.00,387.72,1
60.00,365.16,1
71.00,339.84,1
58.00,311.55,1
175.00,282.68,1
180.00,256.25,1
164.00,233.48,1
353.00,215.58,1
334.00,204.85,1
374.00,201.41,1
448.00,204.83,1
440.00,214.79,1
496.00,230.29,1
478.00,250.30,1
544.00,273.69,1
318.00,298.06,1
613.00,321.53,1
388.00,344.70,1
670.00,367.96,1
492.00,391.79,1
443.00,414.28,1
450.00,432.75,1
463.00,447.41,1
363.00,458.14,1
238.00,462.94,1
252.00,460.19,1
266.00,451.26,1
259.00,438.15,1
72.00,420.78,1
250.00,399.10,1
150.00,375.41,1
85.00,350.22,1
58.00,322.62,1
55.00,293.10,1
122.00,263.35,1
174.00,235.92,1
65.00,211.70,1
425.00,192.31,1
748.00,184.89,1
624.00,194.15,1
490.00,215.42,1
456.00,241.54,1
464.00,268.88,1
566.00,296.90,1
712.00,327.41,1
571.00,361.03,1
598.00,394.93,1
542.00,426.73,1
530.00,455.06,1
281.00,477.10,1
155.00,488.32,1
437.00,489.17,1
296.00,484.54,1
337.00,476.31,1
261.00,464.50,1
755.00,453.50,1
300.00,447.26,1
132.00,440.03,1
181.00,426.19,1
195.00,407.24,1
205.00,385.77,1
67.00,362.26,1
42.00,335.58,1
123.00,306.42,1
75.00,277.14,1
184.00,249.52,1
268.00,226.15,1
261.00,209.01,1
183.00,197.08,1
332.00,189.41,1
405.00,187.71,1
379.00,192.81,1
449.00,203.61,1
288.00,218.05,1
486.00,234.30,1
532.00,253.75,1
732.00,278.98,1
536.00,309.86,1
577.00,342.75,1
455.00,374.14,1
522.00,402.22,1
356.00,425.60,1
463.00,443.32,1
431.00,456.29,1
334.00,464.73,1
301.00,467.38,1
259.00,463.87,1
288.00,455.01,1
62.00,440.70,1
220.00,420.52,1
110.00,396.31,1
68.00,368.93,1
265.00,340.17,1
70.00,312.56,1
91.00,285.32,1
160.00,258.60,1
235.00,235.08,1
264.00,216.82,1
338.00,204.92,1
368.00,199.97,1
137.00,199.63,1
451.00,201.82,1
454.00,209.17,1
531.00,223.42,1
479.00,243.45,1
552.00,267.44,1
558.00,294.48,1
591.00,323.92,1
467.00,353.83,1
507.00,381.67,1
445.00,406.12,1
472.00,426.71,1
338.00,442.54,1
465.00,453.24,1
283.00,459.16,1
280.00,459.32,1
317.00,453.90,1
232.00,444.19,1
201.00,430.25,1
131.00,411.74,1
156.00,389.15,1
65.00,363.33,1
49.00,334.43,1
52.00,303.21,1
148.00,271.91,1
194.00,243.61,1
297.00,220.95,1
334.00,205.67,1
371.00,198.29,1
370.00,198.11,1
461.00,204.45,1
489.00,217.17,1
578.00,236.38,1
482.00,260.79,1
367.00,286.47,1
388.00,309.78,1
594.00,331.61,1
615.00,355.39,1
661.00,382.34,1
489.00,410.24,1
420.00,434.90,1
406.00,453.53,1
496.00,466.99,1
412.00,476.75,1
145.00,480.45,1
393.00,476.38,1
120.00,466.24,1
45.00,448.55,1
95.00,422.74,1
183.00,392.59,1
124.00,361.42,1
60.00,329.88,1
180.00,298.52,1
74.00,268.92,1
166.00,241.61,1
234.00,218.16,1
328.00,201.10,1
367.00,191.85,1
431.00,190.79,1
524.00,198.22,1
590.00,214.42,1
734.00,239.95,1
565.00,273.12,1
732.00,310.70,1
607.00,350.79,1
605.00,390.77,1
501.00,427.38,1
693.00,460.07,1
464.00,489.15,1
604.00,513.47,1
444.00,532.46,1
630.00,546.80,1
367.00,556.73,1
234.00,559.04,1
396.00,552.43,1
461.00,541.47,1
132.00,527.22,1
120.00,505.88,1
129.00,476.99,1
33.00,442.74,1
112.00,404.49,1
47.00,364.58,1
66.00,324.48,1
105.00,285.61,1
93.00,249.65,1
343.00,219.31,1
304.00,197.97,1
569.00,187.94,1
510.00,190.38,1
627.00,204.35,1
649.00,228.38,1
578.00,259.83,1
567.00,294.80,1
546.00,330.42,1
532.00,364.69,1
617.00,397.11,1
531.00,427.64,1
479.00,454.55,1
434.00,475.85,1
372.00,490.45,1
566.00,499.72,1
292.00,505.11,1
171.00,503.37,1
214.00,492.37,1
144.00,473.85,1
128.00,449.10,1
207.00,420.38,1
50.00,389.49,1
134.00,356.72,1
205.00,324.36,1
81.00,294.20,1
192.00,266.13,1
230.00,241.75,1
379.00,223.77,1
452.00,214.75,1
466.00,215.29,1
566.00,224.74,1
513.00,241.93,1
360.00,263.18,1
571.00,285.56,1
437.00,309.14,1
635.00,334.02,1
543.00,360.51,1
646.00,388.31,1
457.00,415.63,1
466.00,439.40,1
143.00,455.58,1
253.00,460.94,1
262.00,457.30,1
165.00,447.15,1
70.00,429.93,1
62.00,405.57,1
74.00,375.70,1
94.00,343.12,1
84.00,309.85,1
80.00,277.11,1
192.00,246.65,1
258.00,221.33,1
251.00,202.72,1
311.00,190.79,1
343.00,185.52,1
478.00,187.59,1
489.00,197.86,1
374.00,214.31,1
572.00,234.82,1
634.00,260.53,1
660.00,292.14,1
571.00,327.53,1
606.00,363.54,1
450.00,397.34,1
523.00,426.66,1
444.00,450.86,1
392.00,469.22,1
418.00,481.23,1
336.00,487.32,1
329.00,487.56,1
241.00,481.80,1
291.00,470.55,1
118.00,454.14,1
82.00,431.58,1
86.00,403.11,1
63.00,370.71,1
214.00,337.24,1
125.00,305.73,1
304.00,278.02,1
314.00,256.47,1
305.00,241.86,1
455.00,234.18,1
267.00,232.95,1
456.00,236.25,1
456.00,244.49,1
626.00,259.18,1
513.00,280.15,1
680.00,306.14,1
440.00,334.90,1
524.00,362.91,1
356.00,387.44,1
486.00,407.50,1
375.00,423.33,1
377.00,434.70,1
374.00,441.36,1
306.00,443.60,1
304.00,441.26,1
470.00,436.35,1
157.00,429.74,1
44.00,417.31,1
174.00,397.47,1
78.00,373.05,1
107.00,345.80,1
171.00,317.52,1
132.00,290.33,1
196.00,265.29,1
158.00,243.14,1
382.00,225.67,1
270.00,214.82,1
295.00,209.54,1
299.00,208.21,1
427.00,211.25,1
438.00,219.68,1
535.00,234.08,1
624.00,254.89,1
599.00,282.16,1
610.00,313.65,1
523.00,346.53,1
475.00,377.72,1
450.00,404.82,1
322.00,426.07,1
364.00,440.13,1
467.00,448.78,1
238.00,453.21,1
101.00,450.08,1
320.00,439.07,1
61.00,422.75,1
155.00,401.21,1
54.00,375.07,1
121.00,345.98,1
105.00,315.76,1
47.00,285.48,1
59.00,255.20,1
78.00,225.78,1
56.00,198.17,1
421.00,175.69,1
458.00,164.02,1
279.00,163.25,1
420.00,169.15,1
402.00,180.63,1
381.00,196.63,1
387.00,215.09,1
469.00,235.45,1
458.00,257.87,1
329.00,280.61,1
544.00,302.31,1
575.00,325.32,1
534.00,350.52,1
366.00,374.70,1
467.00,395.00,1
354.00,411.01,1
318.00,421.95,1
306.00,427.00,1
266.00,426.61,1
218.00,420.90,1
160.00,409.72,1
113.00,393.12,1
53.00,371.05,1
87.00,344.59,1
124.00,316.01,1
42.00,286.99,1
120.00,258.10,1
140.00,231.10,1
188.00,207.80,1
230.00,189.42,1
262.00,176.71,1
356.00,170.42,1
408.00,171.43,1
318.00,178.80,1
309.00,189.65,1
457.00,203.17,1
498.00,220.95,1
476.00,243.09,1
425.00,267.39,1
450.00,291.73,1
438.00,315.17,1
474.00,337.43,1
429.00,358.18,1
467.00,376.99,1
294.00,392.50,1
393.00,403.29,1
261.00,409.17,1
486.00,411.69,1
369.00,413.24,1
158.00,412.17,1
283.00,405.76,1
117.00,394.47,1
174.00,378.50,1
118.00,358.56,1
130.00,335.99,1
132.00,311.95,1
140.00,287.77,1
157.00,264.59,1
73.00,242.59,1
152.00,221.60,1
257.00,203.56,1
340.00,191.47,1
437.00,187.30,1
248.00,190.08,1
397.00,196.91,1
396.00,207.48,1
442.00,222.13,1
397.00,239.74,1
491.00,259.45,1
462.00,281.03,1
554.00,304.47,1
493.00,329.30,1
573.00,354.72,1
432.00,379.41,1
442.00,401.16,1
376.00,418.40,1
444.00,431.19,1
335.00,439.85,1
319.00,443.72,1
226.00,441.86,1
158.00,433.40,1
184.00,418.60,1
148.00,399.08,1
53.00,375.30,1
130.00,347.96,1
87.00,318.98,1
183.00,290.38,1
219.00,264.59,1
226.00,243.25,1
134.00,225.64,1
346.00,211.76,1
357.00,203.97,1
442.00,203.82,1
326.00,209.89,1
507.00,220.76,1
503.00,236.91,1
477.00,257.83,1
517.00,281.49,1
500.00,306.81,1
645.00,333.80,1
450.00,361.79,1
484.00,387.88,1
355.00,409.54,1
282.00,424.66,1
380.00,432.84,1
312.00,435.94,1
134.00,433.31,1
270.00,423.96,1
232.00,410.37,1
149.00,393.77,1
261.00,374.68,1
236.00,355.29,1
88.00,335.61,1
64.00,313.51,1
183.00,289.60,1
139.00,266.56,1
169.00,245.44,1
131.00,226.31,1
40.00,208.18,1
243.00,191.27,1
361.00,179.44,1
330.00,175.22,1
446.00,178.30,1
497.00,188.94,1
531.00,207.09,1
383.00,230.11,1
353.00,253.64,1
447.00,275.83,1
498.00,298.02,1
504.00,321.11,1
602.00,345.48,1
491.00,370.76,1
548.00,395.31,1
418.00,417.46,1
444.00,435.61,1
450.00,449.52,1
311.00,458.93,1
398.00,463.05,1
408.00,463.36,1
383.00,461.48,1
178.00,455.99,1
126.00,443.94,1
84.00,424.36,1
124.00,398.96,1
174.00,370.70,1
91.00,341.63,1
230.00,313.04,1
45.00,285.90,1
117.00,259.44,1
244.00,235.05,1
323.00,216.42,1
298.00,204.90,1
466.00,200.83,1
371.00,204.38,1
325.00,212.95,1
437.00,224.44,1
446.00,239.38,1
494.00,257.90,1
481.00,279.31,1
730.00,304.38,1
535.00,333.82,1
545.00,364.57,1
490.00,393.38,1
579.00,419.65,1
486.00,443.37,1
471.00,463.46,1
450.00,478.88,1
325.00,488.77,1
358.00,492.22,1
441.00,490.84,1
302.00,486.32,1
160.00,476.80,1
216.00,460.78,1
74.00,438.92,1
174.00,412.14,1
55.00,382.07,1
88.00,349.65,1
106.00,316.25,1
133.00,284.01,1
237.00,255.15,1
132.00,230.90,1
380.00,212.11,1
285.00,200.56,1
411.00,196.44,1
457.00,199.85,1
479.00,210.79,1
540.00,228.28,1
420.00,250.48,1
534.00,274.93,1
508.00,300.89,1
597.00,328.50,1
467.00,356.58,1
539.00,383.25,1
467.00,407.50,1
450.00,428.34,1
388.00,444.52,1
370.00,455.28,1
363.00,460.75,1
283.00,461.06,1
292.00,456.17,1
124.00,445.53,1
263.00,429.33,1
45.00,408.59,1
124.00,383.11,1
48.00,353.89,1
184.00,323.35,1
150.00,294.11,1
115.00,267.12,1
280.00,243.24,1
97.00,223.44,1
267.00,207.12,1
341.00,195.90,1
436.00,192.37,1
492.00,197.49,1
420.00,210.08,1
551.00,228.26,1
480.00,251.23,1
479.00,276.82,1
538.00,303.49,1
624.00,331.80,1
467.00,360.98,1
578.00,388.85,1
421.00,414.07,1
399.00,434.58,1
347.00,448.76,1
368.00,456.75,1
274.00,458.96,1
149.00,454.16,1
255.00,442.37,1
185.00,425.81,1
56.00,404.71,1
131.00,378.84,1
197.00,350.92,1
199.00,324.10,1
92.00,298.65,1
89.00,273.36,1
127.00,248.36,1
136.00,225.11,1
232.00,205.21,1
303.00,190.78,1
398.00,183.79,1
396.00,184.71,1
319.00,191.73,1
321.00,201.90,1
281.00,213.24,1
271.00,224.35,1
351.00,235.08,1
306.00,246.02,1
469.00,258.04,1
534.00,273.31,1
520.00,292.82,1
401.00,314.38,1
425.00,334.81,1
312.00,352.18,1
353.00,365.29,1
255.00,373.72,1
347.00,377.79,1
327.00,378.92,1
198.00,377.14,1
206.00,371.02,1
144.00,360.33,1
251.00,346.45,1
75.00,330.40,1
40.00,310.90,1
133.00,288.17,1
106.00,264.76,1
48.00,241.47,1
126.00,218.51,1
196.00,197.92,1
108.00,180.92,1
197.00,167.05,1
277.00,157.47,1
321.00,153.86,1
327.00,156.29,1
382.00,164.30,1
499.00,178.13,1
402.00,197.49,1
566.00,221.25,1
400.00,247.95,1
521.00,275.63,1
443.00,303.11,1
550.00,330.15,1
402.00,355.85,1
462.00,378.63,1
304.00,396.91,1
471.00,410.36,1
297.00,419.76,1
183.00,423.35,1
137.00,418.59,1
127.00,405.96,1
227.00,388.01,1
89.00,367.01,1
131.00,343.36,1
106.00,317.81,1
196.00,292.27,1
89.00,268.06,1
144.00,245.07,1
300.00,225.09,1
272.00,210.85,1
396.00,203.33,1
396.00,202.97,1
407.00,209.19,1
454.00,220.76,1
483.00,237.13,1
571.00,258.29,1
514.00,283.49,1
639.00,311.83,1
562.00,342.67,1
638.00,374.62,1
587.00,406.55,1
550.00,436.94,1
421.00,463.02,1
570.00,483.74,1
458.00,500.16,1
432.00,511.96,1
315.00,517.57,1
324.00,516.15,1
374.00,509.06,1
222.00,497.51,1
269.00,481.23,1
181.00,460.64,1
106.00,435.86,1
97.00,406.62,1
137.00,374.56,1
122.00,341.88,1
188.00,310.44,1
184.00,281.93,1
340.00,258.36,1
374.00,242.18,1
452.00,234.59,1
393.00,234.95,1
525.00,242.06,1
475.00,255.27,1
537.00,273.56,1
512.00,295.41,1
579.00,319.89,1
586.00,346.57,1
629.00,375.17,1
497.00,403.84,1
712.00,431.57,1
525.00,458.64,1
630.00,483.82,1
404.00,505.05,1
406.00,519.75,1
403.00,527.12,1
305.00,527.86,1
398.00,522.57,1
299.00,512.82,1
261.00,498.88,1
64.00,479.09,1
143.00,452.68,1
77.00,421.10,1
152.00,386.87,1
83.00,351.95,1
162.00,317.74,1
209.00,286.32,1
148.00,258.98,1
359.00,236.78,1
360.00,222.28,1
415.00,216.21,1
451.00,217.98,1
534.00,227.34,1
607.00,244.49,1
396.00,267.17,1
527.00,291.49,1
641.00,317.65,1
588.00,346.85,1
584.00,377.46,1
820.00,409.51,1
536.00,443.15,1
545.00,474.20,1
405.00,498.92,1
488.00,516.45,1
406.00,527.45,1
590.00,534.01,1
368.00,537.46,1
397.00,536.57,1
519.00,532.06,1
309.00,525.43,1
191.00,513.93,1
353.00,496.87,1
66.00,475.40,1
280.00,449.61,1
184.00,421.79,1
100.00,392.92,1
47.00,361.56,1
284.00,329.64,1
258.00,301.70,1
154.00,278.37,1
224.00,257.96,1
458.00,242.71,1
409.00,235.90,1
343.00,236.49,1
510.00,242.44,1
290.00,252.65,1
648.00,266.51,1
453.00,285.11,1
734.00,308.76,1
577.00,337.31,1
517.00,367.79,1
417.00,395.57,1
765.00,421.11,1
611.00,447.80,1
227.00,471.57,1
384.00,485.97,1
297.00,491.50,1
282.00,489.83,1
81.00,480.01,1
116.00,461.17,1
244.00,436.15,1
131.00,408.68,1
39.00,378.77,1
67.00,345.61,1
87.00,311.11,1
220.00,278.38,1
543.00,253.20,1
332.00,239.25,1
76.00,231.35,1
553.00,226.27,1
496.00,228.81,1
582.00,240.84,1
479.00,259.71,1
650.00,283.59,1
611.00,312.06,1
515.00,343.07,1
557.00,373.46,1
385.00,400.86,1
459.00,423.20,1
700.00,442.74,1
342.00,461.15,1
361.00,474.33,1
263.00,479.59,1
83.00,475.76,1
270.00,462.78,1
116.00,443.74,1
297.00,421.22,1
140.00,397.21,1
90.00,371.35,1
89.00,342.78,1
42.00,312.30,1
91.00,281.00,1
182.00,251.27,1
275.00,226.40,1
203.00,207.74,1
482.00,196.35,1
332.00,193.55,1
597.00,199.37,1
431.00,213.50,1
506.00,233.41,1
491.00,256.80,1
591.00,283.37,1
617.00,313.07,1
459.00,344.13,1
591.00,373.93,1
648.00,403.16,1
625.00,432.79,1
479.00,460.62,1
449.00,483.32,1
383.00,499.16,1
220.00,506.58,1
204.00,504.04,1
276.00,492.86,1
416.00,477.74,1
203.00,461.26,1
476.00,444.22,1
44.00,426.46,1
195.00,405.15,1
122.00,380.09,1
60.00,352.57,1
46.00,322.41,1
90.00,290.85,1
167.00,260.49,1
41.00,232.66,1
391.00,209.10,1
126.00,192.18,1
270.00,180.48,1
531.00,175.52,1
424.00,180.52,1
369.00,192.94,1
534.00,210.04,1
288.00,230.31,1
332.00,250.05,1
493.00,268.75,1
619.00,290.09,1
384.00,314.29,1
519.00,338.07,1
302.00,359.21,1
418.00,376.12,1
454.00,389.68,1
194.00,399.67,1
61.00,401.48,1
316.00,394.85,1
232.00,384.44,1
301.00,372.76,1
99.00,359.23,1
82.00,341.83,1
115.00,320.45,1
38.00,296.42,1
120.00,270.94,1
461.00,248.73,1
493.00,236.27,1
270.00,233.16,1
235.00,233.56,1
94.00,233.04,1
321.00,231.07,1
317.00,230.64,1
525.00,234.98,1
530.00,246.22,1
646.00,265.13,1
773.00,292.32,1
639.00,326.92,1
544.00,363.90,1
317.00,396.87,1
416.00,421.95,1
383.00,439.67,1
363.00,451.32,1
258.00,456.44,1
352.00,455.40,1
189.00,449.02,1
400.00,438.61,1
228.00,426.24,1
611.00,414.88,1
144.00,405.72,1
91.00,393.51,1
196.00,375.51,1
154.00,354.60,1
135.00,332.29,1
88.00,308.58,1
70.00,283.44,1
236.00,258.79,1
367.00,239.01,1
507.00,228.31,1
296.00,226.57,1
382.00,230.05,1
274.00,236.14,1
434.00,244.23,1
444.00,255.44,1
391.00,269.64,1
518.00,285.98,1
155.00,302.01,1
482.00,315.03,1
511.00,328.00,1
520.00,343.73,1
523.00,361.47,1
433.00,379.52,1
402.00,395.49,1
344.00,407.63,1
409.00,415.78,1
254.00,419.95,1
274.00,419.09,1
98.00,412.06,1
180.00,398.43,1
95.00,379.40,1
191.00,357.07,1
64.00,332.76,1
74.00,306.52,1
43.00,278.52,1
294.00,251.77,1
68.00,228.90,1
67.00,208.05,1
256.00,189.12,1
178.00,174.73,1
264.00,165.28,1
466.00,162.41,1
524.00,169.07,1
444.00,184.66,1
368.00,205.18,1
738.00,229.88,1
549.00,260.77,1
501.00,294.93,1
487.00,327.99,1
452.00,358.19,1
381.00,383.94,1
429.00,404.40,1
211.00,418.56,1
325.00,425.25,1
371.00,426.49,1
248.00,424.16,1
232.00,417.42,1
213.00,406.13,1
189.00,390.99,1
132.00,372.55,1
350.00,352.86,1
232.00,335.02,1
208.00,318.83,1
157.00,302.66,1
111.00,285.59,1
183.00,267.78,1
118.00,250.33,1
351.00,235.16,1
336.00,225.44,1
110.00,219.99,1
138.00,214.32,1
404.00,209.45,1
604.00,211.65,1
172.00,221.11,1
384.00,232.01,1
330.00,243.12,1
458.00,255.93,1
564.00,272.19,1
490.00,292.75,1
248.00,313.50,1
532.00,331.46,1
273.00,347.24,1
443.00,360.34,1
303.00,370.47,1
231.00,376.51,1
397.00,378.23,1
320.00,378.12,1
378.00,377.24,1
183.00,374.50,1
112.00,367.11,1
100.00,353.59,1
127.00,335.30,1
60.00,313.64,1
175.00,290.29,1
145.00,267.56,1
174.00,246.71,1
317.00,229.40,1
195.00,216.97,1
299.00,208.69,1
350.00,204.95,1
712.00,209.42,1
334.00,223.24,1
376.00,240.87,1
228.00,257.15,1
342.00,270.73,1
790.00,286.14,1
543.00,308.76,1
464.00,335.07,1
569.00,360.82,1
466.00,385.54,1
514.00,408.24,1
386.00,427.54,1
490.00,442.76,1
458.00,454.75,1
470.00,464.34,1
428.00,471.37,1
293.00,474.50,1
214.00,471.26,1
390.00,462.39,1
229.00,450.45,1
116.00,434.38,1
258.00,413.80,1
144.00,390.89,1
90.00,365.86,1
89.00,338.18,1
125.00,309.25,1
79.00,280.52,1
88.00,252.42,1
330.00,227.56,1
439.00,210.94,1
368.00,204.40,1
376.00,205.49,1
334.00,211.50,1
383.00,220.85,1
362.00,232.80,1
344.00,246.19,1
825.00,263.68,1
485.00,288.71,1
448.00,316.80,1
509.00,343.28,1
553.00,368.73,1
287.00,391.60,1
478.00,409.31,1
447.00,423.18,1
505.00,435.24,1
192.00,443.63,1
481.00,446.66,1
262.00,445.90,1
173.00,440.29,1
281.00,428.77,1
369.00,414.99,1
308.00,401.77,1
50.00,386.96,1
77.00,366.97,1
178.00,342.85,1
70.00,317.23,1
67.00,290.43,1
129.00,263.21,1
271.00,238.74,1
600.00,222.74,1
347.00,218.25,1
346.00,221.23,1
186.00,226.28,1
316.00,231.19,1
175.00,235.48,1
569.00,241.18,1
422.00,251.84,1
502.00,267.40,1
458.00,285.95,1
428.00,305.84,1
341.00,324.52,1
181.00,338.66,1
483.00,347.96,1
533.00,357.41,1
247.00,367.63,1
422.00,375.17,1
346.00,380.37,1
567.00,385.64,1
377.00,392.24,1
128.00,396.26,1
93.00,392.27,1
191.00,380.43,1
127.00,363.75,1
53.00,343.19,1
196.00,319.75,1
106.00,295.90,1
51.00,271.78,1
147.00,247.36,1
168.00,224.86,1
356.00,207.27,1
383.00,197.45,1
330.00,195.48,1
245.00,198.16,1
313.00,203.03,1
549.00,211.73,1
356.00,226.05,1
707.00,245.78,1
452.00,270.98,1
466.00,298.36,1
457.00,324.56,1
525.00,349.50,1
376.00,372.47,1
339.00,390.95,1
308.00,403.33,1
259.00,409.43,1
306.00,409.85,1
277.00,406.09,1
263.00,399.07,1
125.00,388.21,1
260.00,373.48,1
306.00,357.78,1
79.00,341.85,1
75.00,322.93,1
52.00,300.23,1
88.00,275.28,1
80.00,249.74,1
335.00,226.90,1
102.00,209.07,1
86.00,193.77,1
304.00,180.51,1
321.00,172.84,1
315.00,171.68,1
472.00,176.90,1
492.00,189.58,1
542.00,209.52,1
303.00,233.27,1
483.00,257.11,1
689.00,282.92,1
515.00,312.83,1
463.00,343.33,1
433.00,370.65,1
558.00,394.74,1
523.00,417.13,1
386.00,436.80,1
258.00,450.14,1
505.00,457.06,1
307.00,460.20,1
112.00,457.54,1
268.00,447.02,1
198.00,431.28,1
240.00,412.54,1
163.00,391.65,1
84.00,368.19,1
86.00,341.63,1
110.00,313.16,1
53.00,284.13,1
99.00,255.29,1
238.00,228.97,1
195.00,207.77,1
166.00,191.37,1
351.00,179.87,1
398.00,175.68,1
428.00,179.69,1
396.00,190.51,1
404.00,205.89,1
369.00,223.79,1
552.00,244.08,1
451.00,267.30,1
897.00,295.62,1
470.00,329.85,1
509.00,364.34,1
322.00,393.45,1
404.00,415.43,1
393.00,430.94,1
639.00,443.60,1
409.00,455.76,1
257.00,464.06,1
242.00,464.64,1
128.00,456.87,1
128.00,441.01,1
49.00,418.02,1
127.00,389.62,1
48.00,358.08,1
110.00,324.95,1
286.00,293.61,1
73.00,266.33,1
130.00,241.45,1
106.00,218.19,1
270.00,198.35,1
288.00,184.41,1
231.00,176.62,1
331.00,173.81,1
420.00,176.75,1
473.00,186.69,1
325.00,202.02,1
607.00,221.33,1
259.00,243.50,1
535.00,266.08,1
419.00,288.88,1
604.00,313.00,1
454.00,338.18,1
448.00,362.39,1
543.00,384.44,1
476.00,405.10,1
402.00,423.09,1
381.00,436.50,1
302.00,444.41,1
87.00,444.53,1
286.00,436.28,1
170.00,422.47,1
176.00,404.60,1
184.00,383.49,1
65.00,359.84,1
143.00,333.79,1
115.00,306.84,1
79.00,279.94,1
105.00,253.40,1
129.00,228.32,1
297.00,207.16,1
280.00,192.58,1
443.00,185.84,1
416.00,187.73,1
536.00,198.01,1
536.00,216.13,1
554.00,240.57,1
316.00,267.45,1
587.00,293.67,1
489.00,320.22,1
640.00,348.08,1
383.00,375.53,1
542.00,400.07,1
471.00,421.51,1
416.00,439.57,1
404.00,452.89,1
406.00,461.53,1
289.00,465.30,1
339.00,463.66,1
360.00,458.05,1
179.00,448.90,1
314.00,435.64,1
197.00,419.43,1
179.00,400.56,1
60.00,378.01,1
54.00,351.20,1
66.00,321.14,1
54.00,289.65,1
51.00,257.93,1
169.00,227.97,1
236.00,202.82,1
478.00,186.32,1
485.00,181.47,1
367.00,186.71,1
347.00,197.44,1
630.00,213.07,1
463.00,235.05,1
439.00,260.45,1
496.00,286.39,1
523.00,312.79,1
513.00,339.52,1
632.00,366.66,1
516.00,394.15,1
654.00,421.19,1
446.00,446.61,1
478.00,467.89,1
326.00,482.86,1
290.00,489.99,1
365.00,489.64,1
232.00,483.55,1
239.00,471.78,1
89.00,453.73,1
126.00,429.44,1
43.00,399.96,1
57.00,366.41,1
67.00,330.64,1
204.00,295.78,1
177.00,264.90,1
148.00,238.50,1
376.00,217.57,1
302.00,204.39,1
450.00,199.40,1
400.00,202.24,1
383.00,211.29,1
566.00,225.54,1
540.00,245.86,1
487.00,270.85,1
471.00,297.35,1
584.00,324.27,1
381.00,350.71,1
540.00,374.80,1
408.00,396.15,1
612.00,415.56,1
407.00,433.41,1
493.00,448.51,1
361.00,459.65,1
367.00,466.01,1
252.00,466.48,1
132.00,459.72,1
336.00,446.44,1
334.00,431.02,1
202.00,414.99,1
47.00,395.56,1
145.00,371.39,1
120.00,344.48,1
172.00,317.24,1
157.00,291.18,1
406.00,269.11,1
197.00,253.08,1
144.00,240.33,1
286.00,229.07,1
308.00,221.43,1
423.00,219.24,1
530.00,224.20,1
502.00,237.00,1
439.00,255.17,1
528.00,276.34,1
467.00,299.51,1
513.00,323.54,1
621.00,348.56,1
412.00,373.97,1
508.00,397.08,1
377.00,416.43,1
460.00,431.58,1
258.00,441.62,1
309.00,445.22,1
308.00,442.98,1
189.00,435.75,1
230.00,423.37,1
186.00,406.83,1
170.00,387.07,1
183.00,365.09,1
45.00,341.12,1
89.00,314.59,1
38.00,286.16,1
190.00,258.03,1
189.00,233.13,1
229.00,213.10,1
335.00,198.92,1
335.00,191.78,1
455.00,192.17,1
533.00,200.76,1
422.00,216.65,1
505.00,237.16,1
507.00,260.91,1
484.00,286.86,1
612.00,314.37,1
530.00,343.37,1
572.00,372.58,1
520.00,400.60,1
516.00,426.22,1
451.00,448.16,1
459.00,465.53,1
406.00,478.04,1
470.00,486.11,1
357.00,490.23,1
254.00,489.04,1
300.00,481.64,1
160.00,468.39,1
197.00,449.63,1
113.00,425.99,1
121.00,398.32,1
165.00,368.40,1
161.00,338.56,1
43.00,309.06,1
121.00,279.47,1
270.00,252.33,1
262.00,231.01,1
294.00,216.17,1
319.00,207.42,1
376.00,204.73,1
544.00,209.43,1
456.00,221.89,1
596.00,240.94,1
566.00,265.68,1
547.00,294.50,1
555.00,325.00,1
629.00,356.34,1
352.00,386.30,1
589.00,412.18,1
408.00,434.24,1
573.00,452.99,1
247.00,467.14,1
388.00,474.45,1
355.00,475.69,1
303.00,472.40,1
247.00,464.26,1
53.00,449.70,1
117.00,427.56,1
220.00,400.76,1
149.00,373.02,1
40.00,344.24,1
77.00,313.53,1
78.00,282.09,1
374.00,253.88,1
151.00,232.18,1
252.00,215.68,1
329.00,204.15,1
292.00,198.57,1
329.00,198.01,1
416.00,202.29,1
436.00,212.02,1
451.00,226.85,1
400.00,245.01,1
516.00,265.30,1
513.00,288.06,1
473.00,312.56,1
492.00,336.94,1
640.00,361.69,1
108.00,384.09,1
548.00,400.04,1
445.00,412.57,1
468.00,424.22,1
350.00,433.36,1
342.00,438.46,1
383.00,439.49,1
203.00,436.59,1
294.00,428.95,1
143.00,416.63,1
171.00,399.62,1
127.00,378.56,1
39.00,353.82,1
102.00,325.87,1
100.00,296.68,1
85.00,267.86,1
162.00,240.68,1
260.00,217.59,1
203.00,200.17,1
404.00,189.17,1
385.00,186.20,1
413.00,190.93,1
541.00,202.64,1
494.00,221.26,1
534.00,245.10,1
411.00,271.37,1
733.00,299.64,1
498.00,330.90,1
600.00,362.96,1
567.00,394.03,1
444.00,422.63,1
409.00,445.81,1
518.00,463.41,1
414.00,476.85,1
561.00,487.06,1
384.00,494.59,1
320.00,497.58,1
162.00,493.18,1
218.00,480.62,1
183.00,461.64,1
55.00,437.27,1
171.00,408.02,1
43.00,375.94,1
115.00,342.19,1
38.00,307.72,1
81.00,273.57,1
116.00,241.21,1
178.00,212.70,1
301.00,190.42,1
326.00,176.30,1
370.00,170.63,1
363.00,172.55,1
440.00,181.00,1
463.00,195.54,1
540.00,215.87,1
542.00,241.43,1
437.00,269.92,1
583.00,299.16,1
442.00,328.44,1
514.00,356.23,1
437.00,381.33,1
471.00,403.16,1
505.00,421.99,1
404.00,437.94,1
421.00,449.89,1
380.00,457.54,1
255.00,460.12,1
125.00,455.22,1
216.00,442.24,1
132.00,423.44,1
227.00,401.01,1
45.00,375.93,1
78.00,347.74,1
39.00,316.79,1
57.00,284.59,1
70.00,252.51,1
294.00,223.85,1
208.00,201.84,1
284.00,186.68,1
316.00,177.99,1
320.00,175.68,1
271.00,178.23,1
385.00,184.65,1
416.00,195.44,1
524.00,211.55,1
467.00,232.76,1
660.00,258.66,1
398.00,287.85,1
544.00,317.05,1
495.00,345.14,1
556.00,372.34,1
422.00,397.47,1
370.00,418.03,1
348.00,432.31,1
378.00,440.84,1
321.00,444.50,1
298.00,443.46,1
240.00,437.56,1
175.00,426.47,1
108.00,409.71,1
165.00,388.08,1
162.00,363.81,1
62.00,337.90,1
115.00,310.37,1
82.00,282.28,1
73.00,254.50,1
184.00,228.35,1
158.00,205.87,1
176.00,187.58,1
279.00,174.02,1
390.00,167.23,1
387.00,168.52,1
403.00,176.82,1
467.00,191.16,1
541.00,211.19,1
534.00,236.72,1
462.00,265.51,1
524.00,295.00,1
447.00,323.81,1
564.00,351.42,1
444.00,377.46,1
422.00,400.27,1
360.00,417.98,1
382.00,430.15,1
308.00,437.01,1
288.00,438.39,1
331.00,434.90,1
240.00,427.69,1
299.00,417.19,1
234.00,404.17,1
152.00,388.51,1
41.00,368.50,1
42.00,343.33,1
88.00,314.61,1
133.00,285.23,1
131.00,257.47,1
253.00,233.21,1
230.00,214.25,1
316.00,201.28,1
425.00,195.46,1
625.00,199.46,1
382.00,213.03,1
454.00,231.53,1
511.00,252.87,1
498.00,277.10,1
458.00,302.59,1
528.00,328.00,1
437.00,352.60,1
434.00,374.82,1
410.00,393.49,1
445.00,408.70,1
364.00,420.47,1
251.00,427.29,1
237.00,427.48,1
204.00,421.04,1
284.00,409.92,1
143.00,395.49,1
142.00,377.33,1
48.00,354.97,1
121.00,329.23,1
80.00,301.86,1
86.00,274.11,1
139.00,247.18,1
132.00,222.65,1
143.00,201.16,1
239.00,183.61,1
324.00,172.00,1
346.00,167.68,1
370.00,170.39,1
375.00,178.92,1
429.00,192.30,1
480.00,210.28,1
489.00,232.56,1
556.00,258.44,1
484.00,286.81,1
576.00,316.24,1
459.00,345.50,1
488.00,372.70,1
389.00,396.12,1
476.00,415.21,1
281.00,429.41,1
360.00,437.54,1
287.00,439.92,1
218.00,436.74,1
224.00,427.76,1
136.00,413.31,1
176.00,394.17,1
75.00,371.25,1
114.00,345.11,1
37.00,316.63,1
50.00,286.51,1
117.00,256.26,1
152.00,228.41,1
224.00,205.03,1
208.00,187.17,1
301.00,175.21,1
286.00,169.36,1
390.00,169.71,1
394.00,176.40,1
402.00,188.70,1
452.00,205.47,1
107.00,223.12,1
428.00,238.19,1
474.00,253.65,1
442.00,272.06,1
534.00,292.66,1
473.00,315.02,1
419.00,337.27,1
550.00,358.40,1
378.00,378.28,1
462.00,395.49,1
325.00,408.95,1
418.00,418.31,1
314.00,423.78,1
236.00,424.55,1
188.00,419.17,1
153.00,407.55,1
189.00,390.82,1
134.00,370.70,1
192.00,348.53,1
46.00,324.84,1
47.00,298.81,1
108.00,271.17,1
118.00,244.33,1
261.00,220.85,1
129.00,202.07,1
219.00,187.21,1
299.00,176.92,1
388.00,173.25,1
419.00,177.03,1
406.00,187.53,1
461.00,203.30,1
359.00,222.51,1
580.00,244.25,1
503.00,269.50,1
620.00,298.02,1
468.00,328.09,1
453.00,356.72,1
412.00,381.45,1
530.00,402.56,1
274.00,419.72,1
396.00,431.05,1
356.00,437.14,1
295.00,438.87,1
243.00,435.44,1
103.00,425.75,1
79.00,408.71,1
112.00,385.25,1
126.00,358.27,1
99.00,329.76,1
78.00,300.42,1
66.00,270.87,1
108.00,242.08,1
47.00,214.91,1
234.00,190.76,1
281.00,172.68,1
293.00,162.19,1
320.00,158.67,1
420.00,161.93,1
422.00,172.10,1
392.00,187.77,1
440.00,207.14,1
477.00,229.45,1
391.00,253.62,1
491.00,278.11,1
421.00,302.37,1
478.00,325.80,1
356.00,347.16,1
420.00,365.23,1
340.00,379.57,1
362.00,390.00,1
315.00,396.43,1
386.00,399.61,1
256.00,399.94,1
237.00,396.37,1
248.00,388.59,1
127.00,376.93,1
175.00,361.18,1
58.00,341.61,1
47.00,318.28,1
46.00,291.67,1
107.00,263.81,1
91.00,236.79,1
173.00,212.23,1
121.00,191.17,1
248.00,174.34,1
336.00,163.69,1
445.00,161.60,1
419.00,168.41,1
432.00,182.19,1
455.00,201.15,1
605.00,225.03,1
481.00,253.42,1
517.00,283.83,1
477.00,314.01,1
511.00,342.92,1
414.00,369.36,1
475.00,392.23,1
368.00,410.96,1
513.00,425.86,1
349.00,437.51,1
312.00,444.50,1
180.00,444.58,1
173.00,436.92,1
281.00,423.28,1
82.00,405.71,1
68.00,383.18,1
42.00,355.56,1
72.00,324.64,1
73.00,292.57,1
181.00,261.85,1
68.00,234.00,1
70.00,208.31,1
158.00,184.93,1
243.00,166.24,1
370.00,155.03,1
292.00,151.87,1
400.00,155.65,1
418.00,165.94,1
483.00,182.43,1
435.00,204.02,1
492.00,228.89,1
488.00,256.02,1
450.00,284.03,1
591.00,312.28,1
401.00,340.21,1
434.00,365.30,1
432.00,386.35,1
387.00,403.50,1
348.00,416.02,1
328.00,423.42,1
371.00,426.41,1
324.00,426.07,1
271.00,422.39,1
237.00,414.78,1
180.00,402.85,1
166.00,386.76,1
176.00,367.40,1
50.00,345.08,1
64.00,319.51,1
133.00,292.02,1
114.00,265.10,1
142.00,240.03,1
163.00,217.66,1
256.00,199.48,1
415.00,188.10,1
355.00,185.23,1
397.00,189.56,1
372.00,199.25,1
420.00,212.93,1
375.00,229.52,1
704.00,250.08,1
564.00,276.91,1
667.00,308.89,1
485.00,342.76,1
370.00,373.78,1
442.00,398.76,1
349.00,417.76,1
363.00,430.72,1
179.00,436.62,1
265.00,434.76,1
140.00,425.90,1
100.00,410.41,1
137.00,388.98,1
58.00,363.31,1
57.00,334.29,1
45.00,302.97,1
215.00,272.14,1
286.00,246.00,1
299.00,226.96,1
162.00,213.62,1
277.00,203.88,1
393.00,198.89,1
370.00,200.39,1
430.00,207.89,1
504.00,221.01,1
535.00,239.95,1
413.00,262.79,1
475.00,286.68,1
502.00,310.77,1
470.00,334.89,1
385.00,357.26,1
546.00,377.22,1
218.00,393.92,1
322.00,404.30,1
322.00,408.61,1
324.00,409.03,1
324.00,406.54,1
299.00,401.72,1
242.00,394.38,1
208.00,383.99,1
234.00,370.81,1
187.00,355.67,1
42.00,337.81,1
226.00,317.16,1
48.00,295.42,1
62.00,272.34,1
66.00,247.79,1
186.00,224.07,1
203.00,203.94,1
222.00,188.61,1
204.00,177.77,1
295.00,171.28,1
364.00,170.24,1
279.00,174.62,1
410.00,183.22,1
452.00,196.58,1
544.00,215.53,1
473.00,239.40,1
564.00,266.56,1
461.00,295.40,1
561.00,324.44,1
451.00,352.58,1
716.00,380.34,1
314.00,406.99,1
508.00,429.11,1
378.00,445.82,1
329.00,456.93,1
266.00,461.01,1
470.00,459.88,1
265.00,455.91,1
154.00,447.38,1
214.00,432.60,1
154.00,413.18,1
95.00,389.79,1
50.00,362.38,1
445.00,334.88,1
115.00,311.63,1
158.00,290.53,1
169.00,269.86,1
227.00,251.20,1
281.00,236.19,1
341.00,226.32,1
358.00,222.28,1
405.00,224.02,1
388.00,230.78,1
423.00,241.51,1
436.00,255.57,1
522.00,272.82,1
350.00,292.02,1
493.00,311.18,1
393.00,329.73,1
314.00,346.10,1
437.00,359.15,1
368.00,370.05,1
230.00,377.71,1
336.00,380.64,1
366.00,380.73,1
540.00,381.49,1
373.00,384.50,1
258.00,386.83,1
185.00,384.69,1
88.00,376.22,1
194.00,361.90,1
47.00,343.34,1
96.00,321.05,1
118.00,296.44,1
184.00,272.16,1
300.00,251.21,1
531.00,237.90,1
292.00,233.70,1
318.00,234.66,1
330.00,238.05,1
502.00,245.04,1
378.00,256.43,1
507.00,271.18,1
382.00,288.12,1
555.00,306.56,1
482.00,326.73,1
565.00,348.48,1
489.00,370.88,1
699.00,394.16,1
375.00,417.51,1
412.00,436.82,1
370.00,450.01,1
301.00,457.20,1
336.00,458.30,1
268.00,454.26,1
328.00,446.09,1
187.00,434.28,1
216.00,418.47,1
137.00,398.90,1
192.00,376.45,1
55.00,351.71,1
59.00,324.30,1
104.00,295.00,1
125.00,266.24,1
218.00,240.31,1
381.00,220.46,1
276.00,208.49,1
292.00,202.69,1
431.00,202.26,1
343.00,207.65,1
409.00,217.56,1
505.00,231.63,1
464.00,250.20,1
571.00,272.71,1
544.00,298.59,1
661.00,327.60,1
501.00,358.34,1
595.00,388.52,1
410.00,415.97,1
491.00,438.85,1
438.00,456.84,1
519.00,470.99,1
422.00,481.87,1
316.00,488.10,1
383.00,488.57,1
183.00,483.27,1
206.00,471.11,1
87.00,451.89,1
130.00,426.49,1
131.00,397.03,1
90.00,365.49,1
72.00,332.57,1
101.00,299.32,1
176.00,267.87,1
194.00,240.47,1
185.00,217.88,1
279.00,200.47,1
280.00,189.12,1
318.00,183.79,1
394.00,184.46,1
428.00,191.55,1
592.00,205.89,1
576.00,228.02,1
479.00,255.68,1
636.00,286.26,1
385.00,317.67,1
528.00,347.03,1
521.00,374.11,1
593.00,400.21,1
345.00,423.78,1
354.00,441.16,1
314.00,451.07,1
360.00,454.80,1
344.00,453.96,1
244.00,448.95,1
304.00,439.66,1
127.00,426.15,1
210.00,408.07,1
38.00,385.64,1
118.00,359.22,1
212.00,331.21,1
68.00,304.01,1
146.00,277.40,1
272.00,253.21,1
127.00,233.22,1
321.00,217.33,1
301.00,206.92,1
337.00,202.60,1
417.00,204.19,1
410.00,211.75,1
529.00,225.18,1
674.00,245.69,1
552.00,273.27,1
553.00,304.58,1
490.00,336.05,1
520.00,365.81,1
420.00,392.47,1
570.00,415.70,1
387.00,435.71,1
524.00,451.93,1
284.00,463.55,1
389.00,469.30,1
261.00,469.13,1
223.00,462.87,1
70.00,449.22,1
147.00,428.22,1
117.00,402.07,1
39.00,372.39,1
43.00,339.54,1
57.00,304.84,1
102.00,270.46,1
87.00,238.28,1
139.00,209.38,1
338.00,186.33,1
262.00,171.60,1
410.00,165.25,1
368.00,166.90,1
477.00,176.03,1
418.00,191.57,1
402.00,211.21,1
495.00,233.34,1
473.00,257.83,1
507.00,284.06,1
525.00,311.23,1
581.00,339.29,1
587.00,368.21,1
586.00,397.33,1
409.00,424.25,1
416.00,445.73,1
277.00,459.88,1
445.00,467.15,1
384.00,469.98,1
204.00,468.34,1
341.00,460.95,1
250.00,449.48,1
275.00,435.13,1
87.00,417.22,1
142.00,394.74,1
51.00,368.11,1
44.00,338.05,1
220.00,307.03,1
122.00,278.33,1
205.00,252.84,1
142.00,230.68,1
240.00,212.24,1
338.00,199.17,1
152.00,191.48,1
356.00,187.53,1
431.00,189.11,1
396.00,197.36,1
410.00,210.55,1
464.00,227.47,1
499.00,248.03,1
540.00,272.03,1
502.00,298.51,1
563.00,326.27,1
420.00,353.50,1
495.00,378.20,1
310.00,398.69,1
338.00,413.08,1
313.00,421.08,1
285.00,423.56,1
192.00,420.31,1
178.00,410.90,1
272.00,396.94,1
158.00,380.49,1
79.00,360.95,1
61.00,337.33,1
108.00,310.78,1
155.00,283.86,1
112.00,258.41,1
44.00,234.04,1
191.00,211.00,1
80.00,190.71,1
259.00,174.02,1
388.00,163.71,1
429.00,162.61,1
358.00,169.60,1
450.00,182.44,1
537.00,200.96,1
628.00,226.17,1
507.00,256.94,1
613.00,290.52,1
463.00,324.65,1
552.00,357.14,1
492.00,387.04,1
776.00,416.07,1
465.00,445.16,1
504.00,470.81,1
333.00,489.66,1
559.00,502.03,1
432.00,510.40,1
377.00,514.76,1
204.00,512.43,1
184.00,501.79,1
165.00,483.20,1
165.00,458.59,1
156.00,430.13,1
178.00,399.71,1
41.00,367.95,1
46.00,334.17,1
62.00,299.11,1
129.00,265.06,1
193.00,234.66,1
45.00,208.43,1
314.00,186.54,1
349.00,172.16,1
411.00,167.30,1
358.00,170.69,1
558.00,181.52,1
427.00,199.48,1
500.00,222.40,1
542.00,248.70,1
487.00,277.61,1
421.00,306.45,1
553.00,333.78,1
420.00,359.62,1
455.00,382.64,1
397.00,401.77,1
465.00,417.20,1
248.00,428.15,1
383.00,433.39,1
334.00,434.17,1
216.00,430.86,1
313.00,423.03,1
231.00,411.94,1
241.00,398.30,1
45.00,380.99,1
73.00,358.43,1
98.00,331.81,1
156.00,304.13,1
85.00,277.10,1
101.00,250.92,1
95.00,225.89,1
199.00,203.44,1
309.00,186.28,1
408.00,177.18,1
427.00,177.19,1
428.00,185.30,1
453.00,199.63,1
499.00,219.02,1
500.00,242.60,1
594.00,269.77,1
474.00,299.41,1
551.00,329.32,1
426.00,357.71,1
446.00,382.73,1
381.00,403.15,1
500.00,419.46,1
416.00,432.83,1
436.00,443.31,1
364.00,450.28,1
327.00,453.04,1
257.00,450.62,1
245.00,442.91,1
325.00,431.30,1
123.00,416.52,1
262.00,398.44,1
45.00,377.25,1
168.00,353.01,1
131.00,327.16,1
50.00,300.69,1
112.00,273.43,1
43.00,246.25,1
172.00,220.52,1
250.00,198.94,1
274.00,183.82,1
304.00,175.40,1
410.00,173.88,1
542.00,180.70,1
408.00,195.72,1
483.00,215.86,1
380.00,238.49,1
533.00,262.55,1
469.00,288.00,1
517.00,314.24,1
531.00,340.64,1
528.00,366.89,1
419.00,391.28,1
546.00,412.68,1
286.00,430.13,1
421.00,441.91,1
353.00,448.49,1
261.00,450.13,1
299.00,446.22,1
247.00,437.64,1
202.00,424.78,1
111.00,407.24,1
164.00,385.35,1
84.00,360.31,1
110.00,333.03,1
65.00,304.33,1
158.00,275.73,1
208.00,249.74,1
255.00,228.58,1
256.00,213.00,1
309.00,203.04,1
424.00,199.53,1
456.00,203.60,1
463.00,214.91,1
554.00,232.50,1
512.00,255.43,1
518.00,281.77,1
444.00,308.98,1
590.00,335.96,1
424.00,362.29,1
534.00,386.63,1
394.00,407.93,1
608.00,426.59,1
379.00,443.10,1
339.00,455.05,1
338.00,460.66,1
209.00,459.80,1
383.00,453.25,1
262.00,443.50,1
246.00,430.96,1
60.00,413.82,1
69.00,390.67,1
61.00,362.24,1
167.00,331.49,1
93.00,301.23,1
206.00,272.90,1
160.00,247.86,1
231.00,226.88,1
307.00,211.14,1
358.00,202.18,1
383.00,200.30,1
506.00,205.77,1
507.00,218.85,1
394.00,237.42,1
474.00,258.34,1
512.00,281.02,1
494.00,305.47,1
626.00,331.49,1
424.00,358.27,1
474.00,382.87,1
317.00,402.87,1
478.00,417.84,1
356.00,428.85,1
340.00,435.68,1
357.00,437.95,1
303.00,436.40,1
373.00,431.80,1
171.00,424.11,1
320.00,412.79,1
46.00,397.65,1
182.00,377.86,1
65.00,354.21,1
63.00,327.64,1
141.00,299.26,1
122.00,271.64,1
59.00,245.36,1
318.00,221.88,1
342.00,205.28,1
293.00,196.54,1
401.00,194.46,1
450.00,199.24,1
470.00,210.98,1
526.00,228.91,1
510.00,251.77,1
547.00,278.08,1
540.00,306.61,1
456.00,335.46,1
518.00,362.59,1
599.00,388.50,1
436.00,413.17,1
443.00,434.06,1
376.00,449.64,1
332.00,459.21,1
413.00,463.29,1
298.00,463.10,1
230.00,457.82,1
118.00,445.86,1
170.00,427.25,1
66.00,403.24,1
138.00,375.33,1
58.00,344.99,1
225.00,314.46,1
177.00,286.50,1
158.00,261.87,1
274.00,240.85,1
198.00,224.40,1
198.00,211.64,1
440.00,203.52,1
468.00,203.48,1
483.00,212.03,1
487.00,227.41,1
471.00,247.61,1
507.00,270.76,1
698.00,297.38,1
574.00,328.27,1
644.00,361.46,1
483.00,394.11,1
505.00,423.37,1
390.00,447.17,1
435.00,464.67,1
212.00,474.81,1
352.00,476.89,1
295.00,472.68,1
298.00,464.10,1
307.00,452.13,1
301.00,438.11,1
241.00,422.47,1
105.00,403.98,1
155.00,381.64,1
87.00,356.12,1
106.00,328.57,1
68.00,299.82,1
69.00,270.61,1
127.00,242.19,1
201.00,216.92,1
184.00,196.43,1
291.00,181.47,1
342.00,173.23,1
358.00,172.22,1
483.00,178.45,1
437.00,192.04,1
521.00,211.54,1
576.00,236.40,1
527.00,265.66,1
593.00,297.47,1
561.00,330.61,1
640.00,364.30,1
482.00,397.13,1
495.00,426.30,1
506.00,450.72,1
420.00,470.31,1
363.00,483.79,1
310.00,490.09,1
304.00,489.27,1
187.00,481.45,1
308.00,467.73,1
180.00,449.93,1
207.00,428.72,1
71.00,403.97,1
79.00,375.32,1
68.00,343.50,1
71.00,310.36,1
130.00,277.74,1
118.00,247.49,1
275.00,221.62,1
233.00,202.08,1
327.00,189.34,1
315.00,183.29,1
409.00,183.91,1
396.00,190.90,1
452.00,203.50,1
431.00,220.74,1
481.00,241.37,1
534.00,265.00,1
441.00,290.66,1
551.00,316.80,1
417.00,342.40,1
588.00,366.84,1
470.00,390.35,1
612.00,412.98,1
356.00,433.47,1
345.00,448.52,1
269.00,456.01,1
291.00,456.36,1
381.00,451.76,1
394.00,445.31,1
280.00,437.65,1
296.00,427.72,1
127.00,414.33,1
140.00,396.20,1
76.00,373.32,1
71.00,346.64,1
103.00,317.60,1
206.00,289.05,1
171.00,263.46,1
154.00,241.11,1
251.00,222.19,1
212.00,207.62,1
341.00,198.08,1
263.00,193.82,1
372.00,194.42,1
427.00,200.26,1
488.00,212.29,1
479.00,229.98,1
509.00,252.00,1
475.00,276.78,1
526.00,302.85,1
488.00,329.35,1
493.00,355.09,1
399.00,378.39,1
420.00,397.72,1
466.00,413.37,1
480.00,426.73,1
381.00,437.72,1
427.00,445.40,1
194.00,448.30,1
265.00,444.66,1
226.00,435.08,1
96.00,420.18,1
183.00,399.91,1
47.00,375.55,1
217.00,348.71,1
137.00,321.92,1
58.00,295.45,1
155.00,268.97,1
98.00,243.82,1
242.00,221.55,1
179.00,203.58,1
283.00,190.48,1
284.00,182.71,1
365.00,180.81,1
395.00,185.07,1
341.00,194.56,1
511.00,208.58,1
300.00,226.06,1
492.00,245.16,1
478.00,266.14,1
610.00,290.35,1
490.00,317.29,1
539.00,344.85,1
470.00,371.26,1
553.00,395.85,1
378.00,417.59,1
332.00,433.84,1
300.00,442.91,1
249.00,444.94,1
277.00,440.59,1
265.00,431.59,1
258.00,419.27,1
69.00,403.09,1
90.00,381.38,1
57.00,354.79,1
146.00,325.79,1
70.00,296.39,1
42.00,266.95,1
98.00,237.84,1
85.00,210.52,1
202.00,186.68,1
191.00,168.00,1
354.00,155.98,1
329.00,151.88,1
430.00,155.60,1
431.00,166.65,1
464.00,184.00,1
506.00,206.62,1
381.00,232.35,1
505.00,258.85,1
490.00,286.03,1
571.00,314.26,1
438.00,342.45,1
491.00,368.56,1
456.00,391.72,1
566.00,412.65,1
412.00,431.44,1
345.00,445.77,1
300.00,453.54,1
190.00,453.79,1
180.00,446.11,1
171.00,431.46,1
349.00,413.25,1
147.00,394.14,1
142.00,373.01,1
47.00,348.61,1
56.00,320.96,1
46.00,290.91,1
164.00,261.05,1
131.00,233.90,1
118.00,210.03,1
274.00,190.24,1
228.00,176.27,1
444.00,169.54,1
365.00,171.06,1
446.00,179.91,1
437.00,194.63,1
443.00,213.94,1
503.00,236.63,1
425.00,261.50,1
523.00,287.24,1
486.00,313.49,1
567.00,340.12,1
366.00,365.52,1
604.00,388.47,1
400.00,409.39,1
356.00,426.30,1
290.00,436.64,1
338.00,440.64,1
344.00,439.93,1
342.00,436.18,1
324.00,430.10,1
184.00,420.97,1
195.00,407.38,1
106.00,389.22,1
163.00,367.30,1
110.00,342.93,1
128.00,317.29,1
39.00,290.64,1
152.00,263.69,1
236.00,239.29,1
127.00,219.04,1
229.00,202.36,1
312.00,190.46,1
313.00,184.74,1
584.00,186.85,1
469.00,198.37,1
360.00,216.11,1
495.00,236.38,1
459.00,258.96,1
467.00,283.08,1
494.00,307.66,1
388.00,331.43,1
489.00,353.08,1
398.00,372.44,1
486.00,389.48,1
314.00,403.45,1
471.00,413.85,1
271.00,420.69,1
323.00,423.05,1
326.00,421.14,1
272.00,416.09,1
272.00,407.96,1
136.00,396.20,1
63.00,379.19,1
44.00,356.22,1
95.00,329.04,1
86.00,300.09,1
73.00,271.00,1
162.00,243.18,1
124.00,218.31,1
190.00,197.15,1
209.00,180.44,1
256.00,168.89,1
292.00,162.90,1
278.00,162.24,1
370.00,166.42,1
405.00,175.86,1
468.00,190.91,1
434.00,210.68,1
492.00,233.90,1
447.00,259.28,1
541.00,285.88,1
421.00,312.75,1
583.00,339.04,1
432.00,364.55,1
509.00,388.04,1
254.00,407.15,1
353.00,419.48,1
333.00,425.63,1
341.00,427.47,1
324.00,425.73,1
237.00,420.48,1
271.00,411.38,1
227.00,399.12,1
175.00,384.07,1
91.00,365.49,1
165.00,343.62,1
68.00,319.66,1
50.00,293.81,1
102.00,266.68,1
173.00,240.78,1
124.00,217.87,1
177.00,198.19,1
346.00,183.51,1
390.00,176.76,1
369.00,178.13,1
458.00,186.40,1
460.00,200.89,1
495.00,220.74,1
450.00,244.27,1
591.00,270.52,1
446.00,298.73,1
602.00,327.52,1
473.00,356.14,1
520.00,383.23,1
394.00,406.90,1
393.00,425.52,1
245.00,437.40,1
378.00,442.37,1
370.00,442.81,1
263.00,439.90,1
271.00,432.78,1
226.00,421.58,1
200.00,406.75,1
102.00,387.97,1
134.00,365.29,1
41.00,339.36,1
78.00,310.88,1
116.00,281.50,1
127.00,253.49,1
181.00,228.38,1
235.00,207.76,1
249.00,192.64,1
314.00,183.43,1
419.00,181.18,1
336.00,185.77,1
382.00,195.25,1
466.00,208.96,1
411.00,226.80,1
545.00,248.03,1
475.00,272.33,1
534.00,298.62,1
461.00,325.31,1
605.00,351.89,1
482.00,378.30,1
507.00,403.02,1
378.00,423.98,1
393.00,439.56,1
347.00,449.34,1
284.00,453.27,1
312.00,451.41,1
206.00,444.20,1
225.00,431.83,1
84.00,414.32,1
161.00,391.90,1
47.00,365.64,1
44.00,336.04,1
85.00,304.17,1
77.00,272.33,1
205.00,242.81,1
170.00,217.78,1
222.00,197.89,1
322.00,183.97,1
263.00,176.63,1
384.00,175.47,1
430.00,180.85,1
450.00,192.95,1
457.00,210.52,1
590.00,233.18,1
413.00,259.66,1
544.00,287.40,1
473.00,315.36,1
608.00,343.54,1
342.00,370.40,1
481.00,393.21,1
344.00,411.18,1
390.00,424.13,1
332.00,431.96,1
306.00,434.90,1
244.00,432.55,1
185.00,424.56,1
257.00,411.62,1
233.00,395.85,1
53.00,377.18,1
87.00,354.00,1
86.00,327.23,1
105.00,299.12,1
114.00,271.26,1
131.00,244.91,1
191.00,221.49,1
269.00,202.81,1
379.00,191.16,1
356.00,187.43,1
300.00,189.92,1
393.00,196.75,1
463.00,208.26,1
413.00,224.39,1
573.00,244.71,1
484.00,268.89,1
560.00,295.77,1
486.00,323.74,1
476.00,350.91,1
443.00,375.49,1
476.00,396.96,1
281.00,413.97,1
292.00,424.23,1
345.00,427.99,1
328.00,427.49,1
276.00,423.51,1
258.00,415.90,1
258.00,404.95,1
111.00,390.55,1
130.00,371.77,1
91.00,349.02,1
66.00,323.20,1
75.00,295.33,1
161.00,267.50,1
151.00,242.04,1
181.00,220.01,1
324.00,202.90,1
316.00,192.69,1
301.00,189.00,1
437.00,191.19,1
440.00,200.01,1
534.00,215.47,1
489.00,236.67,1
572.00,262.31,1
542.00,291.18,1
544.00,321.71,1
503.00,351.98,1
590.00,381.04,1
410.00,407.84,1
455.00,430.11,1
390.00,446.95,1
403.00,458.50,1
219.00,463.81,1
209.00,461.13,1
306.00,451.59,1
202.00,437.80,1
131.00,419.83,1
46.00,396.56,1
127.00,368.62,1
103.00,338.55,1
69.00,307.86,1
141.00,277.54,1
120.00,249.18,1
238.00,224.51,1
296.00,205.70,1
349.00,194.41,1
333.00,190.40,1
292.00,191.84,1
451.00,197.87,1
447.00,209.48,1
481.00,226.50,1
514.00,247.79,1
515.00,272.46,1
488.00,298.99,1
513.00,325.83,1
480.00,351.94,1
582.00,377.16,1
422.00,400.93,1
471.00,421.42,1
442.00,437.99,1
389.00,450.52,1
385.00,458.44,1
354.00,461.82,1
306.00,460.66,1
63.00,453.07,1
321.00,438.54,1
103.00,419.64,1
272.00,397.94,1
89.00,374.35,1
104.00,348.62,1
111.00,320.85,1
84.00,292.55,1
41.00,264.00,1
104.00,235.81,1
243.00,210.65,1
224.00,191.30,1
345.00,178.82,1
366.00,174.01,1
395.00,176.74,1
486.00,186.49,1
493.00,203.12,1
500.00,225.48,1
372.00,250.47,1
554.00,276.02,1
516.00,302.93,1
555.00,331.12,1
471.00,358.95,1
491.00,384.70,1
408.00,406.93,1
350.00,424.01,1
252.00,434.15,1
385.00,437.70,1
324.00,436.98,1
155.00,431.78,1
198.00,420.36,1
106.00,403.07,1
190.00,381.49,1
101.00,357.27,1
61.00,330.68,1
181.00,302.83,1
135.00,276.25,1
321.00,253.31,1
214.00,235.73,1
363.00,223.80,1
383.00,218.32,1
392.00,219.54,1
490.00,227.06,1
406.00,240.03,1
590.00,257.60,1
509.00,279.90,1
618.00,306.01,1
548.00,334.74,1
590.00,364.63,1
458.00,393.38,1
427.00,418.19,1
346.00,436.88,1
348.00,448.78,1
406.00,454.91,1
271.00,456.36,1
239.00,452.20,1
184.00,441.78,1
210.00,426.03,1
59.00,405.38,1
104.00,379.73,1
71.00,350.48,1
66.00,319.18,1
141.00,287.69,1
160.00,258.46,1
259.00,233.65,1
235.00,214.60,1
287.00,201.41,1
291.00,193.79,1
451.00,192.61,1
430.00,198.73,1
304.00,210.12,1
480.00,224.34,1
470.00,242.06,1
671.00,264.76,1
510.00,292.40,1
554.00,322.28,1
538.00,352.14,1
570.00,381.34,1
499.00,408.94,1
489.00,433.39,1
420.00,453.32,1
429.00,468.03,1
382.00,477.45,1
340.00,481.45,1
174.00,478.76,1
256.00,468.73,1
264.00,453.36,1
313.00,435.78,1
224.00,417.24,1
104.00,396.44,1
54.00,371.59,1
81.00,342.83,1
45.00,311.78,1
59.00,279.76,1
151.00,248.79,1
197.00,221.65,1
258.00,200.33,1
360.00,186.39,1
367.00,180.70,1
371.00,182.47,1
431.00,190.51,1
368.00,203.55,1
598.00,221.28,1
477.00,244.32,1
519.00,270.94,1
607.00,299.75,1
651.00,331.44,1
579.00,365.18,1
642.00,399.01,1
448.00,430.62,1
412.00,456.54,1
400.00,474.97,1
508.00,487.51,1
394.00,495.88,1
419.00,499.98,1
389.00,499.93,1
275.00,495.51,1
251.00,485.49,1
137.00,469.34,1
175.00,447.28,1
76.00,420.25,1
50.00,388.88,1
72.00,354.25,1
81.00,318.45,1
192.00,284.23,1
344.00,255.50,1
285.00,234.83,1
221.00,220.80,1
368.00,211.88,1
452.00,209.73,1
464.00,215.58,1
471.00,228.14,1
512.00,246.06,1
561.00,268.49,1
487.00,294.19,1
570.00,321.36,1
587.00,349.68,1
653.00,379.42,1
526.00,409.47,1
560.00,437.50,1
416.00,461.37,1
415.00,479.16,1
258.00,489.31,1
458.00,492.37,1
383.00,491.31,1
310.00,486.95,1
314.00,478.45,1
159.00,465.20,1
240.00,446.82,1
150.00,424.59,1
127.00,399.14,1
66.00,370.42,1
110.00,339.40,1
56.00,307.46,1
72.00,275.48,1
133.00,244.83,1
324.00,218.91,1
376.00,201.54,1
383.00,193.77,1
426.00,194.40,1
432.00,202.24,1
431.00,215.72,1
540.00,234.04,1
474.00,256.66,1
595.00,282.56,1
532.00,311.10,1
638.00,341.50,1
526.00,372.62,1
648.00,403.26,1
510.00,432.48,1
491.00,458.23,1
471.00,478.88,1
495.00,494.67,1
391.00,505.63,1
354.00,510.74,1
238.00,508.76,1
237.00,499.16,1
328.00,483.98,1
109.00,464.71,1
109.00,439.99,1
88.00,410.14,1
147.00,377.52,1
42.00,343.74,1
48.00,308.98,1
130.00,274.58,1
203.00,243.59,1
79.00,217.07,1
283.00,195.07,1
273.00,179.47,1
287.00,170.90,1
485.00,169.76,1
436.00,177.22,1
430.00,191.74,1
458.00,210.88,1
542.00,234.06,1
576.00,261.39,1
429.00,291.07,1
548.00,320.43,1
547.00,349.27,1
565.00,377.90,1
425.00,404.55,1
666.00,428.64,1
488.00,451.31,1
590.00,472.07,1
386.00,489.22,1
293.00,499.74,1
353.00,502.22,1
286.00,498.11,1
266.00,488.38,1
241.00,473.56,1
194.00,454.48,1
43.00,430.52,1
137.00,401.51,1
80.00,369.41,1
86.00,335.87,1
86.00,302.11,1
131.00,269.69,1
311.00,241.59,1
366.00,221.50,1
383.00,210.68,1
372.00,207.88,1
446.00,211.94,1
486.00,222.44,1
443.00,238.41,1
503.00,258.13,1
549.00,281.09,1
485.00,306.47,1
497.00,332.29,1
664.00,358.65,1
515.00,386.17,1
600.00,413.27,1
556.00,438.97,1
651.00,463.52,1
391.00,485.45,1
468.00,501.79,1
304.00,511.06,1
346.00,512.98,1
465.00,509.52,1
248.00,502.64,1
266.00,490.86,1
304.00,474.64,1
289.00,456.22,1
43.00,434.73,1
132.00,408.27,1
131.00,378.27,1
76.00,346.82,1
191.00,315.31,1
162.00,286.07,1
178.00,260.12,1
305.00,238.61,1
282.00,223.23,1
374.00,214.44,1
290.00,211.66,1
469.00,214.35,1
408.00,222.79,1
680.00,238.15,1
454.00,260.37,1
564.00,286.45,1
585.00,314.69,1
565.00,344.81,1
502.00,374.60,1
602.00,402.78,1
414.00,428.42,1
513.00,449.80,1
261.00,465.26,1
360.00,473.19,1
312.00,474.26,1
247.00,469.57,1
385.00,460.32,1
169.00,447.83,1
118.00,430.46,1
90.00,407.10,1
127.00,379.31,1
58.00,349.02,1
85.00,317.15,1
98.00,285.15,1
165.00,255.07,1
229.00,229.20,1
373.00,210.21,1
376.00,200.07,1
451.00,198.83,1
472.00,205.72,1
400.00,219.00,1
372.00,235.47,1
506.00,253.81,1
506.00,274.94,1
566.00,299.20,1
436.00,324.86,1
710.00,351.34,1
536.00,379.71,1
624.00,408.63,1
466.00,435.69,1
497.00,458.82,1
370.00,476.35,1
391.00,487.40,1
372.00,492.25,1
314.00,491.60,1
346.00,485.98,1
218.00,475.72,1
263.00,460.75,1
132.00,441.34,1
155.00,417.69,1
41.00,389.80,1
123.00,358.70,1
83.00,326.26,1
93.00,293.97,1
172.00,263.37,1
244.00,237.03,1
260.00,216.77,1
323.00,203.24,1
361.00,196.68,1
436.00,197.51,1
436.00,205.48,1
525.00,219.90,1
458.00,239.69,1
547.00,263.21,1
560.00,289.85,1
596.00,319.26,1
372.00,348.61,1
591.00,375.34,1
462.00,399.93,1
495.00,422.00,1
304.00,439.33,1
440.00,450.69,1
419.00,457.70,1
364.00,461.48,1
304.00,461.01,1
181.00,454.93,1
234.00,442.71,1
85.00,424.81,1
214.00,402.27,1
60.00,376.50,1
109.00,347.98,1
117.00,318.11,1
49.00,288.13,1
198.00,259.20,1
258.00,234.45,1
305.00,216.32,1
305.00,205.12,1
324.00,200.10,1
384.00,200.72,1
424.00,207.10,1
552.00,219.88,1
509.00,239.17,1
563.00,263.58,1
485.00,290.93,1
556.00,319.33,1
406.00,346.89,1
551.00,372.24,1
491.00,395.76,1
519.00,417.50,1
458.00,436.65,1
399.00,451.92,1
420.00,462.45,1
292.00,467.84,1
345.00,467.65,1
281.00,462.45,1
324.00,453.37,1
83.00,439.85,1
144.00,420.14,1
48.00,394.75,1
59.00,364.82,1
68.00,331.84,1
134.00,298.49,1
137.00,267.21,1
186.00,239.50,1
231.00,216.66,1
268.00,199.69,1
380.00,189.75,1
451.00,188.19,1
441.00,194.98,1
483.00,208.65,1
441.00,227.42,1
536.00,249.84,1
562.00,275.79,1
499.00,304.23,1
532.00,333.05,1
576.00,361.66,1
359.00,388.33,1
558.00,411.06,1
493.00,431.01,1
481.00,448.67,1
420.00,462.74,1
469.00,472.92,1
327.00,478.95,1
272.00,479.26,1
361.00,473.74,1
128.00,463.21,1
235.00,446.98,1
59.00,425.23,1
118.00,398.50,1
120.00,368.50,1
41.00,336.80,1
186.00,304.79,1
66.00,274.35,1
209.00,246.51,1
238.00,223.18,1
338.00,206.50,1
286.00,196.91,1
400.00,193.94,1
417.00,197.66,1
406.00,207.49,1
377.00,221.35,1
466.00,238.09,1
492.00,257.83,1
496.00,280.40,1
605.00,305.50,1
479.00,332.58,1
572.00,359.79,1
426.00,385.49,1
589.00,408.91,1
464.00,430.29,1
504.00,449.01,1
371.00,463.64,1
325.00,472.38,1
320.00,474.46,1
240.00,470.35,1
311.00,460.90,1
238.00,447.59,1
311.00,431.78,1
81.00,413.27,1
111.00,390.35,1
102.00,363.42,1
104.00,334.44,1
123.00,304.92,1
120.00,276.27,1
157.00,249.65,1
208.00,226.47,1
279.00,208.42,1
265.00,196.33,1
324.00,190.01,1
312.00,189.06,1
432.00,193.48,1
532.00,204.57,1
496.00,222.76,1
600.00,246.75,1
480.00,274.77,1
560.00,304.46,1
484.00,334.16,1
549.00,362.85,1
457.00,389.51,1
492.00,413.05,1
438.00,432.80,1
706.00,450.64,1
364.00,467.59,1
393.00,480.12,1
390.00,486.46,1
309.00,487.47,1
290.00,482.90,1
307.00,473.37,1
297.00,460.35,1
61.00,443.14,1
168.00,420.22,1
74.00,392.67,1
89.00,362.09,1
76.00,329.58,1
77.00,296.56,1
176.00,265.04,1
143.00,237.05,1
232.00,213.68,1
391.00,197.10,1
368.00,189.41,1
363.00,189.58,1
357.00,195.50,1
396.00,205.75,1
425.00,219.74,1
534.00,237.81,1
260.00,258.21,1
555.00,278.45,1
498.00,300.06,1
571.00,324.14,1
432.00,348.86,1
475.00,371.91,1
410.00,391.94,1
579.00,409.69,1
348.00,425.47,1
341.00,436.75,1
316.00,441.93,1
251.00,441.32,1
271.00,435.22,1
147.00,423.90,1
118.00,406.91,1
44.00,384.13,1
66.00,356.37,1
44.00,325.26,1
106.00,293.05,1
72.00,261.59,1
114.00,232.05,1
94.00,205.19,1
321.00,183.13,1
279.00,168.68,1
329.00,162.08,1
310.00,162.05,1
442.00,168.19,1
482.00,181.24,1
429.00,200.34,1
472.00,223.24,1
508.00,248.80,1
396.00,275.55,1
536.00,301.92,1
502.00,328.24,1
551.00,354.69,1
418.00,379.76,1
492.00,401.79,1
420.00,420.31,1
387.00,434.70,1
365.00,444.17,1
299.00,448.40,1
353.00,447.67,1
219.00,442.46,1
238.00,432.42,1
180.00,417.76,1
258.00,399.80,1
104.00,379.54,1
83.00,356.11,1
65.00,329.21,1
61.00,300.14,1
42.00,269.99,1
124.00,240.34,1
225.00,214.12,1
259.00,194.00,1
297.00,180.87,1
342.00,174.79,1
355.00,175.40,1
352.00,181.62,1
356.00,192.06,1
454.00,206.19,1
488.00,224.54,1
566.00,247.52,1
498.00,274.31,1
634.00,303.76,1
460.00,334.54,1
596.00,364.64,1
423.00,392.63,1
528.00,417.21,1
310.00,436.87,1
452.00,450.57,1
266.00,458.35,1
379.00,460.32,1
299.00,457.57,1
252.00,450.48,1
243.00,438.86,1
173.00,423.04,1
117.00,402.80,1
216.00,379.21,1
100.00,354.06,1
76.00,327.22,1
78.00,298.71,1
49.00,269.47,1
164.00,241.11,1
227.00,216.57,1
251.00,197.94,1
416.00,186.77,1
458.00,184.87,1
371.00,191.34,1
446.00,203.61,1
473.00,220.58,1
565.00,242.31,1
550.00,268.65,1
542.00,298.02,1
549.00,328.55,1
606.00,359.43,1
471.00,389.47,1
532.00,416.61,1
354.00,439.07,1
432.00,455.46,1
399.00,466.18,1
376.00,472.16,1
324.00,473.28,1
288.00,469.32,1
274.00,460.50,1
153.00,446.70,1
221.00,428.12,1
108.00,405.67,1
174.00,380.29,1
62.00,352.74,1
101.00,323.31,1
176.00,293.93,1
45.00,266.01,1
226.00,240.06,1
196.00,218.14,1
303.00,201.88,1
306.00,192.04,1
397.00,189.12,1
408.00,193.13,1
471.00,203.73,1
465.00,220.05,1
484.00,240.74,1
564.00,265.08,1
491.00,292.16,1
543.00,320.37,1
544.00,348.72,1
547.00,376.72,1
442.00,402.74,1
493.00,425.10,1
390.00,443.07,1
450.00,456.33,1
242.00,463.88,1
330.00,464.75,1
335.00,460.31,1
270.00,452.23,1
293.00,440.82,1
172.00,426.09,1
275.00,408.34,1
125.00,388.32,1
206.00,366.29,1
38.00,342.17,1
83.00,315.49,1
102.00,287.30,1
108.00,259.67,1
147.00,233.93,1
164.00,211.31,1
294.00,193.48,1
336.00,182.50,1
416.00,179.65,1
364.00,184.15,1
410.00,194.33,1
596.00,210.39,1
372.00,232.00,1
578.00,256.57,1
472.00,283.30,1
557.00,311.43,1
479.00,339.56,1
623.00,367.37,1
452.00,394.33,1
546.00,418.91,1
393.00,439.75,1
472.00,455.96,1
300.00,466.72,1
344.00,471.13,1
296.00,469.52,1
299.00,463.02,1
256.00,452.20,1
293.00,438.13,1
194.00,421.54,1
82.00,401.35,1
127.00,376.59,1
75.00,348.77,1
70.00,318.99,1
67.00,288.10,1
149.00,258.01,1
230.00,231.53,1
342.00,211.61,1
324.00,199.73,1
283.00,194.58,1
323.00,194.29,1
392.00,198.57,1
468.00,208.28,1
487.00,223.72,1
471.00,243.91,1
557.00,267.62,1
456.00,293.68,1
534.00,320.30,1
491.00,346.60,1
594.00,372.55,1
527.00,398.16,1
480.00,422.08,1
449.00,442.31,1
620.00,459.57,1
383.00,474.62,1
406.00,485.17,1
309.00,489.62,1
290.00,487.66,1
265.00,479.50,1
148.00,465.46,1
191.00,445.65,1
136.00,421.41,1
110.00,393.68,1
61.00,363.07,1
115.00,330.65,1
136.00,298.59,1
144.00,268.76,1
196.00,242.33,1
311.00,221.22,1
337.00,207.45,1
312.00,200.81,1
382.00,200.22,1
410.00,205.58,1
421.00,216.29,1
465.00,231.48,1
468.00,250.53,1
585.00,273.10,1
483.00,298.76,1
647.00,326.56,1
389.00,354.78,1
540.00,380.73,1
482.00,403.99,1
566.00,425.41,1
384.00,444.14,1
427.00,458.25,1
361.00,467.06,1
359.00,470.78,1
326.00,469.68,1
265.00,463.89,1
255.00,453.37,1
200.00,438.41,1
206.00,419.70,1
85.00,397.42,1
228.00,372.33,1
42.00,345.80,1
46.00,317.17,1
114.00,286.96,1
138.00,257.87,1
194.00,232.07,1
197.00,210.77,1
338.00,195.29,1
345.00,187.10,1
375.00,186.35,1
470.00,192.61,1
414.00,205.30,1
489.00,222.95,1
464.00,244.31,1
502.00,268.35,1
490.00,293.95,1
580.00,320.71,1
454.00,347.90,1
588.00,374.24,1
452.00,399.10,1
478.00,421.08,1
252.00,437.59,1
395.00,447.03,1
259.00,450.21,1
302.00,447.68,1
341.00,440.91,1
194.00,430.94,1
202.00,416.73,1
124.00,398.09,1
117.00,375.40,1
56.00,349.08,1
54.00,319.86,1
104.00,289.34,1
104.00,259.57,1
262.00,233.11,1
265.00,212.67,1
323.00,199.32,1
297.00,192.62,1
332.00,191.53,1
396.00,195.64,1
426.00,205.20,1
488.00,220.07,1
516.00,240.07,1
593.00,264.84,1
515.00,293.28,1
536.00,323.11,1
440.00,351.85,1
614.00,378.85,1
442.00,404.29,1
468.00,426.51,1
307.00,443.24,1
385.00,453.41,1
245.00,457.04,1
368.00,454.97,1
226.00,448.29,1
133.00,436.24,1
236.00,418.64,1
95.00,397.15,1
88.00,371.83,1
46.00,342.90,1
74.00,311.67,1
205.00,280.91,1
135.00,253.35,1
159.00,229.27,1
202.00,208.80,1
337.00,193.82,1
374.00,186.32,1
415.00,186.85,1
476.00,195.11,1
432.00,209.88,1
524.00,229.51,1
313.00,251.68,1
565.00,274.41,1
507.00,298.73,1
528.00,324.71,1
533.00,351.11,1
626.00,377.88,1
393.00,403.74,1
502.00,425.86,1
258.00,442.26,1
316.00,451.11,1
351.00,453.14,1
293.00,450.52,1
161.00,442.73,1
216.00,428.91,1
252.00,411.23,1
129.00,391.24,1
176.00,368.82,1
38.00,343.80,1
41.00,315.86,1
141.00,286.34,1
254.00,259.18,1
144.00,236.53,1
257.00,218.11,1
189.00,203.89,1
355.00,194.56,1
354.00,191.39,1
508.00,195.60,1
431.00,207.34,1
487.00,224.75,1
428.00,245.68,1
527.00,269.02,1
547.00,294.65,1
576.00,322.51,1
489.00,351.07,1
593.00,378.97,1
439.00,405.10,1
501.00,427.87,1
406.00,446.28,1
385.00,459.56,1
383.00,467.35,1
218.00,469.12,1
303.00,464.25,1
176.00,453.50,1
281.00,438.12,1
147.00,419.23,1
187.00,397.34,1
69.00,372.44,1
133.00,345.04,1
86.00,316.29,1
46.00,286.89,1
86.00,257.24,1
214.00,229.75,1
240.00,207.51,1
295.00,191.94,1
398.00,183.93,1
360.00,183.77,1
379.00,189.90,1
462.00,201.33,1
417.00,217.64,1
546.00,238.03,1
451.00,261.81,1
641.00,288.48,1
523.00,317.86,1
569.00,348.34,1
509.00,377.91,1
587.00,405.86,1
417.00,431.04,1
475.00,451.59,1
361.00,466.58,1
499.00,476.57,1
385.00,482.83,1
307.00,484.69,1
326.00,481.01,1
278.00,472.49,1
273.00,459.95,1
77.00,442.66,1
190.00,419.85,1
97.00,393.21,1
138.00,364.32,1
40.00,333.68,1
98.00,302.00,1
92.00,270.65,1
174.00,241.63,1
197.00,216.86,1
228.00,197.44,1
352.00,184.45,1
323.00,178.86,1
459.00,180.75,1
425.00,189.93,1
427.00,205.04,1
453.00,224.13,1
480.00,246.22,1
479.00,270.51,1
463.00,295.81,1
600.00,321.81,1
584.00,349.47,1
603.00,378.62,1
365.00,406.04,1
416.00,427.91,1
460.00,444.06,1
513.00,456.94,1
325.00,466.59,1
219.00,469.90,1
321.00,465.76,1
164.00,455.71,1
234.00,440.27,1
89.00,419.92,1
156.00,395.19,1
68.00,367.18,1
66.00,336.70,1
95.00,304.78,1
140.00,273.69,1
93.00,244.90,1
210.00,219.35,1
310.00,199.50,1
295.00,187.11,1
421.00,182.54,1
392.00,185.66,1
527.00,196.29,1
490.00,213.88,1
461.00,236.46,1
566.00,262.14,1
474.00,290.06,1
572.00,318.92,1
501.00,347.84,1
553.00,375.90,1
353.00,401.00,1
483.00,421.23,1
403.00,436.92,1
322.00,447.70,1
196.00,451.32,1
322.00,447.72,1
320.00,439.78,1
216.00,428.87,1
202.00,414.33,1
173.00,396.17,1
184.00,375.23,1
50.00,351.81,1
56.00,325.19,1
51.00,295.97,1
76.00,265.87,1
56.00,236.33,1
112.00,208.55,1
290.00,185.26,1
275.00,169.40,1
404.00,162.00,1
390.00,163.13,1
463.00,172.22,1
439.00,187.87,1
509.00,208.86,1
477.00,233.84,1
512.00,261.53,1
557.00,290.93,1
456.00,320.86,1
566.00,349.81,1
439.00,377.01,1
637.00,402.42,1
422.00,426.09,1
484.00,446.24,1
383.00,461.44,1
389.00,471.28,1
273.00,475.00,1
222.00,471.63,1
264.00,461.62,1
224.00,446.79,1
255.00,428.74,1
149.00,408.09,1
142.00,384.58,1
53.00,357.96,1
38.00,328.21,1
108.00,296.62,1
91.00,265.67,1
95.00,236.54,1
184.00,210.43,1
284.00,189.85,1
361.00,177.18,1
458.00,173.77,1
458.00,179.96,1
477.00,193.98,1
456.00,213.73,1
533.00,237.62,1
560.00,265.15,1
548.00,295.46,1
558.00,327.01,1
530.00,358.29,1
517.00,387.85,1
468.00,414.29,1
472.00,436.59,1
376.00,453.86,1
452.00,465.85,1
281.00,472.36,1
320.00,472.70,1
251.00,467.01,1
209.00,455.73,1
245.00,439.66,1
134.00,419.81,1
130.00,396.16,1
75.00,368.84,1
58.00,338.70,1
157.00,307.44,1
118.00,277.56,1
114.00,249.85,1
227.00,225.27,1
292.00,206.28,1
406.00,195.16,1
399.00,192.71,1
492.00,198.57,1
456.00,211.68,1
466.00,230.15,1
484.00,252.07,1
516.00,276.52,1
493.00,302.57,1
636.00,330.11,1
387.00,357.89,1
625.00,383.98,1
457.00,408.42,1
484.00,430.21,1
323.00,447.01,1
420.00,457.77,1
314.00,462.97,1
216.00,462.02,1
198.00,453.74,1
211.00,439.10,1
226.00,420.35,1
116.00,398.59,1
143.00,373.76,1
87.00,346.53,1
200.00,318.61,1
71.00,291.40,1
249.00,265.95,1
287.00,244.91,1
328.00,230.39,1
455.00,223.32,1
536.00,225.41,1
407.00,235.63,1
579.00,251.58,1
449.00,272.14,1
574.00,295.75,1
640.00,322.45,1
459.00,351.28,1
463.00,378.29,1
594.00,402.67,1
376.00,424.66,1
364.00,441.43,1
325.00,451.39,1
302.00,454.88,1
358.00,453.07,1
249.00,447.17,1
189.00,436.47,1
92.00,419.83,1
175.00,397.85,1
85.00,372.39,1
47.00,343.89,1
112.00,313.23,1
98.00,282.61,1
198.00,254.14,1
249.00,230.24,1
92.00,210.98,1
384.00,196.12,1
275.00,187.74,1
393.00,186.12,1
383.00,190.74,1
538.00,201.97,1
534.00,220.33,1
487.00,244.33,1
497.00,271.10,1
596.00,299.63,1
509.00,329.54,1
690.00,360.48,1
322.00,390.38,1
572.00,415.95,1
417.00,437.17,1
340.00,453.26,1
260.00,461.70,1
308.00,462.41,1
312.00,457.47,1
145.00,447.52,1
290.00,432.49,1
252.00,414.82,1
219.00,396.04,1
84.00,375.10,1
224.00,351.82,1
73.00,327.46,1
106.00,302.03,1
103.00,275.91,1
192.00,251.08,1
443.00,231.59,1
352.00,221.04,1
360.00,218.20,1
462.00,221.53,1
483.00,231.44,1
495.00,247.21,1
526.00,267.51,1
547.00,291.42,1
600.00,318.35,1
539.00,347.14,1
496.00,375.54,1
533.00,401.78,1
398.00,424.64,1
565.00,443.62,1
381.00,459.16,1
407.00,470.12,1
374.00,475.90,1
346.00,476.95,1
354.00,473.71,1
231.00,466.16,1
270.00,453.99,1
195.00,437.64,1
153.00,417.50,1
44.00,392.84,1
95.00,363.81,1
39.00,331.97,1
79.00,298.87,1
192.00,266.97,1
164.00,239.09,1
273.00,216.55,1
296.00,200.55,1
266.00,191.10,1
404.00,187.75,1
487.00,191.87,1
435.00,203.58,1
503.00,221.11,1
586.00,243.83,1
564.00,271.59,1
560.00,302.62,1
506.00,334.26,1
546.00,364.75,1
482.00,393.05,1
695.00,419.79,1
460.00,445.50,1
472.00,467.57,1
387.00,483.64,1
347.00,493.06,1
403.00,496.18,1
296.00,494.09,1
350.00,487.30,1
206.00,475.92,1
341.00,460.65,1
145.00,442.32,1
60.00,419.48,1
69.00,390.98,1
124.00,359.11,1
70.00,326.24,1
92.00,293.38,1
215.00,262.61,1
322.00,237.53,1
338.00,220.52,1
248.00,210.58,1
309.00,205.48,1
543.00,206.48,1
510.00,216.14,1
568.00,234.02,1
487.00,257.54,1
538.00,284.09,1
496.00,311.87,1
655.00,340.79,1
569.00,371.11,1
912.00,404.24,1
493.00,439.88,1
496.00,472.21,1
408.00,496.82,1
460.00,513.70,1
357.00,523.51,1
356.00,526.26,1
201.00,521.45,1
256.00,508.96,1
352.00,491.38,1
267.00,471.89,1
267.00,450.97,1
43.00,427.03,1
139.00,398.74,1
83.00,367.45,1
68.00,334.58,1
82.00,301.03,1
152.00,268.75,1
238.00,240.49,1
240.00,218.24,1
280.00,202.34,1
302.00,192.65,1
322.00,188.98,1
405.00,191.07,1
431.00,199.25,1
579.00,214.13,1
502.00,235.62,1
575.00,261.94,1
289.00,289.30,1
563.00,314.71,1
599.00,340.24,1
612.00,367.98,1
526.00,396.29,1
617.00,423.55,1
398.00,448.11,1
407.00,466.98,1
231.00,477.83,1
400.00,480.78,1
331.00,478.40,1
203.00,471.23,1
345.00,459.18,1
174.00,443.67,1
195.00,424.55,1
88.00,401.38,1
122.00,374.46,1
105.00,345.25,1
86.00,315.07,1
85.00,284.65,1
129.00,255.33,1
131.00,228.51,1
166.00,205.18,1
356.00,187.47,1
258.00,177.25,1
378.00,174.01,1
425.00,177.75,1
442.00,188.59,1
524.00,205.73,1
476.00,228.35,1
613.00,255.31,1
514.00,285.65,1
614.00,318.01,1
460.00,350.31,1
557.00,380.57,1
350.00,406.88,1
438.00,427.45,1
475.00,443.01,1
569.00,456.35,1
295.00,467.18,1
227.00,471.43,1
301.00,467.80,1
168.00,457.75,1
57.00,440.74,1
104.00,416.42,1
103.00,387.21,1
51.00,355.20,1
37.00,321.14,1
103.00,286.49,1
132.00,253.80,1
233.00,225.53,1
271.00,203.77,1
332.00,189.65,1
273.00,182.60,1
371.00,181.52,1
442.00,186.78,1
424.00,198.56,1
657.00,217.09,1
502.00,242.44,1
523.00,271.86,1
483.00,302.02,1
574.00,331.99,1
667.00,362.78,1
599.00,394.87,1
457.00,425.39,1
444.00,450.70,1
363.00,469.14,1
450.00,481.06,1
331.00,487.37,1
423.00,488.78,1
292.00,485.85,1
217.00,477.71,1
180.00,463.27,1
111.00,442.72,1
240.00,417.79,1
106.00,390.83,1
102.00,362.00,1
45.00,330.92,1
126.00,299.03,1
136.00,268.50,1
191.00,241.29,1
180.00,218.41,1
290.00,200.73,1
345.00,189.79,1
321.00,185.95,1
369.00,188.08,1
404.00,195.61,1
448.00,208.35,1
451.00,225.61,1
466.00,246.24,1
490.00,269.24,1
470.00,293.62,1
627.00,319.50,1
569.00,347.52,1
584.00,376.71,1
452.00,404.57,1
497.00,428.77,1
417.00,448.39,1
450.00,463.22,1
294.00,472.41,1
314.00,474.93,1
307.00,471.29,1
298.00,463.02,1
286.00,451.27,1
203.00,436.25,1
167.00,417.41,1
43.00,394.08,1
74.00,365.95,1
42.00,334.39,1
56.00,301.14,1
108.00,268.11,1
101.00,237.24,1
218.00,210.30,1
258.00,189.44,1
384.00,176.58,1
324.00,172.20,1
388.00,174.95,1
456.00,184.11,1
400.00,199.03,1
478.00,218.13,1
451.00,240.36,1
503.00,264.86,1
430.00,290.37,1
489.00,315.46,1
462.00,339.55,1
623.00,363.48,1
360.00,386.72,1
482.00,406.69,1
292.00,421.78,1
327.00,430.77,1
242.00,433.14,1
227.00,429.20,1
230.00,419.58,1
158.00,405.34,1
204.00,387.34,1
42.00,365.85,1
117.00,340.81,1
49.00,313.24,1
51.00,284.16,1
112.00,254.85,1
142.00,227.60,1
176.00,204.09,1
181.00,185.07,1
232.00,170.86,1
276.00,162.00,1
431.00,159.99,1
403.00,166.03,1
464.00,179.20,1
439.00,197.86,1
460.00,220.36,1
507.00,245.59,1
464.00,272.63,1
540.00,300.45,1
503.00,328.61,1
594.00,356.81,1
444.00,384.08,1
509.00,408.54,1
356.00,428.66,1
456.00,443.62,1
327.00,453.50,1
327.00,457.89,1
299.00,456.69,1
256.00,450.47,1
304.00,440.04,1
144.00,425.85,1
235.00,407.80,1
77.00,386.30,1
144.00,361.59,1
59.00,334.39,1
61.00,305.29,1
54.00,275.03,1
62.00,244.78,1
169.00,216.57,1
160.00,192.60,1
290.00,174.48,1
322.00,163.78,1
373.00,160.99,1
382.00,165.53,1
371.00,175.93,1
379.00,190.40,1
436.00,207.99,1
499.00,229.00,1
405.00,252.58,1
532.00,277.36,1
479.00,303.10,1
529.00,329.32,1
428.00,354.63,1
483.00,377.57,1
383.00,397.21,1
451.00,413.06,1
299.00,424.53,1
250.00,429.86,1
304.00,428.84,1
181.00,422.49,1
316.00,411.83,1
161.00,398.16,1
226.00,381.77,1
94.00,362.56,1
47.00,339.82,1
50.00,313.19,1
94.00,284.58,1
80.00,256.07,1
96.00,228.83,1
173.00,204.24,1
222.00,184.29,1
313.00,170.74,1
311.00,164.36,1
371.00,164.84,1
326.00,171.11,1
363.00,181.77,1
467.00,196.40,1
373.00,214.85,1
463.00,235.62,1
472.00,258.32,1
467.00,282.53,1
425.00,306.70,1
487.00,329.83,1
377.00,351.19,1
492.00,370.14,1
383.00,386.71,1
375.00,400.01,1
344.00,409.09,1
237.00,413.18,1
230.00,411.32,1
199.00,403.70,1
243.00,391.79,1
84.00,376.08,1
188.00,356.61,1
170.00,335.24,1
91.00,313.00,1
47.00,289.01,1
138.00,263.90,1
127.00,239.83,1
208.00,218.57,1
268.00,201.87,1
294.00,191.06,1
374.00,186.77,1
331.00,188.75,1
416.00,196.04,1
422.00,208.26,1
434.00,224.66,1
455.00,244.14,1
484.00,266.11,1
625.00,290.94,1
483.00,318.57,1
504.00,346.38,1
377.00,371.50,1
457.00,392.48,1
322.00,408.78,1
328.00,419.45,1
301.00,424.25,1
319.00,424.20,1
226.00,419.71,1
139.00,409.97,1
206.00,394.92,1
94.00,375.79,1
181.00,353.54,1
69.00,329.28,1
70.00,303.18,1
137.00,276.15,1
60.00,249.84,1
184.00,225.24,1
188.00,204.19,1
204.00,187.77,1
203.00,175.66,1
289.00,168.11,1
439.00,167.00,1
395.00,173.56,1
415.00,186.39,1
473.00,204.12,1
454.00,225.88,1
408.00,249.70,1
504.00,274.18,1
455.00,299.25,1
518.00,324.37,1
377.00,348.15,1
503.00,369.40,1
408.00,388.13,1
458.00,404.22,1
380.00,417.17,1
317.00,425.86,1
336.00,429.54,1
250.00,428.37,1
297.00,422.62,1
163.00,412.64,1
158.00,397.91,1
152.00,378.70,1
157.00,356.73,1
59.00,332.54,1
41.00,305.77,1
123.00,277.49,1
150.00,250.44,1
127.00,226.16,1
188.00,205.13,1
278.00,188.81,1
255.00,178.45,1
355.00,174.13,1
345.00,176.05,1
406.00,183.67,1
390.00,196.14,1
430.00,212.52,1
489.00,232.31,1
460.00,255.08,1
565.00,280.30,1
490.00,307.40,1
504.00,334.76,1
434.00,360.44,1
485.00,383.39,1
397.00,403.04,1
365.00,418.24,1
288.00,427.65,1
337.00,431.24,1
254.00,429.74,1
236.00,423.29,1
220.00,412.15,1
115.00,396.56,1
136.00,376.46,1
50.00,352.26,1
53.00,324.65,1
78.00,294.91,1
49.00,264.71,1
160.00,235.74,1
242.00,210.99,1
236.00,192.45,1
278.00,180.28,1
328.00,174.31,1
330.00,174.51,1
288.00,179.49,1
407.00,188.22,1
406.00,201.07,1
544.00,218.71,1
454.00,241.10,1
492.00,266.21,1
402.00,291.68,1
487.00,316.17,1
361.00,338.68,1
562.00,359.22,1
332.00,377.99,1
379.00,393.03,1
342.00,403.30,1
313.00,409.14,1
264.00,410.25,1
156.00,405.76,1
264.00,395.91,1
113.00,381.86,1
194.00,364.26,1
63.00,343.53,1
146.00,320.31,1
52.00,295.40,1
53.00,269.24,1
102.00,242.57,1
104.00,217.25,1
181.00,194.88,1
203.00,176.95,1
250.00,164.41,1
313.00,157.90,1
268.00,157.17,1
339.00,161.26,1
401.00,170.23,1
446.00,184.51,1
443.00,203.60,1
440.00,226.03,1
238.00,248.53,1
426.00,268.50,1
397.00,287.10,1
589.00,306.73,1
388.00,327.76,1
445.00,347.88,1
279.00,364.52,1
480.00,377.35,1
267.00,387.05,1
167.00,391.33,1
247.00,388.57,1
129.00,380.12,1
208.00,367.00,1
80.00,350.03,1
131.00,329.72,1
39.00,306.47,1
47.00,280.76,1
117.00,254.00,1
110.00,228.48,1
197.00,205.94,1
245.00,188.20,1
382.00,177.33,1
341.00,174.38,1
230.00,177.08,1
376.00,182.97,1
421.00,192.99,1
438.00,207.88,1
439.00,226.70,1
485.00,248.44,1
438.00,271.98,1
550.00,296.65,1
438.00,321.91,1
460.00,346.09,1
419.00,367.71,1
420.00,386.18,1
258.00,399.94,1
373.00,408.02,1
230.00,410.86,1
189.00,407.77,1
267.00,399.18,1
149.00,386.63,1
184.00,370.50,1
80.00,350.86,1
87.00,327.94,1
46.00,302.13,1
62.00,274.44,1
121.00,246.74,1
137.00,221.18,1
156.00,199.00,1
124.00,180.30,1
203.00,165.15,1
262.00,154.73,1
329.00,150.45,1
336.00,152.65,1
393.00,160.75,1
406.00,174.17,1
383.00,191.81,1
477.00,212.51,1
412.00,235.63,1
544.00,260.74,1
466.00,287.41,1
500.00,314.49,1
415.00,340.23,1
482.00,363.53,1
298.00,383.07,1
377.00,397.29,1
302.00,406.15,1
236.00,409.55,1
309.00,407.51,1
217.00,401.32,1
206.00,391.14,1
103.00,376.48,1
165.00,357.61,1
75.00,335.68,1
119.00,311.44,1
55.00,285.77,1
65.00,259.24,1
107.00,232.89,1
129.00,208.55,1
278.00,188.48,1
285.00,175.04,1
317.00,168.71,1
310.00,168.52,1
289.00,172.94,1
348.00,180.79,1
396.00,192.17,1
383.00,207.07,1
432.00,224.73,1
606.00,246.08,1
476.00,271.78,1
485.00,299.26,1
347.00,325.09,1
455.00,347.47,1
353.00,366.30,1
486.00,382.11,1
246.00,394.46,1
323.00,401.55,1
214.00,402.82,1
138.00,397.70,1
296.00,387.17,1
66.00,372.93,1
197.00,354.79,1
63.00,333.63,1
63.00,309.69,1
86.00,283.47,1
86.00,256.84,1
149.00,231.50,1
166.00,209.12,1
175.00,190.63,1
248.00,176.62,1
209.00,167.40,1
365.00,163.41,1
269.00,164.96,1
383.00,171.34,1
440.00,182.84,1
570.00,200.74,1
386.00,223.99,1
550.00,249.96,1
508.00,277.87,1
577.00,307.57,1
453.00,337.43,1
505.00,365.41,1
316.00,389.30,1
383.00,407.14,1
264.00,418.39,1
352.00,423.56,1
232.00,423.45,1
273.00,418.39,1
277.00,409.47,1
124.00,397.02,1
314.00,381.32,1
130.00,364.08,1
123.00,344.65,1
43.00,321.94,1
57.00,296.19,1
41.00,268.42,1
155.00,240.86,1
180.00,216.34,1
201.00,196.50,1
332.00,182.47,1
378.00,176.02,1
387.00,177.44,1
337.00,184.96,1
434.00,196.87,1
545.00,213.85,1
413.00,235.72,1
704.00,261.68,1
452.00,291.55,1
531.00,322.26,1
386.00,350.64,1
509.00,375.59,1
419.00,397.20,1
446.00,415.31,1
374.00,429.27,1
486.00,439.55,1
304.00,446.46,1
412.00,449.40,1
302.00,448.55,1
329.00,444.18,1
253.00,436.18,1
166.00,423.91,1
103.00,406.24,1
76.00,383.04,1
106.00,355.62,1
51.00,325.83,1
38.00,294.47,1
148.00,263.14,1
113.00,234.33,1
123.00,208.81,1
226.00,187.33,1
255.00,171.68,1
359.00,163.12,1
311.00,161.80,1
400.00,166.86,1
450.00,178.18,1
394.00,194.87,1
292.00,213.75,1
448.00,232.85,1
383.00,252.63,1
501.00,273.46,1
399.00,294.97,1
499.00,316.42,1
497.00,337.90,1
501.00,359.51,1
350.00,379.35,1
383.00,394.97,1
318.00,405.63,1
374.00,411.85,1
188.00,413.26,1
170.00,408.29,1
158.00,396.72,1
94.00,379.59,1
218.00,358.69,1
38.00,335.61,1
58.00,309.90,1
73.00,281.94,1
59.00,253.55,1
97.00,225.99,1
142.00,200.85,1
204.00,179.93,1
114.00,163.56,1
179.00,150.76,1
240.00,141.97,1
296.00,138.48,1
488.00,142.18,1
417.00,154.24,1
482.00,173.16,1
446.00,196.87,1
395.00,223.01,1
406.00,249.08,1
508.00,274.84,1
520.00,301.38,1
463.00,328.19,1
382.00,352.82,1
457.00,373.79,1
359.00,391.06,1
429.00,404.51,1
406.00,414.77,1
307.00,421.66,1
322.00,424.03,1
250.00,421.74,1
322.00,415.48,1
127.00,405.39,1
172.00,390.39,1
52.00,370.41,1
125.00,346.28,1
73.00,319.53,1
211.00,292.62,1
122.00,267.58,1
183.00,244.98,1
301.00,226.23,1
201.00,212.68,1
296.00,203.65,1
318.00,199.22,1
283.00,199.35,1
465.00,204.03,1
539.00,215.27,1
434.00,233.06,1
358.00,253.48,1
522.00,274.45,1
449.00,296.64,1
483.00,319.43,1
465.00,341.74,1
485.00,363.09,1
368.00,382.21,1
419.00,397.67,1
339.00,409.03,1
324.00,415.90,1
337.00,418.32,1
219.00,416.34,1
207.00,409.20,1
139.00,396.65,1
124.00,378.92,1
49.00,356.52,1
89.00,330.33,1
51.00,301.84,1
72.00,272.40,1
102.00,243.49,1
114.00,216.68,1
158.00,193.19,1
216.00,174.30,1
168.00,160.48,1
375.00,152.33,1
337.00,151.52,1
427.00,158.15,1
470.00,171.73,1
540.00,192.24,1
450.00,217.96,1
448.00,245.87,1
465.00,273.89,1
546.00,302.05,1
216.00,328.11,1
456.00,348.93,1
323.00,365.18,1
376.00,377.66,1
303.00,386.06,1
337.00,390.59,1
235.00,391.16,1
285.00,387.65,1
228.00,380.70,1
195.00,370.53,1
262.00,357.81,1
57.00,342.77,1
104.00,324.00,1
44.00,301.60,1
59.00,276.67,1
78.00,250.59,1
53.00,224.66,1
127.00,200.11,1
109.00,178.27,1
279.00,160.95,1
227.00,149.90,1
273.00,144.89,1
373.00,145.81,1
380.00,153.27,1
400.00,166.58,1
457.00,184.77,1
520.00,207.73,1
461.00,234.58,1
499.00,263.28,1
505.00,292.75,1
597.00,322.92,1
390.00,352.49,1
466.00,378.54,1
256.00,398.87,1
299.00,411.57,1
194.00,416.26,1
280.00,413.98,1
286.00,407.15,1
145.00,396.77,1
207.00,382.21,1
125.00,364.12,1
103.00,342.90,1
47.00,318.60,1
98.00,292.03,1
69.00,264.78,1
59.00,237.75,1
192.00,212.47,1
135.00,191.02,1
296.00,174.69,1
339.00,165.34,1
392.00,164.01,1
311.00,169.41,1
318.00,178.95,1
440.00,191.75,1
466.00,208.91,1
559.00,231.08,1
474.00,257.28,1
548.00,285.73,1
469.00,314.76,1
508.00,342.90,1
402.00,368.55,1
445.00,390.37,1
375.00,407.84,1
489.00,421.55,1
262.00,431.39,1
279.00,435.26,1
279.00,432.92,1
233.00,425.71,1
270.00,414.47,1
167.00,400.03,1
163.00,382.10,1
134.00,360.94,1
101.00,337.30,1
47.00,311.38,1
82.00,283.64,1
205.00,256.60,1
212.00,233.39,1
235.00,215.18,1
249.00,201.95,1
168.00,192.65,1
242.00,186.05,1
374.00,183.40,1
432.00,187.10,1
444.00,197.63,1
571.00,214.73,1
431.00,237.28,1
569.00,263.07,1
474.00,290.86,1
488.00,318.98,1
512.00,346.02,1
496.00,371.72,1
386.00,394.59,1
466.00,413.25,1
348.00,427.55,1
393.00,437.12,1
286.00,441.62,1
235.00,440.36,1
276.00,433.34,1
127.00,421.15,1
167.00,403.69,1
64.00,381.42,1
129.00,355.30,1
44.00,326.79,1
88.00,296.86,1
62.00,266.62,1
137.00,237.68,1
247.00,212.65,1
245.00,193.86,1
328.00,182.01,1
383.00,177.64,1
378.00,180.63,1
402.00,189.74,1
406.00,203.54,1
492.00,221.36,1
442.00,242.68,1
561.00,266.99,1
470.00,293.43,1
503.00,320.38,1
441.00,346.13,1
465.00,369.56,1
404.00,389.82,1
449.00,406.54,1
283.00,418.93,1
324.00,425.51,1
265.00,426.23,1
205.00,421.39,1
230.00,411.27,1
107.00,396.26,1
47.00,375.76,1
145.00,350.68,1
74.00,323.33,1
70.00,294.85,1
71.00,265.84,1
117.00,237.70,1
236.00,212.93,1
216.00,193.72,1
248.00,180.31,1
312.00,172.69,1
382.00,171.55,1
468.00,177.80,1
411.00,191.11,1
426.00,209.12,1
471.00,230.21,1
450.00,253.68,1
602.00,279.47,1
523.00,307.82,1
537.00,337.24,1
451.00,365.40,1
508.00,390.81,1
392.00,412.57,1
351.00,429.01,1
321.00,439.05,1
364.00,443.39,1
350.00,443.62,1
250.00,439.99,1
173.00,431.19,1
161.00,416.51,1
200.00,397.36,1
69.00,374.90,1
123.00,349.30,1
84.00,321.63,1
134.00,293.42,1
129.00,266.28,1
67.00,240.64,1
137.00,216.50,1
186.00,195.36,1
259.00,179.18,1
310.00,169.35,1
333.00,166.35,1
455.00,170.42,1
442.00,181.93,1
555.00,200.48,1
395.00,224.06,1
505.00,249.92,1
482.00,276.99,1
556.00,305.17,1
376.00,332.81,1
498.00,357.76,1
364.00,379.23,1
479.00,397.10,1
315.00,411.06,1
336.00,420.02,1
309.00,423.60,1
172.00,421.58,1
227.00,413.37,1
144.00,399.78,1
111.00,381.33,1
39.00,357.98,1
81.00,330.53,1
125.00,301.38,1
98.00,272.79,1
145.00,245.90,1
164.00,221.89,1
322.00,202.89,1
222.00,190.24,1
363.00,183.68,1
371.00,183.62,1
404.00,190.00,1
434.00,201.89,1
414.00,218.29,1
476.00,237.90,1
434.00,259.80,1
620.00,284.14,1
527.00,311.43,1
541.00,340.19,1
384.00,367.26,1
396.00,389.79,1
335.00,406.52,1
383.00,417.74,1
289.00,423.87,1
303.00,424.95,1
334.00,421.89,1
118.00,414.61,1
187.00,401.58,1
116.00,383.41,1
193.00,362.01,1
57.00,338.41,1
65.00,312.38,1
46.00,284.21,1
102.00,255.50,1
126.00,228.36,1
204.00,204.79,1
276.00,186.87,1
316.00,175.93,1
356.00,172.22,1
361.00,175.18,1
403.00,183.93,1
445.00,197.82,1
464.00,216.39,1
439.00,238.42,1
438.00,262.00,1
554.00,286.67,1
461.00,312.59,1
516.00,338.43,1
369.00,362.25,1
505.00,382.92,1
341.00,400.17,1
441.00,413.53,1
292.00,422.53,1
352.00,426.74,1
263.00,426.27,1
165.00,420.36,1
266.00,408.94,1
137.00,393.63,1
151.00,374.66,1
117.00,352.37,1
60.00,327.44,1
78.00,300.20,1
87.00,272.03,1
158.00,245.04,1
202.00,221.43,1
223.00,202.65,1
299.00,189.58,1
363.00,183.22,1
494.00,184.83,1
421.00,194.71,1
444.00,210.44,1
500.00,230.39,1
472.00,253.84,1
442.00,278.89,1
520.00,304.19,1
501.00,329.76,1
595.00,355.78,1
448.00,381.46,1
422.00,404.17,1
293.00,421.18,1
470.00,432.39,1
190.00,438.40,1
363.00,438.53,1
223.00,433.48,1
189.00,423.53,1
235.00,408.92,1
94.00,390.47,1
171.00,368.47,1
53.00,343.59,1
59.00,315.99,1
72.00,286.57,1
130.00,257.49,1
124.00,230.65,1
167.00,207.13,1
201.00,187.85,1
260.00,173.83,1
304.00,165.95,1
343.00,164.50,1
444.00,169.77,1
422.00,181.78,1
398.00,198.88,1
474.00,219.28,1
456.00,242.40,1
505.00,267.70,1
385.00,293.36,1
492.00,317.77,1
350.00,340.03,1
542.00,360.03,1
316.00,377.79,1
444.00,392.18,1
336.00,402.85,1
363.00,409.88,1
269.00,412.66,1
245.00,410.58,1
303.00,404.20,1
129.00,394.07,1
217.00,379.81,1
67.00,361.62,1
159.00,340.07,1
54.00,316.05,1
49.00,289.89,1
160.00,262.97,1
97.00,237.67,1
224.00,215.36,1
229.00,197.69,1
296.00,185.82,1
302.00,179.94,1
362.00,180.02,1
319.00,185.22,1
382.00,194.48,1
426.00,207.64,1
402.00,224.26,1
447.00,243.31,1
464.00,264.30,1
525.00,287.22,1
441.00,311.33,1
530.00,335.42,1
376.00,358.16,1
450.00,377.91,1
369.00,394.02,1
359.00,406.02,1
180.00,412.17,1
215.00,410.87,1
231.00,403.22,1
136.00,390.72,1
149.00,373.74,1
67.00,352.56,1
120.00,328.13,1
46.00,301.64,1
118.00,274.28,1
218.00,248.54,1
135.00,226.45,1
199.00,207.86,1
251.00,193.38,1
293.00,184.18,1
309.00,180.55,1
362.00,182.43,1
367.00,189.41,1
317.00,200.15,1
403.00,213.37,1
424.00,229.11,1
462.00,247.63,1
398.00,267.95,1
501.00,289.09,1
444.00,310.81,1
478.00,332.46,1
396.00,352.76,1
424.00,370.52,1
354.00,384.98,1
346.00,395.46,1
279.00,401.27,1
268.00,402.07,1
262.00,398.30,1
168.00,390.23,1
190.00,377.71,1
180.00,361.77,1
195.00,343.87,1
66.00,324.12,1
56.00,301.54,1
127.00,276.98,1
41.00,252.08,1
110.00,227.43,1
151.00,204.58,1
124.00,184.88,1
264.00,169.28,1
314.00,159.78,1
305.00,157.23,1
397.00,161.01,1
354.00,170.59,1
345.00,184.25,1
395.00,200.45,1
427.00,219.14,1
484.00,240.38,1
466.00,263.97,1
473.00,288.79,1
344.00,312.59,1
407.00,333.31,1
301.00,350.10,1
446.00,363.31,1
293.00,373.61,1
280.00,379.91,1
222.00,381.03,1
222.00,377.12,1
220.00,369.03,1
126.00,357.23,1
129.00,341.41,1
66.00,321.84,1
126.00,299.56,1
55.00,275.83,1
93.00,251.33,1
86.00,227.11,1
167.00,204.75,1
129.00,185.54,1
197.00,169.94,1
206.00,158.48,1
280.00,151.85,1
343.00,150.94,1
360.00,156.17,1
359.00,166.71,1
374.00,181.18,1
360.00,198.29,1
408.00,217.14,1
386.00,237.21,1
479.00,258.34,1
428.00,280.52,1
453.00,302.87,1
413.00,324.28,1
509.00,344.62,1
376.00,363.61,1
461.00,380.26,1
189.00,392.61,1
309.00,398.49,1
237.00,398.40,1
251.00,393.64,1
226.00,384.95,1
217.00,373.20,1
121.00,358.35,1
66.00,339.53,1
64.00,316.61,1
39.00,290.65,1
74.00,263.08,1
66.00,235.48,1
94.00,209.20,1
202.00,186.08,1
246.00,168.53,1
312.00,157.92,1
347.00,154.79,1
412.00,159.03,1
395.00,169.90,1
361.00,185.55,1
396.00,203.84,1
424.00,224.03,1
430.00,245.83,1
458.00,268.69,1
459.00,292.10,1
392.00,314.84,1
410.00,335.38,1
393.00,353.17,1
392.00,368.13,1
229.00,378.92,1
328.00,384.33,1
258.00,385.19,1
252.00,382.13,1
190.00,375.03,1
145.00,363.63,1
86.00,347.66,1
159.00,327.92,1
88.00,306.10,1
48.00,282.55,1
72.00,257.35,1
63.00,231.75,1
162.00,207.59,1
113.00,186.51,1
231.00,169.45,1
344.00,158.50,1
369.00,155.61,1
391.00,160.48,1
423.00,171.92,1
408.00,188.57,1
448.00,208.96,1
410.00,231.73,1
524.00,256.22,1
474.00,282.37,1
467.00,308.93,1
358.00,333.51,1
476.00,354.87,1
327.00,372.91,1
312.00,386.20,1
312.00,393.95,1
273.00,396.82,1
280.00,395.29,1
136.00,389.08,1
120.00,377.10,1
107.00,359.57,1
178.00,338.61,1
55.00,315.79,1
59.00,290.90,1
64.00,264.31,1
63.00,237.46,1
53.00,211.19,1
82.00,186.33,1
147.00,164.29,1
186.00,146.75,1
272.00,135.09,1
226.00,129.69,1
270.00,129.50,1
430.00,135.00,1
366.00,147.10,1
460.00,164.84,1
446.00,187.30,1
437.00,213.00,1
357.00,239.33,1
459.00,264.74,1
480.00,289.83,1
536.00,315.48,1
360.00,340.35,1
441.00,362.03,1
222.00,378.62,1
361.00,388.98,1
294.00,394.18,1
225.00,394.80,1
263.00,390.52,1
127.00,381.59,1
152.00,367.68,1
46.00,348.83,1
92.00,325.73,1
77.00,299.88,1
42.00,272.70,1
118.00,245.30,1
126.00,219.70,1
192.00,197.63,1
136.00,179.66,1
214.00,165.69,1
319.00,156.90,1
350.00,154.92,1
492.00,160.82,1
390.00,174.29,1
528.00,193.65,1
457.00,217.82,1
507.00,245.13,1
437.00,273.54,1
582.00,302.31,1
426.00,330.92,1
462.00,357.38,1
395.00,380.11,1
545.00,399.66,1
334.00,416.34,1
395.00,428.53,1
269.00,435.16,1
284.00,435.89,1
299.00,431.45,1
234.00,423.06,1
224.00,410.82,1
162.00,394.89,1
112.00,375.16,1
48.00,351.40,1
90.00,324.13,1
127.00,295.64,1
66.00,267.61,1
140.00,240.73,1
153.00,216.47,1
204.00,196.24,1
248.00,181.06,1
327.00,172.06,1
325.00,169.68,1
370.00,173.42,1
432.00,182.91,1
364.00,197.25,1
365.00,214.20,1
390.00,232.25,1
487.00,251.83,1
397.00,272.96,1
535.00,294.99,1
419.00,317.61,1
482.00,339.62,1
380.00,359.68,1
455.00,377.06,1
306.00,390.99,1
367.00,400.51,1
298.00,405.57,1
273.00,406.17,1
370.00,403.26,1
185.00,397.64,1
225.00,388.17,1
122.00,374.41,1
173.00,356.88,1
135.00,336.76,1
103.00,314.87,1
81.00,291.34,1
55.00,266.49,1
144.00,241.59,1
130.00,218.59,1
163.00,198.58,1
225.00,182.43,1
276.00,171.47,1
270.00,166.12,1
338.00,166.09,1
394.00,171.62,1
430.00,182.96,1
552.00,200.58,1
415.00,223.47,1
508.00,249.09,1
423.00,275.69,1
519.00,302.27,1
585.00,329.40,1
542.00,357.62,1
410.00,384.42,1
464.00,407.15,1
355.00,424.98,1
360.00,437.12,1
257.00,442.93,1
290.00,442.36,1
280.00,436.54,1
181.00,426.18,1
126.00,410.59,1
70.00,389.27,1
111.00,363.27,1
107.00,334.85,1
106.00,305.76,1
101.00,276.97,1
91.00,249.25,1
90.00,223.04,1
170.00,199.39,1
213.00,180.13,1
292.00,166.87,1
310.00,160.45,1
371.00,160.93,1
360.00,167.61,1
418.00,179.66,1
383.00,195.95,1
518.00,215.88,1
372.00,238.65,1
487.00,262.50,1
452.00,286.83,1
506.00,311.56,1
440.00,335.79,1
479.00,358.53,1
402.00,378.84,1
416.00,395.79,1
400.00,409.10,1
357.00,418.66,1
254.00,423.36,1
215.00,421.89,1
244.00,414.45,1
115.00,401.80,1
216.00,384.60,1
77.00,363.84,1
80.00,339.80,1
52.00,312.64,1
128.00,284.21,1
169.00,257.17,1
176.00,233.43,1
123.00,212.99,1
184.00,195.42,1
260.00,181.82,1
304.00,173.82,1
275.00,171.47,1
406.00,174.40,1
378.00,182.93,1
406.00,196.29,1
357.00,212.74,1
460.00,231.23,1
313.00,250.79,1
457.00,270.11,1
441.00,289.67,1
499.00,310.13,1
419.00,330.78,1
448.00,350.31,1
336.00,367.21,1
494.00,381.26,1
306.00,392.80,1
249.00,399.79,1
299.00,400.99,1
333.00,398.40,1
259.00,393.36,1
107.00,384.47,1
109.00,369.80,1
129.00,350.18,1
126.00,327.78,1
53.00,303.48,1
44.00,277.27,1
185.00,250.81,1
151.00,227.08,1
211.00,207.31,1
212.00,191.94,1
256.00,181.29,1
295.00,175.64,1
312.00,175.16,1
410.00,180.03,1
400.00,190.47,1
518.00,206.35,1
449.00,227.20,1
499.00,251.34,1
451.00,277.09,1
474.00,302.99,1
492.00,328.28,1
487.00,352.72,1
322.00,374.41,1
380.00,390.98,1
302.00,402.12,1
359.00,408.39,1
295.00,410.52,1
263.00,408.59,1
242.00,402.39,1
198.00,392.23,1
186.00,378.33,1
58.00,360.42,1
95.00,338.17,1
65.00,312.67,1
72.00,285.35,1
157.00,258.20,1
105.00,233.09,1
144.00,210.52,1
209.00,191.38,1
252.00,177.24,1
283.00,168.87,1
299.00,166.16,1
393.00,169.14,1
383.00,178.04,1
456.00,192.23,1
465.00,211.24,1
444.00,233.93,1
407.00,258.01,1
540.00,282.67,1
446.00,308.05,1
515.00,333.27,1
403.00,356.95,1
457.00,377.85,1
272.00,394.36,1
301.00,404.60,1
266.00,408.41,1
284.00,406.98,1
229.00,401.19,1
166.00,391.00,1
164.00,376.33,1
53.00,357.19,1
70.00,333.66,1
48.00,306.78,1
60.00,278.10,1
95.00,249.31,1
52.00,221.67,1
174.00,196.41,1
168.00,175.42,1
322.00,160.58,1
314.00,153.35,1
269.00,152.83,1
367.00,157.44,1
410.00,167.44,1
392.00,182.54,1
478.00,201.82,1
428.00,224.44,1
383.00,248.39,1
454.00,272.01,1
458.00,295.42,1
589.00,319.65,1
396.00,344.33,1
436.00,366.72,1
378.00,385.21,1
361.00,399.36,1
312.00,408.57,1
285.00,412.59,1
225.00,411.16,1
172.00,403.97,1
268.00,392.09,1
115.00,376.93,1
204.00,358.72,1
77.00,338.00,1
66.00,314.61,1
64.00,288.67,1
76.00,261.60,1
117.00,235.12,1
102.00,210.63,1
302.00,190.22,1
247.00,176.31,1
365.00,169.48,1
313.00,169.37,1
429.00,175.47,1
439.00,187.57,1
422.00,204.87,1
399.00,225.14,1
386.00,246.35,1
456.00,267.77,1
465.00,289.77,1
479.00,312.30,1
396.00,334.12,1
474.00,354.07,1
424.00,372.14,1
481.00,388.47,1
363.00,402.50,1
349.00,412.71,1
261.00,417.72,1
279.00,417.25,1
246.00,411.94,1
235.00,402.60,1
294.00,390.56,1
165.00,376.65,1
134.00,359.87,1
77.00,339.31,1
87.00,315.58,1
56.00,289.67,1
146.00,263.16,1
97.00,237.98,1
104.00,214.65,1
251.00,194.41,1
238.00,179.57,1
340.00,171.17,1
351.00,169.59,1
351.00,174.36,1
433.00,184.51,1
436.00,199.74,1
497.00,219.65,1
480.00,243.30,1
471.00,269.18,1
429.00,295.24,1
510.00,320.51,1
478.00,345.04,1
512.00,368.61,1
418.00,390.20,1
466.00,408.70,1
322.00,423.07,1
494.00,433.28,1
279.00,439.84,1
170.00,440.42,1
241.00,433.46,1
187.00,420.81,1
217.00,404.07,1
59.00,383.65,1
124.00,359.29,1
120.00,332.42,1
72.00,304.65,1
94.00,276.46,1
84.00,248.74,1
85.00,222.30,1
205.00,198.66,1
188.00,179.76,1
360.00,167.20,1
309.00,162.31,1
272.00,163.52,1
425.00,169.61,1
548.00,182.58,1
539.00,203.35,1
609.00,230.82,1
487.00,262.56,1
502.00,295.22,1
435.00,326.19,1
566.00,354.96,1
490.00,382.13,1
408.00,406.30,1
386.00,425.19,1
428.00,438.72,1
326.00,447.44,1
334.00,450.93,1
350.00,449.75,1
192.00,444.07,1
280.00,433.44,1
126.00,418.21,1
61.00,397.66,1
52.00,371.34,1
94.00,341.04,1
106.00,309.56,1
122.00,278.93,1
104.00,250.15,1
170.00,224.13,1
259.00,202.76,1
279.00,187.90,1
344.00,180.00,1
339.00,178.91,1
411.00,184.10,1
480.00,195.55,1
452.00,212.84,1
537.00,234.81,1
553.00,260.91,1
475.00,289.64,1
435.00,317.89,1
517.00,344.25,1
474.00,368.96,1
539.00,392.11,1
298.00,412.03,1
345.00,425.80,1
238.00,432.30,1
353.00,432.63,1
193.00,427.95,1
229.00,418.24,1
204.00,404.14,1
79.00,385.97,1
109.00,363.26,1
48.00,336.83,1
37.00,307.61,1
60.00,276.68,1
47.00,245.65,1
166.00,216.54,1
271.00,192.66,1
302.00,176.55,1
324.00,168.46,1
376.00,167.76,1
425.00,174.16,1
504.00,187.69,1
498.00,207.83,1
414.00,232.08,1
491.00,257.96,1
459.00,284.48,1
604.00,311.89,1
336.00,339.05,1
444.00,362.69,1
244.00,380.74,1
390.00,392.76,1
330.00,400.07,1
297.00,403.45,1
246.00,402.34,1
192.00,396.28,1
199.00,385.38,1
45.00,369.59,1
101.00,348.66,1
41.00,323.64,1
62.00,295.94,1
106.00,267.33,1
116.00,240.00,1
158.00,215.39,1
138.00,194.29,1
275.00,177.68,1
346.00,167.71,1
385.00,165.87,1
436.00,171.80,1
432.00,184.54,1
424.00,202.43,1
455.00,223.71,1
499.00,247.68,1
452.00,273.52,1
582.00,300.56,1
452.00,328.33,1
709.00,356.80,1
405.00,385.49,1
445.00,410.78,1
334.00,429.84,1
309.00,441.79,1
160.00,445.40,1
251.00,440.56,1
211.00,429.48,1
112.00,413.24,1
128.00,391.77,1
60.00,366.00,1
46.00,336.60,1
104.00,305.18,1
97.00,274.10,1
227.00,245.72,1
312.00,223.19,1
326.00,208.42,1
529.00,202.82,1
411.00,206.64,1
404.00,217.17,1
421.00,231.67,1
493.00,249.50,1
240.00,268.44,1
532.00,286.43,1
444.00,305.11,1
538.00,325.44,1
463.00,346.60,1
474.00,367.26,1
297.00,384.94,1
318.00,397.05,1
291.00,403.20,1
217.00,403.70,1
302.00,399.17,1
150.00,390.53,1
196.00,377.53,1
49.00,360.00,1
37.00,337.42,1
48.00,310.43,1
80.00,281.41,1
143.00,252.95,1
178.00,227.45,1
305.00,207.19,1
275.00,193.74,1
374.00,187.32,1
383.00,187.92,1
423.00,195.11,1
431.00,207.82,1
451.00,225.09,1
496.00,245.88,1
460.00,269.24,1
580.00,294.69,1
345.00,320.53,1
498.00,344.18,1
454.00,365.63,1
494.00,385.57,1
336.00,402.66,1
315.00,414.51,1
300.00,420.24,1
219.00,420.00,1
218.00,413.79,1
128.00,401.77,1
200.00,384.89,1
64.00,364.19,1
111.00,339.97,1
118.00,313.59,1
98.00,286.82,1
160.00,260.88,1
244.00,238.01,1
287.00,220.51,1
374.00,209.81,1
421.00,206.92,1
411.00,211.29,1
383.00,221.04,1
507.00,235.10,1
440.00,253.19,1
536.00,274.42,1
483.00,298.00,1
520.00,322.86,1
487.00,347.69,1
568.00,372.13,1
447.00,395.53,1
476.00,416.26,1
385.00,432.99,1
475.00,445.61,1
287.00,453.86,1
254.00,455.90,1
227.00,450.86,1
150.00,439.11,1
206.00,421.70,1
95.00,399.90,1
130.00,374.40,1
66.00,346.15,1
67.00,316.00,1
135.00,285.43,1
176.00,256.97,1
200.00,232.52,1
192.00,212.59,1
298.00,197.75,1
377.00,189.54,1
370.00,188.74,1
358.00,194.03,1
429.00,204.28,1
488.00,219.48,1
486.00,239.48,1
455.00,262.69,1
507.00,287.44,1
542.00,313.38,1
433.00,339.52,1
500.00,363.94,1
422.00,385.82,1
394.00,404.05,1
281.00,416.86,1
259.00,422.74,1
207.00,421.48,1
211.00,413.86,1
253.00,401.56,1
78.00,385.49,1
186.00,365.47,1
56.00,342.29,1
69.00,316.40,1
70.00,288.45,1
86.00,260.03,1
148.00,233.07,1
186.00,209.57,1
231.00,190.99,1
283.00,178.31,1
378.00,172.58,1
424.00,174.69,1
328.00,183.54,1
466.00,197.07,1
421.00,214.84,1
448.00,235.80,1
386.00,258.02,1
492.00,280.60,1
420.00,303.30,1
516.00,325.80,1
399.00,347.46,1
376.00,366.40,1
335.00,380.95,1
216.00,389.76,1
272.00,392.13,1
133.00,388.36,1
236.00,378.91,1
75.00,364.80,1
173.00,346.57,1
69.00,325.33,1
62.00,301.47,1
39.00,275.29,1
186.00,249.00,1
110.00,225.08,1
352.00,205.74,1
266.00,193.16,1
264.00,186.80,1
389.00,185.58,1
402.00,190.43,1
436.00,201.36,1
447.00,217.25,1
433.00,236.71,1
505.00,258.79,1
452.00,282.68,1
501.00,307.28,1
398.00,331.19,1
515.00,353.38,1
418.00,373.81,1
412.00,391.55,1
351.00,405.23,1
371.00,414.52,1
345.00,419.72,1
262.00,420.72,1
212.00,416.53,1
84.00,405.87,1
190.00,388.98,1
66.00,367.70,1
94.00,342.84,1
54.00,315.16,1
50.00,285.79,1
119.00,256.26,1
123.00,228.76,1
193.00,204.91,1
185.00,185.77,1
353.00,172.68,1
316.00,167.13,1
312.00,168.13,1
401.00,174.47,1
323.00,185.51,1
444.00,200.16,1
462.00,218.57,1
528.00,241.08,1
488.00,266.84,1
516.00,294.36,1
457.00,321.95,1
456.00,347.88,1
355.00,370.33,1
356.00,387.68,1
284.00,399.18,1
258.00,404.46,1
198.00,403.22,1
152.00,395.57,1
107.00,381.69,1
127.00,362.55,1
151.00,340.26,1
40.00,315.96,1
56.00,289.33,1
120.00,261.81,1
140.00,235.82,1
115.00,212.51,1
296.00,193.30,1
304.00,180.70,1
356.00,175.65,1
403.00,177.82,1
542.00,187.71,1
460.00,205.35,1
471.00,228.03,1
499.00,253.48,1
472.00,280.56,1
358.00,306.78,1
528.00,330.78,1
410.00,353.18,1
398.00,372.95,1
283.00,387.92,1
328.00,397.11,1
260.00,400.85,1
262.00,399.54,1
158.00,393.09,1
139.00,381.08,1
193.00,364.44,1
44.00,344.38,1
48.00,320.42,1
83.00,293.35,1
167.00,266.17,1
156.00,241.46,1
166.00,220.03,1
215.00,202.29,1
321.00,189.72,1
434.00,184.69,1
475.00,188.53,1
451.00,200.41,1
558.00,218.98,1
562.00,243.48,1
536.00,272.54,1
485.00,303.14,1
494.00,332.94,1
440.00,360.44,1
521.00,385.08,1
403.00,406.65,1
501.00,424.70,1
243.00,437.97,1
264.00,443.84,1
330.00,442.60,1
181.00,436.19,1
131.00,423.66,1
52.00,404.03,1
155.00,378.87,1
100.00,351.03,1
93.00,321.92,1
125.00,292.50,1
214.00,265.05,1
212.00,241.77,1
241.00,223.35,1
340.00,210.49,1
374.00,204.55,1
408.00,205.59,1
441.00,213.01,1
358.00,225.19,1
443.00,240.27,1
428.00,257.63,1
575.00,277.75,1
487.00,300.91,1
545.00,325.85,1
407.00,350.40,1
588.00,373.57,1
359.00,394.89,1
533.00,413.23,1
299.00,427.75,1
391.00,437.20,1
324.00,441.56,1
410.00,442.25,1
310.00,440.13,1
207.00,434.11,1
234.00,423.07,1
71.00,406.63,1
54.00,384.19,1
50.00,356.20,1
72.00,324.89,1
136.00,293.04,1
150.00,263.20,1
258.00,237.57,1
285.00,218.13,1
302.00,205.52,1
405.00,199.94,1
438.00,201.98,1
562.00,212.30,1
497.00,230.19,1
688.00,254.74,1
500.00,284.83,1
540.00,316.75,1
380.00,346.73,1
542.00,373.29,1
368.00,396.27,1
450.00,414.91,1
303.00,428.31,1
338.00,435.84,1
273.00,437.46,1
251.00,433.62,1
288.00,425.15,1
134.00,412.63,1
189.00,395.67,1
59.00,374.41,1
45.00,348.82,1
43.00,319.39,1
85.00,288.27,1
71.00,257.40,1
166.00,228.69,1
90.00,203.38,1
182.00,181.80,1
261.00,165.31,1
334.00,155.88,1
290.00,153.62,1
403.00,157.71,1
449.00,168.41,1
449.00,185.43,1
491.00,207.44,1
481.00,233.12,1
508.00,261.20,1
521.00,290.71,1
531.00,320.76,1
585.00,350.99,1
455.00,380.25,1
400.00,405.57,1
348.00,424.59,1
285.00,436.38,1
282.00,440.75,1
204.00,438.06,1
211.00,428.91,1
92.00,413.66,1
92.00,392.27,1
48.00,365.66,1
173.00,336.24,1
218.00,307.76,1
254.00,283.08,1
328.00,263.74,1
317.00,250.49,1
398.00,243.40,1
391.00,242.50,1
420.00,247.06,1
472.00,256.40,1
454.00,270.14,1
517.00,287.30,1
530.00,307.57,1
687.00,331.54,1
495.00,358.68,1
568.00,386.05,1
436.00,411.18,1
493.00,432.65,1
362.00,449.38,1
341.00,460.02,1
316.00,464.06,1
237.00,461.75,1
149.00,452.31,1
166.00,435.98,1
172.00,414.50,1
98.00,389.36,1
118.00,361.34,1
46.00,331.20,1
108.00,299.90,1
171.00,269.78,1
219.00,243.49,1
276.00,222.80,1
295.00,208.55,1
370.00,201.04,1
493.00,201.47,1
521.00,210.63,1
494.00,227.41,1
528.00,249.58,1
516.00,275.30,1
481.00,302.62,1
529.00,330.04,1
458.00,356.49,1
541.00,381.24,1
412.00,403.58,1
486.00,422.52,1
367.00,437.39,1
291.00,446.74,1
202.00,448.54,1
299.00,443.24,1
225.00,433.07,1
161.00,418.52,1
195.00,399.68,1
71.00,377.31,1
