83.00,62.23,0
.00,41.25,0
74.00,42.57,0
88.00,44.61,0
107.00,47.63,0
117.00,51.82,0
91.00,56.86,0
86.00,61.99,0
106.00,66.89,0
179.00,72.33,0
105.00,78.79,0
120.00,85.31,0
81.00,90.96,0
99.00,95.39,0
83.00,98.60,0
119.00,100.94,0
75.00,102.66,0
80.00,103.45,0
90.00,103.31,0
78.00,102.59,0
72.00,101.27,0
51.00,99.18,0
58.00,96.21,0
73.00,92.76,0
55.00,89.21,0
37.00,85.38,0
82.00,81.40,0
37.00,77.64,0
43.00,73.87,0
50.00,70.00,0
47.00,66.31,0
119.00,63.49,0
63.00,62.12,0
69.00,61.61,0
75.00,61.48,0
61.00,61.65,0
99.00,62.19,0
111.00,63.60,0
102.00,66.05,0
83.00,69.03,0
101.00,72.05,0
121.00,75.32,0
195.00,79.76,0
97.00,85.51,0
135.00,91.39,0
78.00,96.51,0
101.00,100.45,0
99.00,103.26,0
88.00,105.18,0
114.00,106.38,0
82.00,107.06,0
49.00,106.75,0
98.00,105.29,0
71.00,103.30,0
50.00,100.78,0
53.00,97.38,0
56.00,93.31,0
41.00,88.84,0
38.00,83.97,0
36.00,78.76,0
52.00,73.54,0
57.00,68.77,0
48.00,64.64,0
59.00,61.12,0
105.00,58.66,0
76.00,57.69,0
82.00,57.84,0
174.00,59.47,0
84.00,62.98,0
113.00,67.33,0
78.00,71.62,0
103.00,75.59,0
108.00,79.34,0
172.00,83.63,0
117.00,88.84,0
110.00,94.13,0
79.00,98.48,0
100.00,101.58,0
100.00,103.71,0
152.00,105.63,0
126.00,107.97,0
110.00,110.43,0
100.00,112.34,0
73.00,113.24,0
89.00,112.96,0
64.00,111.63,0
72.00,109.32,0
54.00,106.12,0
71.00,102.26,0
123.00,98.59,0
36.00,95.45,0
37.00,91.84,0
81.00,87.63,0
39.00,83.51,0
34.00,79.21,0
75.00,74.83,0
75.00,71.17,0
89.00,68.63,0
127.00,67.57,0
97.00,68.15,0
96.00,69.78,0
94.00,71.88,0
105.00,74.31,0
102.00,77.05,0
110.00,80.05,0
96.00,83.13,0
95.00,86.01,0
106.00,88.59,0
109.00,91.06,0
111.00,93.52,0
111.00,95.95,0
85.00,98.08,0
102.00,99.62,0
102.00,100.73,0
123.00,101.79,0
71.00,102.69,0
72.00,102.77,0
72.00,101.81,0
62.00,100.01,0
76.00,97.59,0
59.00,94.78,0
49.00,91.53,0
36.00,87.63,0
48.00,83.16,0
51.00,78.53,0
35.00,73.94,0
48.00,69.42,0
80.00,65.42,0
45.00,62.32,0
41.00,59.64,0
70.00,57.27,0
82.00,55.74,0
110.00,55.57,0
126.00,57.14,0
85.00,60.15,0
101.00,63.72,0
86.00,67.41,0
123.00,71.26,0
98.00,75.38,0
164.00,80.00,0
93.00,85.14,0
84.00,89.83,0
98.00,93.39,0
139.00,96.47,0
106.00,99.61,0
105.00,102.47,0
75.00,104.49,0
83.00,105.37,0
77.00,105.19,0
106.00,104.41,0
41.00,103.10,0
58.00,100.72,0
67.00,97.45,0
39.00,93.64,0
36.00,89.15,0
72.00,84.31,0
42.00,79.69,0
38.00,75.14,0
34.00,70.46,0
58.00,65.93,0
68.00,62.11,0
67.00,59.32,0
73.00,57.50,0
105.00,56.84,0
110.00,57.72,0
90.00,59.90,0
108.00,62.85,0
50.00,65.96,0
121.00,68.86,0
96.00,71.99,0
127.00,75.62,0
82.00,79.45,0
105.00,83.00,0
121.00,86.37,0
132.00,90.03,0
93.00,93.79,0
99.00,97.00,0
84.00,99.33,0
83.00,100.71,0
75.00,101.10,0
131.00,101.07,0
63.00,101.01,0
52.00,100.17,0
59.00,98.09,0
46.00,95.05,0
41.00,91.18,0
88.00,87.02,0
46.00,83.15,0
45.00,79.33,0
86.00,75.63,0
77.00,72.74,0
56.00,70.59,0
82.00,68.86,0
66.00,67.64,0
57.00,66.71,0
127.00,66.34,0
80.00,67.10,0
92.00,68.59,0
80.00,70.30,0
127.00,72.40,0
109.00,75.28,0
175.00,79.27,0
116.00,84.45,0
127.00,90.01,0
60.00,94.82,0
108.00,98.28,0
90.00,100.68,0
143.00,102.73,0
104.00,104.86,0
73.00,106.52,0
66.00,106.87,0
74.00,105.92,0
80.00,104.12,0
53.00,101.68,0
54.00,98.45,0
47.00,94.47,0
77.00,90.18,0
36.00,85.90,0
34.00,81.32,0
71.00,76.60,0
55.00,72.39,0
84.00,69.00,0
118.00,66.94,0
80.00,66.47,0
91.00,66.97,0
82.00,67.98,0
67.00,69.16,0
79.00,70.21,0
176.00,72.00,0
99.00,75.34,0
92.00,79.24,0
112.00,82.85,0
139.00,86.61,0
112.00,90.75,0
111.00,94.82,0
98.00,98.34,0
119.00,101.29,0
111.00,103.87,0
149.00,106.45,0
100.00,109.09,0
88.00,111.11,0
92.00,112.02,0
68.00,111.82,0
84.00,110.55,0
67.00,108.44,0
67.00,105.61,0
39.00,101.96,0
50.00,97.43,0
68.00,92.49,0
38.00,87.53,0
36.00,82.36,0
88.00,77.35,0
53.00,73.17,0
54.00,69.62,0
73.00,66.56,0
53.00,64.12,0
84.00,62.33,0
84.00,61.41,0
92.00,61.53,0
79.00,62.46,0
97.00,63.97,0
113.00,66.19,0
103.00,69.20,0
105.00,72.71,0
69.00,76.13,0
116.00,79.18,0
107.00,82.25,0
119.00,85.58,0
106.00,89.00,0
121.00,92.39,0
80.00,95.45,0
120.00,97.94,0
106.00,100.11,0
140.00,102.35,0
64.00,104.39,0
72.00,105.30,0
84.00,104.92,0
44.00,103.49,0
53.00,100.84,0
98.00,97.56,0
59.00,94.38,0
44.00,91.00,0
60.00,87.14,0
57.00,83.15,0
36.00,79.11,0
66.00,75.04,0
59.00,71.34,0
96.00,68.48,0
64.00,66.66,0
103.00,65.78,0
100.00,65.99,0
112.00,67.41,0
85.00,69.63,0
89.00,72.07,0
103.00,74.57,0
78.00,77.09,0
115.00,79.55,0
116.00,82.29,0
112.00,85.44,0
96.00,88.62,0
92.00,91.37,0
74.00,93.37,0
80.00,94.44,0
84.00,94.76,0
88.00,94.64,0
78.00,94.22,0
59.00,93.29,0
51.00,91.54,0
76.00,89.15,0
37.00,86.38,0
83.00,83.34,0
53.00,80.39,0
36.00,77.35,0
51.00,73.93,0
62.00,70.54,0
82.00,67.75,0
50.00,65.68,0
59.00,63.93,0
74.00,62.48,0
80.00,61.69,0
90.00,61.73,0
97.00,62.68,0
96.00,64.46,0
102.00,66.91,0
78.00,69.68,0
158.00,72.92,0
105.00,77.10,0
84.00,81.48,0
82.00,85.04,0
150.00,88.23,0
81.00,91.57,0
105.00,94.52,0
85.00,96.75,0
98.00,98.34,0
67.00,99.17,0
83.00,99.12,0
82.00,98.41,0
108.00,97.56,0
57.00,96.62,0
43.00,94.90,0
61.00,92.16,0
43.00,88.74,0
53.00,84.88,0
68.00,80.93,0
38.00,77.13,0
38.00,73.20,0
41.00,69.07,0
77.00,65.28,0
50.00,62.27,0
66.00,59.93,0
76.00,58.30,0
72.00,57.52,0
71.00,57.44,0
88.00,57.97,0
104.00,59.35,0
69.00,61.45,0
174.00,64.46,0
94.00,68.83,0
131.00,73.94,0
86.00,79.03,0
112.00,83.72,0
84.00,87.77,0
78.00,90.90,0
89.00,93.00,0
113.00,94.57,0
70.00,95.82,0
85.00,96.39,0
81.00,96.29,0
73.00,95.68,0
97.00,94.73,0
40.00,93.41,0
81.00,91.45,0
50.00,89.02,0
35.00,86.01,0
72.00,82.45,0
46.00,78.88,0
63.00,75.43,0
53.00,72.17,0
72.00,69.30,0
55.00,66.92,0
92.00,65.16,0
92.00,64.41,0
79.00,64.64,0
120.00,65.76,0
88.00,67.80,0
122.00,70.57,0
83.00,73.78,0
114.00,77.11,0
87.00,80.38,0
115.00,83.53,0
87.00,86.51,0
102.00,89.15,0
101.00,91.44,0
91.00,93.43,0
92.00,94.94,0
81.00,95.90,0
77.00,96.19,0
58.00,95.65,0
36.00,93.96,0
74.00,91.26,0
45.00,88.08,0
43.00,84.46,0
70.00,80.58,0
35.00,76.76,0
73.00,73.09,0
53.00,69.81,0
57.00,66.96,0
86.00,64.68,0
68.00,63.25,0
83.00,62.61,0
54.00,62.43,0
109.00,62.71,0
95.00,63.89,0
76.00,65.78,0
118.00,68.05,0
104.00,70.98,0
150.00,74.80,0
114.00,79.51,0
116.00,84.54,0
92.00,89.20,0
110.00,93.18,0
92.00,96.46,0
110.00,99.11,0
86.00,101.13,0
98.00,102.46,0
81.00,103.08,0
35.00,102.58,0
53.00,100.48,0
46.00,97.12,0
46.00,92.94,0
35.00,88.11,0
41.00,82.83,0
66.00,77.59,0
52.00,72.90,0
37.00,68.64,0
61.00,64.68,0
75.00,61.46,0
82.00,59.41,0
86.00,58.57,0
130.00,59.17,0
146.00,61.75,0
102.00,66.00,0
76.00,70.56,0
91.00,74.55,0
105.00,78.12,0
137.00,81.86,0
100.00,85.96,0
136.00,90.14,0
94.00,94.18,0
101.00,97.66,0
88.00,100.25,0
96.00,101.98,0
100.00,103.07,0
121.00,103.94,0
85.00,104.69,0
78.00,104.85,0
65.00,104.04,0
50.00,102.12,0
81.00,99.33,0
38.00,95.99,0
64.00,92.12,0
35.00,87.79,0
44.00,83.07,0
54.00,78.20,0
34.00,73.45,0
70.00,69.00,0
52.00,65.21,0
90.00,62.36,0
59.00,60.53,0
90.00,59.62,0
112.00,59.84,0
101.00,61.45,0
73.00,63.84,0
122.00,66.59,0
102.00,69.93,0
113.00,73.78,0
104.00,77.84,0
100.00,81.82,0
107.00,85.55,0
105.00,89.01,0
155.00,92.59,0
100.00,96.51,0
117.00,100.19,0
75.00,103.06,0
108.00,104.93,0
90.00,106.03,0
106.00,106.61,0
71.00,106.61,0
54.00,105.59,0
68.00,103.37,0
51.00,100.26,0
60.00,96.50,0
35.00,92.16,0
48.00,87.29,0
38.00,82.10,0
40.00,76.79,0
51.00,71.61,0
40.00,66.81,0
74.00,62.65,0
90.00,59.72,0
102.00,58.44,0
72.00,58.56,0
81.00,59.41,0
97.00,60.84,0
94.00,62.95,0
140.00,65.99,0
79.00,69.87,0
95.00,73.75,0
85.00,77.19,0
120.00,80.44,0
51.00,83.35,0
112.00,85.57,0
103.00,87.55,0
94.00,89.58,0
78.00,91.20,0
113.00,92.42,0
100.00,93.64,0
138.00,95.19,0
62.00,96.84,0
69.00,97.64,0
76.00,97.29,0
39.00,95.96,0
44.00,93.41,0
38.00,89.77,0
37.00,85.31,0
36.00,80.32,0
80.00,75.44,0
59.00,71.34,0
47.00,67.89,0
67.00,64.84,0
66.00,62.42,0
68.00,60.74,0
75.00,59.73,0
103.00,59.64,0
105.00,60.79,0
99.00,63.05,0
116.00,66.14,0
112.00,69.97,0
100.00,74.19,0
86.00,78.25,0
80.00,81.65,0
98.00,84.38,0
109.00,86.84,0
66.00,89.00,0
96.00,90.49,0
89.00,91.49,0
82.00,92.17,0
85.00,92.44,0
78.00,92.31,0
91.00,91.91,0
80.00,91.37,0
75.00,90.64,0
52.00,89.43,0
72.00,87.63,0
120.00,85.97,0
40.00,84.78,0
38.00,83.04,0
89.00,80.67,0
58.00,78.46,0
46.00,76.26,0
77.00,73.94,0
61.00,71.90,0
80.00,70.27,0
111.00,69.45,0
98.00,69.86,0
79.00,71.04,0
76.00,72.33,0
106.00,73.70,0
106.00,75.56,0
104.00,77.96,0
95.00,80.58,0
76.00,82.97,0
96.00,84.88,0
106.00,86.61,0
126.00,88.65,0
94.00,91.00,0
94.00,93.15,0
80.00,94.70,0
48.00,95.23,0
78.00,94.59,0
75.00,93.28,0
41.00,91.42,0
72.00,88.88,0
39.00,85.86,0
35.00,82.26,0
91.00,78.45,0
35.00,75.04,0
178.00,72.77,0
50.00,72.28,0
58.00,72.30,0
43.00,71.65,0
75.00,70.61,0
54.00,69.52,0
62.00,68.43,0
118.00,67.78,0
81.00,68.17,0
97.00,69.35,0
179.00,71.69,0
134.00,75.94,0
36.00,80.66,0
138.00,84.42,0
75.00,87.69,0
116.00,90.61,0
78.00,93.02,0
94.00,94.80,0
93.00,95.98,0
123.00,97.04,0
91.00,98.19,0
71.00,98.93,0
75.00,98.76,0
66.00,97.76,0
72.00,96.06,0
47.00,93.73,0
68.00,90.80,0
49.00,87.49,0
61.00,83.96,0
88.00,80.65,0
36.00,77.72,0
38.00,74.55,0
43.00,70.97,0
64.00,67.45,0
68.00,64.53,0
75.00,62.44,0
68.00,61.17,0
88.00,60.64,0
82.00,60.93,0
88.00,61.94,0
64.00,63.33,0
81.00,64.74,0
104.00,66.40,0
96.00,68.65,0
130.00,71.60,0
86.00,75.13,0
105.00,78.69,0
74.00,81.85,0
114.00,84.58,0
100.00,87.19,0
102.00,89.72,0
84.00,91.89,0
83.00,93.42,0
70.00,94.13,0
64.00,93.93,0
61.00,92.82,0
66.00,90.99,0
38.00,88.50,0
42.00,85.20,0
71.00,81.48,0
34.00,77.76,0
61.00,74.01,0
55.00,70.46,0
47.00,67.23,0
56.00,64.25,0
67.00,61.73,0
71.00,59.92,0
74.00,58.91,0
88.00,58.73,0
76.00,59.35,0
81.00,60.53,0
93.00,62.15,0
84.00,64.23,0
102.00,66.68,0
88.00,69.45,0
114.00,72.49,0
81.00,75.69,0
110.00,78.81,0
85.00,81.77,0
98.00,84.44,0
78.00,86.64,0
103.00,88.40,0
66.00,89.70,0
76.00,90.31,0
67.00,90.14,0
57.00,89.24,0
68.00,87.67,0
49.00,85.58,0
59.00,83.03,0
94.00,80.50,0
47.00,78.34,0
46.00,76.04,0
49.00,73.34,0
80.00,70.71,0
35.00,68.39,0
67.00,66.16,0
72.00,64.27,0
66.00,63.00,0
92.00,62.40,0
89.00,62.69,0
91.00,63.81,0
90.00,65.54,0
106.00,67.80,0
102.00,70.63,0
103.00,73.86,0
89.00,77.15,0
102.00,80.27,0
105.00,83.27,0
101.00,86.21,0
95.00,88.92,0
112.00,91.37,0
102.00,93.69,0
100.00,95.79,0
72.00,97.32,0
62.00,97.79,0
90.00,97.29,0
74.00,96.31,0
71.00,94.93,0
42.00,92.88,0
48.00,89.95,0
45.00,86.25,0
50.00,82.14,0
39.00,77.82,0
41.00,73.37,0
44.00,68.92,0
38.00,64.64,0
80.00,60.90,0
71.00,58.28,0
86.00,56.91,0
74.00,56.60,0
79.00,57.07,0
84.00,58.16,0
86.00,59.81,0
94.00,61.98,0
109.00,64.74,0
126.00,68.32,0
102.00,72.61,0
111.00,77.10,0
75.00,81.27,0
93.00,84.68,0
75.00,87.24,0
123.00,89.34,0
88.00,91.36,0
88.00,93.07,0
74.00,94.09,0
78.00,94.34,0
70.00,93.90,0
48.00,92.66,0
47.00,90.43,0
42.00,87.26,0
49.00,83.46,0
47.00,79.36,0
36.00,75.11,0
40.00,70.71,0
66.00,66.53,0
52.00,63.01,0
50.00,60.07,0
78.00,57.75,0
58.00,56.26,0
99.00,55.68,0
123.00,56.52,0
94.00,58.91,0
81.00,62.02,0
87.00,65.16,0
76.00,68.13,0
84.00,70.80,0
106.00,73.38,0
94.00,76.14,0
88.00,78.87,0
112.00,81.50,0
181.00,84.86,0
89.00,89.26,0
110.00,93.53,0
79.00,96.89,0
104.00,99.32,0
86.00,100.96,0
143.00,102.34,0
99.00,103.90,0
78.00,105.10,0
64.00,105.19,0
72.00,104.07,0
50.00,101.92,0
44.00,98.71,0
54.00,94.60,0
35.00,89.90,0
36.00,84.68,0
64.00,79.34,0
44.00,74.37,0
53.00,69.84,0
104.00,66.18,0
68.00,63.93,0
64.00,62.63,0
76.00,61.81,0
66.00,61.48,0
93.00,61.67,0
129.00,62.94,0
79.00,65.38,0
112.00,68.37,0
80.00,71.55,0
113.00,74.78,0
112.00,78.21,0
100.00,81.85,0
81.00,85.16,0
91.00,87.77,0
88.00,89.76,0
110.00,91.42,0
99.00,93.03,0
78.00,94.36,0
87.00,95.08,0
48.00,94.95,0
52.00,93.67,0
58.00,91.33,0
46.00,88.32,0
46.00,84.72,0
53.00,80.75,0
35.00,76.62,0
34.00,72.24,0
40.00,67.70,0
42.00,63.31,0
37.00,59.21,0
66.00,55.64,0
102.00,53.32,0
54.00,52.48,0
78.00,52.47,0
85.00,53.17,0
90.00,54.73,0
160.00,57.62,0
93.00,62.05,0
90.00,66.96,0
77.00,71.37,0
102.00,75.23,0
87.00,78.71,0
127.00,82.08,0
92.00,85.51,0
99.00,88.68,0
106.00,91.42,0
103.00,93.91,0
73.00,95.88,0
82.00,96.94,0
75.00,97.13,0
64.00,96.51,0
78.00,95.17,0
68.00,93.38,0
62.00,91.22,0
48.00,88.55,0
50.00,85.31,0
40.00,81.57,0
46.00,77.48,0
81.00,73.58,0
55.00,70.35,0
37.00,67.46,0
58.00,64.58,0
75.00,62.14,0
76.00,60.57,0
92.00,60.03,0
78.00,60.43,0
88.00,61.50,0
93.00,63.16,0
81.00,65.26,0
104.00,67.66,0
63.00,70.16,0
119.00,72.62,0
81.00,75.24,0
100.00,77.90,0
80.00,80.32,0
110.00,82.57,0
82.00,84.70,0
129.00,86.85,0
80.00,89.09,0
82.00,90.91,0
72.00,91.90,0
64.00,92.02,0
87.00,91.43,0
79.00,90.58,0
58.00,89.44,0
52.00,87.67,0
81.00,85.43,0
40.00,83.01,0
37.00,80.07,0
36.00,76.43,0
40.00,72.37,0
44.00,68.22,0
76.00,64.50,0
54.00,61.60,0
53.00,59.32,0
76.00,57.58,0
118.00,57.02,0
105.00,58.16,0
65.00,60.35,0
75.00,62.58,0
138.00,65.12,0
93.00,68.58,0
132.00,72.71,0
110.00,77.31,0
96.00,81.96,0
97.00,86.09,0
109.00,89.67,0
83.00,92.72,0
95.00,95.03,0
107.00,96.79,0
111.00,98.39,0
102.00,99.92,0
55.00,100.84,0
70.00,100.53,0
54.00,99.02,0
55.00,96.52,0
51.00,93.20,0
42.00,89.25,0
55.00,84.86,0
61.00,80.47,0
42.00,76.29,0
38.00,72.10,0
71.00,68.09,0
47.00,64.67,0
88.00,62.03,0
110.00,60.73,0
92.00,61.03,0
110.00,62.59,0
87.00,65.00,0
99.00,67.85,0
88.00,70.84,0
160.00,74.38,0
96.00,78.76,0
113.00,83.34,0
78.00,87.37,0
98.00,90.57,0
97.00,93.08,0
134.00,95.43,0
80.00,97.74,0
94.00,99.47,0
68.00,100.27,0
85.00,100.17,0
76.00,99.37,0
87.00,98.15,0
45.00,96.42,0
44.00,93.75,0
65.00,90.27,0
47.00,86.47,0
40.00,82.37,0
36.00,77.88,0
55.00,73.28,0
46.00,68.94,0
45.00,64.96,0
53.00,61.34,0
52.00,58.25,0
88.00,55.99,0
76.00,54.94,0
95.00,55.10,0
87.00,56.31,0
82.00,58.26,0
79.00,60.54,0
92.00,63.02,0
164.00,66.34,0
104.00,70.98,0
120.00,76.23,0
108.00,81.43,0
103.00,86.32,0
90.00,90.52,0
100.00,93.88,0
79.00,96.38,0
80.00,97.90,0
97.00,98.58,0
111.00,99.03,0
49.00,99.14,0
48.00,98.07,0
67.00,95.74,0
50.00,92.74,0
51.00,89.20,0
58.00,85.29,0
41.00,81.21,0
34.00,76.87,0
67.00,72.49,0
44.00,68.52,0
42.00,64.86,0
76.00,61.62,0
54.00,59.17,0
100.00,57.71,0
127.00,57.83,0
80.00,59.58,0
90.00,62.06,0
76.00,64.67,0
90.00,67.25,0
41.00,69.45,0
172.00,71.67,0
98.00,74.98,0
105.00,78.92,0
85.00,82.55,0
91.00,85.61,0
102.00,88.15,0
108.00,90.50,0
82.00,92.60,0
86.00,94.09,0
70.00,94.80,0
80.00,94.73,0
79.00,94.10,0
41.00,92.82,0
67.00,90.66,0
50.00,87.89,0
64.00,84.79,0
82.00,81.78,0
53.00,79.11,0
48.00,76.42,0
95.00,73.86,0
38.00,71.76,0
38.00,69.51,0
52.00,66.88,0
40.00,64.18,0
80.00,61.75,0
72.00,60.12,0
91.00,59.50,0
70.00,59.74,0
74.00,60.47,0
92.00,61.58,0
98.00,63.34,0
127.00,66.00,0
79.00,69.42,0
115.00,73.03,0
75.00,76.53,0
102.00,79.69,0
68.00,82.33,0
97.00,84.38,0
88.00,86.04,0
88.00,87.44,0
70.00,88.38,0
101.00,88.88,0
96.00,89.37,0
66.00,89.76,0
69.00,89.54,0
50.00,88.52,0
55.00,86.66,0
85.00,84.41,0
47.00,82.16,0
38.00,79.52,0
54.00,76.35,0
43.00,72.97,0
39.00,69.48,0
70.00,66.11,0
69.00,63.41,0
80.00,61.64,0
135.00,61.26,0
84.00,62.53,0
81.00,64.60,0
78.00,66.71,0
95.00,68.85,0
91.00,71.17,0
137.00,74.00,0
98.00,77.54,0
126.00,81.46,0
77.00,85.27,0
110.00,88.57,0
96.00,91.40,0
98.00,93.84,0
84.00,95.70,0
81.00,96.81,0
81.00,97.16,0
104.00,97.09,0
90.00,96.95,0
85.00,96.70,0
65.00,95.99,0
46.00,94.44,0
41.00,91.79,0
119.00,88.78,0
43.00,86.22,0
40.00,83.46,0
85.00,80.31,0
58.00,77.47,0
46.00,74.80,0
73.00,72.14,0
48.00,69.72,0
77.00,67.60,0
95.00,66.22,0
82.00,65.86,0
76.00,66.18,0
69.00,66.74,0
90.00,67.47,0
75.00,68.47,0
156.00,70.23,0
96.00,73.23,0
101.00,76.80,0
92.00,80.19,0
123.00,83.49,0
90.00,86.77,0
92.00,89.65,0
88.00,91.87,0
104.00,93.60,0
80.00,94.93,0
146.00,96.19,0
73.00,97.64,0
81.00,98.60,0
66.00,98.57,0
40.00,97.35,0
40.00,94.76,0
66.00,91.20,0
50.00,87.32,0
35.00,83.14,0
54.00,78.66,0
45.00,74.20,0
45.00,69.92,0
66.00,66.02,0
59.00,62.82,0
60.00,60.33,0
106.00,58.80,0
100.00,58.78,0
93.00,60.11,0
80.00,62.16,0
91.00,64.51,0
94.00,67.11,0
194.00,70.78,0
93.00,75.97,0
102.00,81.38,0
91.00,86.01,0
113.00,89.96,0
69.00,93.18,0
109.00,95.53,0
106.00,97.40,0
105.00,99.12,0
67.00,100.32,0
52.00,100.32,0
80.00,99.07,0
118.00,97.57,0
69.00,96.38,0
45.00,94.78,0
72.00,92.34,0
37.00,89.29,0
36.00,85.54,0
67.00,81.30,0
43.00,77.16,0
49.00,73.13,0
62.00,69.33,0
51.00,66.00,0
50.00,63.06,0
68.00,60.55,0
92.00,58.94,0
85.00,58.55,0
106.00,59.36,0
97.00,61.26,0
87.00,63.90,0
75.00,66.64,0
119.00,69.47,0
100.00,72.73,0
105.00,76.31,0
109.00,79.98,0
87.00,83.50,0
79.00,86.41,0
108.00,88.69,0
74.00,90.53,0
129.00,92.13,0
64.00,93.56,0
65.00,94.23,0
56.00,93.69,0
50.00,92.05,0
68.00,89.62,0
41.00,86.69,0
57.00,83.31,0
35.00,79.56,0
41.00,75.47,0
54.00,71.29,0
47.00,67.37,0
60.00,63.89,0
123.00,61.52,0
56.00,60.68,0
59.00,60.46,0
76.00,60.36,0
100.00,60.86,0
78.00,62.14,0
118.00,64.17,0
85.00,66.88,0
115.00,70.06,0
106.00,73.63,0
117.00,77.57,0
96.00,81.61,0
97.00,85.33,0
96.00,88.53,0
69.00,90.99,0
88.00,92.52,0
134.00,93.75,0
87.00,95.25,0
87.00,96.50,0
77.00,97.05,0
66.00,96.80,0
82.00,95.81,0
96.00,94.59,0
62.00,93.31,0
46.00,91.46,0
54.00,88.75,0
39.00,85.36,0
40.00,81.39,0
35.00,76.96,0
41.00,72.29,0
49.00,67.71,0
59.00,63.64,0
75.00,60.44,0
85.00,58.44,0
69.00,57.57,0
145.00,58.03,0
84.00,60.15,0
98.00,63.16,0
74.00,66.28,0
90.00,69.23,0
73.00,71.89,0
158.00,74.79,0
105.00,78.61,0
109.00,82.86,0
75.00,86.64,0
96.00,89.59,0
79.00,91.72,0
155.00,93.70,0
98.00,96.12,0
77.00,98.31,0
72.00,99.41,0
66.00,99.34,0
77.00,98.32,0
47.00,96.51,0
77.00,93.99,0
41.00,90.97,0
39.00,87.30,0
44.00,82.98,0
35.00,78.28,0
40.00,73.39,0
57.00,68.66,0
75.00,64.70,0
119.00,62.24,0
70.00,61.47,0
60.00,61.49,0
77.00,61.68,0
50.00,61.97,0
110.00,62.51,0
147.00,64.30,0
108.00,67.77,0
106.00,72.03,0
84.00,76.23,0
102.00,80.01,0
101.00,83.45,0
109.00,86.72,0
89.00,89.71,0
96.00,92.18,0
85.00,94.04,0
77.00,95.18,0
85.00,95.57,0
73.00,95.36,0
84.00,94.64,0
60.00,93.45,0
79.00,91.79,0
39.00,89.62,0
40.00,86.64,0
77.00,83.13,0
48.00,79.72,0
35.00,76.21,0
69.00,72.56,0
55.00,69.28,0
43.00,66.33,0
48.00,63.46,0
84.00,61.02,0
83.00,59.62,0
68.00,59.22,0
102.00,59.60,0
85.00,60.87,0
98.00,62.89,0
107.00,65.54,0
102.00,68.82,0
115.00,72.56,0
98.00,76.56,0
93.00,80.40,0
95.00,83.79,0
127.00,86.99,0
85.00,90.13,0
93.00,92.76,0
75.00,94.55,0
78.00,95.45,0
80.00,95.55,0
77.00,95.07,0
64.00,94.03,0
53.00,92.27,0
75.00,89.92,0
82.00,87.51,0
58.00,85.25,0
50.00,82.76,0
63.00,79.96,0
36.00,76.94,0
42.00,73.57,0
78.00,70.22,0
37.00,67.29,0
45.00,64.46,0
113.00,62.17,0
80.00,61.28,0
44.00,61.20,0
81.00,61.18,0
80.00,61.50,0
84.00,62.40,0
91.00,63.83,0
90.00,65.74,0
107.00,68.15,0
69.00,70.80,0
100.00,73.33,0
113.00,75.98,0
104.00,79.04,0
93.00,82.16,0
97.00,85.02,0
78.00,87.40,0
103.00,89.26,0
99.00,90.89,0
73.00,92.22,0
67.00,92.76,0
56.00,92.28,0
72.00,90.95,0
52.00,89.01,0
48.00,86.45,0
47.00,83.27,0
69.00,79.84,0
54.00,76.57,0
35.00,73.31,0
80.00,70.10,0
48.00,67.34,0
54.00,64.92,0
104.00,63.09,0
60.00,62.28,0
52.00,61.89,0
77.00,61.54,0
94.00,61.72,0
77.00,62.64,0
164.00,64.66,0
106.00,68.28,0
85.00,72.59,0
79.00,76.40,0
101.00,79.62,0
85.00,82.45,0
126.00,85.16,0
93.00,87.96,0
102.00,90.60,0
73.00,92.67,0
85.00,93.92,0
94.00,94.56,0
124.00,95.20,0
77.00,96.00,0
54.00,96.18,0
56.00,95.14,0
45.00,92.94,0
46.00,89.79,0
34.00,85.83,0
43.00,81.29,0
36.00,76.43,0
36.00,71.46,0
55.00,66.67,0
40.00,62.37,0
74.00,58.76,0
70.00,56.20,0
92.00,54.92,0
73.00,54.85,0
71.00,55.53,0
82.00,56.66,0
108.00,58.48,0
97.00,61.21,0
96.00,64.54,0
106.00,68.20,0
91.00,72.03,0
103.00,75.79,0
87.00,79.32,0
103.00,82.52,0
71.00,85.23,0
114.00,87.44,0
80.00,89.36,0
76.00,90.76,0
78.00,91.39,0
61.00,91.27,0
80.00,90.47,0
56.00,89.16,0
56.00,87.26,0
39.00,84.64,0
75.00,81.58,0
36.00,78.41,0
52.00,75.06,0
82.00,71.86,0
43.00,69.20,0
62.00,66.79,0
130.00,65.21,0
88.00,65.24,0
80.00,66.31,0
84.00,67.67,0
76.00,69.15,0
86.00,70.65,0
148.00,72.73,0
85.00,75.78,0
102.00,79.07,0
90.00,82.09,0
96.00,84.80,0
62.00,86.89,0
101.00,88.26,0
84.00,89.26,0
146.00,90.49,0
98.00,92.35,0
99.00,94.36,0
73.00,95.82,0
56.00,96.24,0
46.00,95.29,0
94.00,93.43,0
36.00,91.15,0
40.00,88.12,0
75.00,84.48,0
35.00,80.77,0
35.00,76.77,0
86.00,72.77,0
35.00,69.33,0
67.00,66.27,0
78.00,63.79,0
84.00,62.34,0
70.00,61.80,0
86.00,61.90,0
88.00,62.66,0
86.00,64.05,0
103.00,65.99,0
90.00,68.44,0
154.00,71.67,0
111.00,75.97,0
99.00,80.66,0
86.00,84.82,0
104.00,88.27,0
105.00,91.28,0
120.00,94.13,0
98.00,96.85,0
75.00,98.94,0
69.00,99.89,0
78.00,99.70,0
58.00,98.60,0
45.00,96.49,0
41.00,93.25,0
38.00,89.06,0
47.00,84.30,0
34.00,79.26,0
38.00,74.09,0
54.00,69.06,0
37.00,64.47,0
48.00,60.31,0
115.00,57.20,0
84.00,55.93,0
69.00,56.03,0
80.00,56.74,0
84.00,57.99,0
89.00,59.81,0
88.00,62.10,0
83.00,64.67,0
103.00,67.43,0
72.00,70.28,0
95.00,72.95,0
113.00,75.68,0
156.00,79.19,0
88.00,83.48,0
98.00,87.53,0
96.00,90.86,0
88.00,93.51,0
86.00,95.40,0
84.00,96.52,0
78.00,96.92,0
50.00,96.43,0
61.00,94.85,0
73.00,92.54,0
78.00,90.08,0
43.00,87.48,0
98.00,84.78,0
41.00,82.24,0
35.00,79.37,0
58.00,75.97,0
45.00,72.50,0
56.00,69.14,0
48.00,66.01,0
71.00,63.28,0
75.00,61.31,0
66.00,60.16,0
82.00,59.69,0
82.00,59.94,0
168.00,61.57,0
64.00,64.75,0
127.00,68.52,0
111.00,72.65,0
128.00,77.33,0
84.00,82.06,0
101.00,86.22,0
99.00,89.71,0
99.00,92.69,0
72.00,94.94,0
118.00,96.50,0
96.00,97.83,0
77.00,98.81,0
83.00,99.04,0
121.00,98.96,0
69.00,98.88,0
78.00,98.34,0
73.00,97.14,0
35.00,95.17,0
34.00,91.98,0
39.00,87.70,0
38.00,82.80,0
37.00,77.59,0
52.00,72.42,0
66.00,67.81,0
78.00,64.23,0
66.00,61.77,0
66.00,60.14,0
84.00,59.24,0
126.00,59.58,0
72.00,61.24,0
73.00,63.32,0
86.00,65.31,0
104.00,67.56,0
99.00,70.27,0
147.00,73.72,0
67.00,77.70,0
105.00,81.34,0
81.00,84.38,0
94.00,86.88,0
96.00,88.93,0
132.00,91.00,0
82.00,93.21,0
82.00,94.94,0
76.00,95.78,0
59.00,95.67,0
67.00,94.59,0
50.00,92.64,0
65.00,90.02,0
36.00,86.84,0
49.00,83.09,0
37.00,78.90,0
36.00,74.42,0
65.00,69.99,0
48.00,66.08,0
55.00,62.71,0
116.00,60.34,0
87.00,59.61,0
69.00,60.06,0
108.00,61.16,0
86.00,63.04,0
93.00,65.46,0
105.00,68.26,0
94.00,71.41,0
102.00,74.70,0
96.00,77.99,0
121.00,81.33,0
89.00,84.72,0
100.00,87.78,0
75.00,90.22,0
130.00,92.23,0
72.00,94.08,0
148.00,95.85,0
94.00,97.85,0
86.00,99.62,0
92.00,100.64,0
55.00,100.77,0
59.00,99.68,0
54.00,97.44,0
58.00,94.39,0
36.00,90.64,0
36.00,86.19,0
48.00,81.25,0
46.00,76.27,0
46.00,71.50,0
41.00,66.99,0
37.00,62.71,0
107.00,59.22,0
73.00,57.29,0
79.00,56.69,0
74.00,56.88,0
86.00,57.72,0
107.00,59.38,0
174.00,62.59,0
114.00,67.70,0
96.00,73.46,0
90.00,78.69,0
132.00,83.43,0
94.00,87.98,0
126.00,92.21,0
82.00,95.91,0
91.00,98.70,0
87.00,100.46,0
88.00,101.40,0
79.00,101.58,0
106.00,101.28,0
60.00,100.60,0
61.00,99.13,0
73.00,96.84,0
47.00,93.99,0
34.00,90.38,0
52.00,86.01,0
43.00,81.33,0
53.00,76.67,0
58.00,72.31,0
47.00,68.38,0
68.00,64.96,0
77.00,62.36,0
73.00,60.77,0
73.00,60.00,0
95.00,60.03,0
113.00,61.19,0
165.00,64.05,0
69.00,68.35,0
120.00,72.85,0
73.00,77.02,0
100.00,80.67,0
76.00,83.66,0
128.00,86.30,0
87.00,88.93,0
84.00,91.17,0
67.00,92.51,0
85.00,92.98,0
72.00,92.81,0
62.00,92.02,0
83.00,90.68,0
52.00,88.99,0
69.00,86.88,0
72.00,84.57,0
37.00,82.08,0
67.00,79.24,0
38.00,76.19,0
51.00,72.96,0
84.00,69.94,0
46.00,67.53,0
56.00,65.38,0
86.00,63.60,0
58.00,62.51,0
80.00,61.95,0
86.00,61.99,0
97.00,62.86,0
169.00,65.16,0
95.00,69.12,0
91.00,73.56,0
91.00,77.54,0
94.00,81.04,0
90.00,84.07,0
83.00,86.54,0
69.00,88.25,0
86.00,89.16,0
81.00,89.57,0
91.00,89.73,0
71.00,89.64,0
87.00,89.25,0
82.00,88.71,0
55.00,87.90,0
85.00,86.66,0
66.00,85.26,0
48.00,83.57,0
35.00,81.16,0
70.00,78.19,0
47.00,75.19,0
50.00,72.18,0
58.00,69.21,0
34.00,66.32,0
49.00,63.37,0
95.00,60.91,0
70.00,59.59,0
67.00,59.10,0
71.00,59.06,0
96.00,59.58,0
107.00,61.07,0
101.00,63.57,0
80.00,66.57,0
95.00,69.60,0
80.00,72.50,0
100.00,75.24,0
93.00,77.91,0
115.00,80.68,0
85.00,83.49,0
100.00,86.04,0
89.00,88.23,0
98.00,90.09,0
94.00,91.65,0
84.00,92.87,0
87.00,93.60,0
78.00,93.85,0
60.00,93.44,0
109.00,92.57,0
50.00,91.57,0
58.00,89.98,0
96.00,87.97,0
37.00,85.91,0
37.00,83.21,0
53.00,79.78,0
47.00,76.10,0
37.00,72.31,0
49.00,68.45,0
77.00,65.01,0
88.00,62.64,0
91.00,61.63,0
92.00,61.81,0
61.00,62.67,0
114.00,63.96,0
86.00,65.92,0
100.00,68.43,0
73.00,71.03,0
97.00,73.49,0
51.00,75.56,0
108.00,77.17,0
108.00,78.94,0
126.00,81.40,0
97.00,84.35,0
83.00,87.13,0
98.00,89.35,0
83.00,91.07,0
69.00,92.12,0
91.00,92.45,0
54.00,92.17,0
83.00,91.23,0
58.00,89.81,0
41.00,87.75,0
51.00,84.85,0
71.00,81.62,0
43.00,78.41,0
49.00,75.09,0
129.00,72.31,0
50.00,70.76,0
44.00,69.50,0
91.00,68.14,0
40.00,67.05,0
74.00,66.03,0
92.00,65.38,0
66.00,65.41,0
87.00,65.84,0
75.00,66.58,0
112.00,67.83,0
87.00,69.72,0
98.00,72.04,0
93.00,74.53,0
116.00,77.25,0
125.00,80.49,0
122.00,84.32,0
101.00,88.32,0
80.00,91.78,0
78.00,94.18,0
106.00,95.72,0
71.00,96.71,0
120.00,97.31,0
62.00,97.62,0
42.00,97.00,0
81.00,95.22,0
48.00,92.78,0
55.00,89.78,0
94.00,86.62,0
39.00,83.69,0
43.00,80.46,0
83.00,77.07,0
56.00,74.14,0
54.00,71.52,0
75.00,69.13,0
64.00,67.25,0
90.00,66.02,0
94.00,65.70,0
91.00,66.33,0
83.00,67.59,0
76.00,69.05,0
101.00,70.66,0
85.00,72.54,0
110.00,74.72,0
98.00,77.23,0
99.00,79.94,0
92.00,82.56,0
102.00,85.01,0
96.00,87.30,0
101.00,89.41,0
91.00,91.28,0
61.00,92.53,0
80.00,92.84,0
66.00,92.38,0
68.00,91.28,0
61.00,89.59,0
46.00,87.31,0
39.00,84.27,0
52.00,80.63,0
40.00,76.71,0
40.00,72.62,0
73.00,68.71,0
49.00,65.40,0
70.00,62.72,0
52.00,60.60,0
74.00,59.03,0
60.00,58.04,0
93.00,57.74,0
87.00,58.35,0
93.00,59.88,0
88.00,62.03,0
110.00,64.74,0
94.00,67.99,0
104.00,71.52,0
116.00,75.30,0
124.00,79.47,0
86.00,83.75,0
75.00,87.30,0
77.00,89.70,0
92.00,91.22,0
93.00,92.28,0
75.00,92.96,0
44.00,92.78,0
56.00,91.38,0
37.00,88.89,0
50.00,85.55,0
109.00,82.22,0
73.00,79.80,0
45.00,77.79,0
78.00,75.69,0
62.00,73.76,0
34.00,71.81,0
68.00,69.59,0
43.00,67.37,0
66.00,65.28,0
64.00,63.50,0
104.00,62.51,0
85.00,62.64,0
90.00,63.70,0
73.00,65.18,0
113.00,67.04,0
111.00,69.62,0
86.00,72.76,0
74.00,75.69,0
93.00,78.12,0
70.00,80.11,0
69.00,81.47,0
127.00,82.57,0
91.00,84.11,0
92.00,85.82,0
85.00,87.25,0
68.00,88.18,0
56.00,88.26,0
106.00,87.77,0
72.00,87.30,0
45.00,86.50,0
61.00,84.88,0
44.00,82.59,0
46.00,79.73,0
44.00,76.40,0
57.00,72.92,0
40.00,69.51,0
50.00,66.16,0
62.00,63.10,0
59.00,60.61,0
72.00,58.80,0
81.00,57.83,0
105.00,57.98,0
74.00,59.20,0
103.00,61.10,0
114.00,63.78,0
89.00,67.17,0
113.00,70.87,0
97.00,74.75,0
101.00,78.60,0
98.00,82.20,0
106.00,85.56,0
105.00,88.71,0
98.00,91.60,0
82.00,93.93,0
86.00,95.47,0
76.00,96.21,0
79.00,96.22,0
82.00,95.66,0
79.00,94.73,0
57.00,93.34,0
42.00,91.14,0
49.00,88.02,0
37.00,84.20,0
56.00,80.00,0
46.00,75.78,0
38.00,71.59,0
38.00,67.37,0
70.00,63.46,0
79.00,60.52,0
50.00,58.59,0
114.00,57.60,0
68.00,57.81,0
82.00,58.80,0
88.00,60.25,0
89.00,62.23,0
108.00,64.77,0
85.00,67.77,0
110.00,71.02,0
97.00,74.46,0
107.00,78.01,0
95.00,81.48,0
79.00,84.54,0
93.00,86.92,0
80.00,88.71,0
99.00,90.04,0
97.00,91.18,0
80.00,92.11,0
64.00,92.44,0
69.00,91.92,0
52.00,90.59,0
94.00,88.79,0
55.00,86.93,0
57.00,84.80,0
37.00,82.09,0
91.00,79.15,0
38.00,76.43,0
36.00,73.52,0
50.00,70.19,0
64.00,67.00,0
57.00,64.30,0
59.00,62.09,0
71.00,60.38,0
66.00,59.29,0
56.00,58.65,0
96.00,58.48,0
83.00,59.17,0
93.00,60.67,0
82.00,62.71,0
103.00,65.14,0
123.00,68.25,0
115.00,72.18,0
86.00,76.41,0
110.00,80.38,0
59.00,83.76,0
109.00,86.34,0
65.00,88.27,0
88.00,89.53,0
99.00,90.33,0
45.00,90.70,0
50.00,89.93,0
56.00,88.04,0
61.00,85.55,0
68.00,82.86,0
128.00,80.76,0
38.00,79.50,0
81.00,78.27,0
45.00,76.76,0
41.00,74.83,0
58.00,72.42,0
46.00,69.87,0
41.00,67.20,0
80.00,64.67,0
98.00,63.07,0
76.00,62.67,0
94.00,63.14,0
86.00,64.31,0
87.00,65.99,0
108.00,68.12,0
92.00,70.76,0
96.00,73.63,0
115.00,76.68,0
98.00,79.96,0
97.00,83.19,0
127.00,86.35,0
68.00,89.36,0
96.00,91.66,0
81.00,93.20,0
65.00,93.95,0
95.00,93.95,0
116.00,93.91,0
73.00,94.08,0
40.00,93.58,0
68.00,91.94,0
88.00,89.84,0
46.00,87.67,0
68.00,85.17,0
48.00,82.35,0
44.00,79.21,0
74.00,75.94,0
65.00,73.06,0
46.00,70.53,0
80.00,68.23,0
65.00,66.47,0
50.00,65.08,0
116.00,64.20,0
102.00,64.58,0
98.00,66.18,0
83.00,68.35,0
109.00,70.82,0
100.00,73.66,0
142.00,77.12,0
69.00,80.93,0
109.00,84.37,0
35.00,86.85,0
65.00,87.89,0
70.00,87.72,0
92.00,87.16,0
76.00,86.57,0
76.00,85.91,0
72.00,85.05,0
79.00,84.06,0
70.00,83.00,0
44.00,81.63,0
55.00,79.66,0
52.00,77.22,0
48.00,74.53,0
36.00,71.55,0
46.00,68.29,0
35.00,64.90,0
105.00,62.01,0
76.00,60.41,0
49.00,59.73,0
46.00,59.05,0
93.00,58.52,0
65.00,58.63,0
64.00,59.15,0
81.00,59.86,0
114.00,61.22,0
105.00,63.65,0
126.00,67.13,0
142.00,71.67,0
120.00,77.14,0
75.00,82.52,0
62.00,86.63,0
81.00,89.20,0
154.00,91.33,0
91.00,93.89,0
76.00,96.14,0
65.00,97.23,0
75.00,97.17,0
80.00,96.34,0
46.00,94.85,0
46.00,92.39,0
56.00,89.07,0
36.00,85.20,0
41.00,80.84,0
48.00,76.22,0
37.00,71.63,0
39.00,67.10,0
47.00,62.78,0
36.00,58.82,0
63.00,55.38,0
41.00,52.60,0
58.00,50.43,0
87.00,49.14,0
56.00,48.92,0
57.00,49.24,0
77.00,49.90,0
83.00,51.18,0
76.00,53.10,0
124.00,55.76,0
64.00,59.14,0
98.00,62.65,0
85.00,66.10,0
110.00,69.66,0
79.00,73.23,0
124.00,76.77,0
99.00,80.43,0
89.00,83.96,0
72.00,86.74,0
80.00,88.59,0
68.00,89.54,0
92.00,89.85,0
72.00,89.80,0
40.00,89.07,0
88.00,87.55,0
37.00,85.59,0
45.00,82.98,0
72.00,79.90,0
35.00,76.76,0
64.00,73.54,0
97.00,70.81,0
58.00,69.00,0
55.00,67.56,0
75.00,66.25,0
105.00,65.62,0
93.00,66.08,0
80.00,67.31,0
85.00,68.81,0
69.00,70.31,0
77.00,71.61,0
100.00,72.89,0
98.00,74.56,0
78.00,76.45,0
70.00,78.04,0
101.00,79.30,0
103.00,80.74,0
99.00,82.53,0
67.00,84.20,0
59.00,85.10,0
89.00,85.24,0
54.00,84.94,0
46.00,83.91,0
52.00,82.00,0
96.00,79.88,0
37.00,77.95,0
66.00,75.85,0
36.00,73.45,0
41.00,70.67,0
47.00,67.58,0
53.00,64.56,0
42.00,61.74,0
60.00,59.19,0
108.00,57.51,0
55.00,57.07,0
72.00,57.24,0
52.00,57.55,0
88.00,58.07,0
60.00,58.92,0
96.00,60.13,0
94.00,61.91,0
94.00,64.34,0
79.00,67.04,0
51.00,69.37,0
156.00,71.64,0
74.00,74.59,0
124.00,77.91,0
62.00,81.04,0
162.00,84.12,0
97.00,87.67,0
102.00,91.24,0
75.00,94.05,0
69.00,95.72,0
78.00,96.23,0
112.00,96.23,0
92.00,96.30,0
49.00,96.02,0
84.00,94.90,0
48.00,93.09,0
61.00,90.63,0
104.00,88.03,0
44.00,85.73,0
39.00,83.07,0
103.00,80.16,0
40.00,77.66,0
49.00,75.09,0
73.00,72.41,0
64.00,70.12,0
79.00,68.38,0
94.00,67.40,0
108.00,67.54,0
97.00,68.79,0
88.00,70.68,0
105.00,72.91,0
95.00,75.43,0
131.00,78.37,0
91.00,81.72,0
105.00,85.01,0
73.00,87.80,0
124.00,90.11,0
98.00,92.35,0
149.00,94.87,0
84.00,97.61,0
87.00,99.81,0
86.00,101.02,0
97.00,101.55,0
87.00,101.63,0
82.00,101.24,0
63.00,100.20,0
51.00,98.23,0
74.00,95.46,0
105.00,92.71,0
38.00,90.22,0
39.00,87.18,0
50.00,83.35,0
56.00,79.31,0
52.00,75.38,0
69.00,71.80,0
83.00,68.95,0
70.00,67.03,0
94.00,65.97,0
79.00,65.79,0
109.00,66.45,0
83.00,67.90,0
96.00,69.83,0
82.00,71.94,0
98.00,74.12,0
101.00,76.47,0
140.00,79.35,0
109.00,82.96,0
102.00,86.76,0
100.00,90.19,0
107.00,93.20,0
102.00,95.85,0
75.00,97.88,0
78.00,98.91,0
70.00,98.92,0
92.00,98.23,0
103.00,97.41,0
76.00,96.65,0
35.00,95.27,0
83.00,92.98,0
104.00,90.69,0
36.00,88.65,0
38.00,85.95,0
45.00,82.34,0
58.00,78.40,0
97.00,74.95,0
90.00,72.68,0
63.00,71.34,0
68.00,70.32,0
99.00,69.68,0
105.00,69.96,0
102.00,71.26,0
119.00,73.42,0
62.00,75.95,0
204.00,79.05,0
116.00,83.68,0
90.00,88.77,0
127.00,93.20,0
57.00,96.80,0
93.00,99.10,0
80.00,100.25,0
127.00,100.94,0
76.00,101.52,0
74.00,101.53,0
74.00,100.64,0
66.00,99.02,0
86.00,96.94,0
48.00,94.51,0
74.00,91.67,0
40.00,88.43,0
34.00,84.59,0
42.00,80.12,0
36.00,75.35,0
34.00,70.46,0
60.00,65.77,0
46.00,61.69,0
43.00,58.15,0
70.00,55.22,0
52.00,53.10,0
55.00,51.63,0
70.00,50.71,0
60.00,50.45,0
97.00,50.95,0
68.00,52.30,0
109.00,54.44,0
68.00,57.19,0
80.00,60.08,0
73.00,62.77,0
97.00,65.41,0
72.00,68.05,0
103.00,70.65,0
73.00,73.19,0
74.00,75.37,0
76.00,77.00,0
64.00,78.08,0
59.00,78.50,0
59.00,78.22,0
63.00,77.40,0
39.00,76.08,0
98.00,74.54,0
57.00,73.32,0
67.00,72.27,0
62.00,71.18,0
75.00,70.19,0
38.00,69.19,0
41.00,67.73,0
59.00,65.86,0
36.00,63.88,0
46.00,61.73,0
41.00,59.45,0
62.00,57.32,0
49.00,55.58,0
55.00,54.20,0
70.00,53.24,0
57.00,52.84,0
50.00,52.72,0
51.00,52.61,0
79.00,52.69,0
64.00,53.27,0
118.00,54.62,0
80.00,57.00,0
90.00,59.98,0
44.00,62.77,0
118.00,65.26,0
60.00,67.81,0
66.00,70.02,0
53.00,71.41,0
42.00,71.87,0
68.00,71.55,0
51.00,70.83,0
54.00,69.80,0
74.00,68.64,0
38.00,67.47,0
635.00,70.82,0
56.00,82.37,0
36.00,94.89,0
36.00,102.63,0
60.00,106.55,0
37.00,107.58,0
48.00,106.32,0
56.00,103.41,0
63.00,99.62,0
47.00,95.34,0
47.00,90.62,0
64.00,85.74,0
203.00,82.32,0
91.00,81.64,0
319.00,84.22,0
308.00,92.02,0
165.00,103.92,0
88.00,115.54,0
171.00,124.79,0
335.00,134.02,0
132.00,144.64,0
130.00,153.95,0
180.00,160.65,0
95.00,165.28,0
170.00,167.79,0
78.00,168.40,0
129.00,167.06,0
81.00,163.98,0
125.00,159.65,0
137.00,154.97,0
111.00,150.50,0
84.00,145.78,0
100.00,140.52,0
572.00,139.02,0
130.00,144.53,0
101.00,151.68,0
117.00,155.81,0
258.00,158.70,0
74.00,161.48,0
141.00,162.78,0
46.00,161.72,0
208.00,159.22,0
54.00,156.32,0
53.00,152.02,0
98.00,145.87,0
106.00,139.31,0
38.00,132.60,0
64.00,125.17,0
83.00,117.45,0
112.00,110.53,0
74.00,104.76,0
75.00,99.68,0
60.00,94.87,0
103.00,90.54,0
98.00,87.26,0
62.00,84.86,0
56.00,82.54,0
71.00,80.07,0
40.00,77.52,0
82.00,74.95,0
49.00,72.60,0
57.00,70.38,0
37.00,68.03,0
35.00,65.36,0
559.00,66.67,0
36.00,75.26,0
94.00,85.29,0
64.00,92.47,0
146.00,97.92,0
36.00,102.06,0
67.00,104.19,0
42.00,104.10,0
160.00,103.16,0
127.00,103.08,0
73.00,103.65,0
64.00,103.45,0
117.00,102.51,0
76.00,101.49,0
78.00,100.23,0
86.00,98.59,0
68.00,96.70,0
115.00,94.86,0
68.00,93.35,0
101.00,92.02,0
66.00,90.75,0
88.00,89.43,0
62.00,87.98,0
45.00,86.10,0
42.00,83.41,0
38.00,79.99,0
58.00,76.21,0
37.00,72.39,0
37.00,68.49,0
49.00,64.58,0
52.00,61.02,0
62.00,58.08,0
43.00,55.73,0
50.00,53.74,0
69.00,52.20,0
60.00,51.36,0
59.00,51.07,0
74.00,51.24,0
53.00,51.82,0
58.00,52.52,0
114.00,53.66,0
57.00,55.57,0
66.00,57.62,0
80.00,59.50,0
72.00,61.42,0
71.00,63.29,0
125.00,65.42,0
56.00,68.00,0
77.00,70.31,0
53.00,71.92,0
71.00,72.86,0
55.00,73.23,0
65.00,73.13,0
39.00,72.48,0
54.00,71.22,0
51.00,69.55,0
42.00,67.61,0
44.00,65.39,0
51.00,63.03,0
36.00,60.66,0
57.00,58.34,0
43.00,56.24,0
44.00,54.34,0
39.00,52.50,0
72.00,50.96,0
49.00,50.03,0
73.00,49.68,0
55.00,49.84,0
79.00,50.47,0
79.00,51.70,0
49.00,53.29,0
74.00,54.82,0
68.00,56.35,0
112.00,58.32,0
57.00,60.79,0
107.00,63.40,0
59.00,66.03,0
52.00,68.13,0
72.00,69.41,0
72.00,70.31,0
70.00,71.04,0
86.00,71.70,0
79.00,72.49,0
47.00,73.09,0
40.00,72.90,0
43.00,71.75,0
38.00,69.87,0
37.00,67.42,0
57.00,64.74,0
35.00,62.09,0
37.00,59.38,0
66.00,56.81,0
38.00,54.69,0
61.00,52.95,0
91.00,51.94,0
84.00,52.16,0
37.00,53.04,0
60.00,53.76,0
67.00,54.38,0
52.00,55.09,0
68.00,55.78,0
66.00,56.56,0
79.00,57.59,0
59.00,58.81,0
81.00,60.08,0
31.00,61.15,0
72.00,61.72,0
38.00,61.86,0
78.00,61.79,0
68.00,61.86,0
60.00,62.14,0
62.00,62.36,0
112.00,62.91,0
76.00,64.24,0
47.00,65.71,0
73.00,66.66,0
75.00,67.39,0
38.00,67.88,0
67.00,67.81,0
39.00,67.26,0
92.00,66.58,0
71.00,66.30,0
42.00,66.17,0
38.00,65.49,0
50.00,64.19,0
58.00,62.70,0
66.00,61.41,0
35.00,60.26,0
66.00,59.07,0
58.00,58.06,0
65.00,57.42,0
112.00,57.50,0
76.00,58.68,0
61.00,60.32,0
72.00,61.80,0
61.00,63.08,0
40.00,63.90,0
96.00,64.38,0
78.00,65.17,0
53.00,66.14,0
72.00,66.80,0
67.00,67.27,0
57.00,67.59,0
62.00,67.60,0
72.00,67.47,0
45.00,67.21,0
35.00,66.42,0
58.00,65.05,0
48.00,63.51,0
41.00,61.85,0
55.00,60.07,0
36.00,58.28,0
40.00,56.38,0
72.00,54.63,0
46.00,53.39,0
46.00,52.42,0
41.00,51.43,0
60.00,50.53,0
42.00,49.85,0
87.00,49.60,0
62.00,50.07,0
70.00,51.09,0
70.00,52.42,0
66.00,53.98,0
68.00,55.62,0
67.00,57.24,0
79.00,58.91,0
61.00,60.59,0
69.00,62.10,0
65.00,63.37,0
72.00,64.49,0
66.00,65.47,0
104.00,66.60,0
74.00,68.14,0
62.00,69.65,0
70.00,70.71,0
41.00,71.19,0
65.00,70.99,0
51.00,70.33,0
54.00,69.33,0
40.00,67.93,0
49.00,66.13,0
42.00,64.06,0
45.00,61.85,0
36.00,59.51,0
82.00,57.42,0
39.00,55.89,0
40.00,54.54,0
65.00,53.23,0
37.00,52.19,0
94.00,51.60,0
62.00,51.80,0
82.00,52.72,0
76.00,54.17,0
51.00,55.84,0
54.00,57.18,0
60.00,58.11,0
62.00,58.85,0
81.00,59.65,0
50.00,60.56,0
94.00,61.52,0
84.00,62.87,0
36.00,64.28,0
70.00,65.10,0
60.00,65.52,0
95.00,66.02,0
55.00,66.74,0
55.00,67.23,0
59.00,67.23,0
51.00,66.86,0
66.00,66.24,0
65.00,65.64,0
42.00,64.97,0
73.00,64.16,0
56.00,63.43,0
43.00,62.67,0
142.00,62.37,0
38.00,63.09,0
36.00,63.65,0
68.00,63.44,0
48.00,63.01,0
68.00,62.51,0
91.00,62.34,0
66.00,62.76,0
61.00,63.35,0
80.00,63.91,0
90.00,64.80,0
34.00,65.76,0
79.00,66.27,0
64.00,66.59,0
81.00,67.01,0
70.00,67.55,0
112.00,68.48,0
52.00,69.78,0
70.00,70.83,0
66.00,71.41,0
62.00,71.68,0
48.00,71.48,0
49.00,70.68,0
64.00,69.47,0
44.00,68.09,0
58.00,66.52,0
40.00,64.78,0
36.00,62.76,0
63.00,60.59,0
38.00,58.59,0
97.00,57.08,0
40.00,56.29,0
54.00,55.74,0
36.00,55.00,0
43.00,54.02,0
86.00,53.21,0
58.00,53.09,0
67.00,53.48,0
65.00,54.13,0
69.00,55.03,0
55.00,56.03,0
63.00,56.94,0
59.00,57.74,0
119.00,58.91,0
69.00,60.87,0
72.00,63.07,0
66.00,64.96,0
71.00,66.52,0
72.00,67.83,0
112.00,69.28,0
89.00,71.28,0
62.00,73.35,0
82.00,74.94,0
61.00,76.03,0
65.00,76.59,0
35.00,76.34,0
46.00,75.12,0
37.00,73.08,0
51.00,70.53,0
65.00,67.95,0
50.00,65.65,0
57.00,63.57,0
71.00,61.83,0
56.00,60.57,0
39.00,59.44,0
65.00,58.27,0
43.00,57.20,0
67.00,56.30,0
88.00,55.95,0
66.00,56.39,0
73.00,57.28,0
75.00,58.44,0
68.00,59.79,0
76.00,61.21,0
132.00,63.18,0
45.00,65.76,0
56.00,67.85,0
71.00,69.08,0
82.00,70.04,0
68.00,70.96,0
101.00,71.95,0
55.00,73.01,0
54.00,73.58,0
68.00,73.50,0
47.00,72.97,0
69.00,72.05,0
81.00,71.17,0
36.00,70.36,0
40.00,69.01,0
77.00,67.30,0
52.00,65.81,0
57.00,64.47,0
82.00,63.37,0
36.00,62.56,0
46.00,61.53,0
48.00,60.17,0
53.00,58.76,0
44.00,57.38,0
69.00,56.18,0
54.00,55.35,0
38.00,54.67,0
64.00,53.95,0
53.00,53.43,0
82.00,53.35,0
41.00,53.66,0
80.00,54.14,0
87.00,55.09,0
62.00,56.61,0
64.00,58.17,0
60.00,59.49,0
63.00,60.57,0
101.00,61.77,0
60.00,63.32,0
91.00,64.98,0
72.00,66.69,0
44.00,68.09,0
36.00,68.53,0
74.00,68.16,0
54.00,67.60,0
42.00,66.79,0
47.00,65.50,0
101.00,64.31,0
53.00,63.79,0
96.00,63.79,0
79.00,64.35,0
74.00,65.36,0
81.00,66.51,0
66.00,67.69,0
56.00,68.56,0
68.00,68.99,0
62.00,69.14,0
75.00,69.17,0
104.00,69.52,0
82.00,70.51,0
67.00,71.70,0
52.00,72.46,0
76.00,72.68,0
70.00,72.71,0
64.00,72.64,0
62.00,72.34,0
61.00,71.77,0
55.00,70.94,0
184.00,70.89,0
74.00,72.61,0
66.00,74.81,0
76.00,76.34,0
39.00,77.10,0
48.00,76.80,0
56.00,75.61,0
56.00,73.99,0
40.00,72.04,0
78.00,69.93,0
49.00,68.05,0
45.00,66.19,0
75.00,64.36,0
37.00,62.76,0
36.00,61.00,0
38.00,58.86,0
62.00,56.73,0
42.00,54.91,0
75.00,53.55,0
47.00,52.71,0
77.00,52.37,0
72.00,52.63,0
66.00,53.46,0
76.00,54.64,0
61.00,56.04,0
86.00,57.59,0
64.00,59.32,0
65.00,60.99,0
55.00,62.29,0
62.00,63.19,0
75.00,63.88,0
72.00,64.64,0
66.00,65.43,0
36.00,65.86,0
71.00,65.73,0
46.00,65.32,0
47.00,64.58,0
96.00,63.83,0
59.00,63.63,0
35.00,63.43,0
76.00,62.87,0
94.00,62.69,0
46.00,63.04,0
36.00,63.06,0
48.00,62.35,0
73.00,61.45,0
59.00,60.83,0
78.00,60.56,0
37.00,60.44,0
66.00,60.15,0
61.00,59.85,0
56.00,59.65,0
77.00,59.60,0
57.00,59.80,0
51.00,59.97,0
56.00,59.89,0
108.00,60.10,0
90.00,61.25,0
74.00,63.09,0
66.00,64.92,0
51.00,66.28,0
50.00,66.93,0
78.00,67.10,0
45.00,67.08,0
44.00,66.61,0
58.00,65.62,0
45.00,64.39,0
71.00,63.14,0
37.00,61.95,0
42.00,60.55,0
88.00,59.21,0
37.00,58.34,0
44.00,57.45,0
61.00,56.42,0
56.00,55.60,0
82.00,55.24,0
85.00,55.68,0
46.00,56.64,0
60.00,57.46,0
51.00,57.97,0
62.00,58.30,0
119.00,59.04,0
74.00,60.75,0
60.00,62.74,0
69.00,64.36,0
62.00,65.60,0
56.00,66.44,0
100.00,67.14,0
70.00,68.15,0
86.00,69.35,0
74.00,70.58,0
100.00,71.94,0
60.00,73.36,0
71.00,74.41,0
42.00,74.77,0
70.00,74.45,0
58.00,73.72,0
48.00,72.66,0
43.00,71.08,0
42.00,68.99,0
56.00,66.64,0
120.00,64.91,0
56.00,64.36,0
69.00,64.30,0
35.00,64.02,0
47.00,63.23,0
111.00,62.53,0
52.00,62.57,0
34.00,62.60,0
79.00,62.19,0
51.00,61.84,0
54.00,61.47,0
127.00,61.52,0
58.00,62.54,0
72.00,63.86,0
81.00,65.08,0
46.00,66.17,0
44.00,66.61,0
90.00,66.60,0
64.00,66.76,0
92.00,67.24,0
89.00,68.17,0
78.00,69.49,0
83.00,70.90,0
93.00,72.42,0
72.00,73.99,0
36.00,75.00,0
50.00,74.89,0
45.00,73.83,0
63.00,72.28,0
58.00,70.60,0
99.00,69.28,0
40.00,68.44,0
65.00,67.56,0
62.00,66.57,0
44.00,65.55,0
34.00,64.12,0
37.00,62.16,0
68.00,60.07,0
58.00,58.41,0
80.00,57.39,0
59.00,57.01,0
75.00,57.09,0
106.00,57.86,0
49.00,59.31,0
92.00,60.91,0
76.00,62.66,0
123.00,64.95,0
88.00,67.92,0
64.00,70.94,0
65.00,73.20,0
65.00,74.65,0
66.00,75.43,0
126.00,76.21,0
65.00,77.44,0
47.00,78.31,0
38.00,78.02,0
61.00,76.75,0
65.00,75.09,0
36.00,73.23,0
43.00,70.88,0
80.00,68.42,0
39.00,66.29,0
42.00,64.13,0
38.00,61.70,0
55.00,59.24,0
40.00,56.97,0
35.00,54.76,0
52.00,52.62,0
64.00,50.93,0
55.00,49.90,0
70.00,49.48,0
58.00,49.62,0
82.00,50.30,0
35.00,51.27,0
74.00,52.18,0
62.00,53.17,0
72.00,54.40,0
99.00,56.06,0
54.00,58.15,0
73.00,60.12,0
72.00,61.89,0
57.00,63.44,0
66.00,64.61,0
84.00,65.62,0
72.00,66.75,0
69.00,67.85,0
35.00,68.47,0
49.00,68.23,0
55.00,67.36,0
44.00,66.15,0
49.00,64.63,0
38.00,62.83,0
73.00,61.03,0
64.00,59.69,0
69.00,58.93,0
57.00,58.55,0
49.00,58.24,0
39.00,57.68,0
38.00,56.72,0
69.00,55.63,0
36.00,54.72,0
36.00,53.68,0
97.00,52.81,0
63.00,52.84,0
54.00,53.40,0
71.00,54.06,0
59.00,54.88,0
56.00,55.72,0
101.00,56.76,0
87.00,58.52,0
74.00,60.80,0
80.00,63.13,0
78.00,65.39,0
68.00,67.45,0
44.00,68.93,0
54.00,69.51,0
69.00,69.48,0
48.00,69.14,0
119.00,68.95,0
36.00,69.18,0
48.00,69.05,0
75.00,68.38,0
38.00,67.56,0
48.00,66.34,0
98.00,65.15,0
37.00,64.41,0
48.00,63.53,0
67.00,62.42,0
42.00,61.37,0
35.00,60.07,0
72.00,58.62,0
42.00,57.41,0
73.00,56.48,0
41.00,55.80,0
43.00,55.07,0
59.00,54.24,0
42.00,53.49,0
62.00,52.85,0
60.00,52.48,0
48.00,52.36,0
66.00,52.38,0
62.00,52.66,0
72.00,53.30,0
45.00,54.10,0
65.00,54.79,0
130.00,56.03,0
80.00,58.46,0
44.00,61.13,0
57.00,63.00,0
44.00,64.01,0
50.00,64.26,0
92.00,64.28,0
66.00,64.65,0
54.00,65.09,0
86.00,65.42,0
37.00,65.68,0
50.00,65.44,0
75.00,64.85,0
39.00,64.23,0
48.00,63.30,0
41.00,61.95,0
66.00,60.50,0
42.00,59.18,0
63.00,57.98,0
60.00,57.03,0
92.00,56.70,0
61.00,57.09,0
70.00,57.85,0
66.00,58.71,0
55.00,59.55,0
98.00,60.49,0
65.00,61.81,0
69.00,63.22,0
78.00,64.52,0
72.00,65.84,0
56.00,66.95,0
66.00,67.66,0
92.00,68.26,0
78.00,69.18,0
54.00,70.09,0
45.00,70.36,0
58.00,69.91,0
42.00,68.95,0
60.00,67.60,0
115.00,66.64,0
51.00,66.52,0
77.00,66.66,0
101.00,67.09,0
54.00,67.95,0
82.00,68.77,0
44.00,69.28,0
34.00,69.06,0
79.00,68.18,0
52.00,67.28,0
55.00,66.33,0
134.00,65.87,0
83.00,66.69,0
57.00,68.06,0
69.00,69.04,0
82.00,69.80,0
95.00,70.78,0
60.00,71.92,0
58.00,72.68,0
65.00,72.84,0
78.00,72.76,0
72.00,72.71,0
71.00,72.69,0
66.00,72.59,0
77.00,72.43,0
51.00,72.15,0
53.00,71.47,0
60.00,70.38,0
132.00,69.75,0
40.00,69.97,0
34.00,69.85,0
228.00,70.24,0
48.00,72.67,0
39.00,75.12,0
78.00,76.17,0
33.00,76.35,0
39.00,75.45,0
78.00,73.85,0
47.00,72.19,0
75.00,70.58,0
97.00,69.46,0
36.00,68.83,0
89.00,68.21,0
80.00,67.92,0
93.00,68.27,0
41.00,68.82,0
61.00,68.91,0
101.00,68.89,0
80.00,69.43,0
53.00,70.14,0
79.00,70.55,0
50.00,70.69,0
88.00,70.66,0
86.00,70.89,0
62.00,71.37,0
69.00,71.69,0
67.00,71.77,0
55.00,71.59,0
75.00,71.17,0
42.00,70.54,0
37.00,69.35,0
74.00,67.72,0
116.00,66.73,0
48.00,66.70,0
45.00,66.60,0
81.00,66.12,0
61.00,65.80,0
99.00,65.86,0
49.00,66.28,0
50.00,66.45,0
161.00,66.95,0
76.00,68.81,0
70.00,71.11,0
66.00,72.84,0
73.00,74.01,0
85.00,74.91,0
37.00,75.44,0
75.00,75.27,0
78.00,74.85,0
173.00,75.39,0
83.00,77.51,0
80.00,80.02,0
51.00,81.71,0
86.00,82.51,0
65.00,82.78,0
126.00,83.07,0
70.00,83.74,0
55.00,84.13,0
44.00,83.48,0
67.00,81.96,0
39.00,79.90,0
38.00,77.20,0
79.00,74.20,0
183.00,72.60,0
51.00,73.06,0
48.00,73.75,0
39.00,73.38,0
74.00,72.33,0
38.00,71.01,0
60.00,69.39,0
72.00,67.76,0
67.00,66.53,0
75.00,65.71,0
53.00,65.15,0
140.00,65.22,0
70.00,66.44,0
91.00,68.23,0
76.00,70.05,0
166.00,72.49,0
99.00,76.14,0
127.00,80.46,0
80.00,84.66,0
112.00,88.35,0
155.00,92.03,0
85.00,95.98,0
75.00,99.11,0
42.00,100.51,0
79.00,100.22,0
75.00,98.96,0
57.00,97.11,0
55.00,94.51,0
68.00,91.37,0
119.00,88.52,0
78.00,86.60,0
154.00,85.81,0
49.00,85.97,0
61.00,85.83,0
91.00,85.06,0
62.00,84.18,0
35.00,82.79,0
80.00,80.74,0
40.00,78.46,0
97.00,76.25,0
119.00,74.97,0
61.00,74.78,0
43.00,74.51,0
76.00,73.69,0
75.00,72.86,0
70.00,72.26,0
79.00,71.85,0
66.00,71.59,0
93.00,71.54,0
109.00,72.12,0
148.00,73.96,0
101.00,77.10,0
82.00,80.50,0
73.00,83.22,0
70.00,85.00,0
78.00,85.95,0
94.00,86.48,0
82.00,86.89,0
57.00,86.94,0
67.00,86.29,0
71.00,85.09,0
42.00,83.45,0
85.00,81.43,0
103.00,79.80,0
153.00,79.59,0
55.00,80.62,0
70.00,81.49,0
39.00,81.40,0
48.00,80.27,0
68.00,78.43,0
76.00,76.59,0
65.00,75.01,0
70.00,73.61,0
80.00,72.47,0
81.00,71.78,0
136.00,72.00,0
131.00,73.78,0
62.00,76.51,0
67.00,78.71,0
97.00,80.21,0
82.00,81.53,0
92.00,82.76,0
62.00,83.66,0
93.00,84.14,0
74.00,84.38,0
93.00,84.54,0
102.00,84.85,0
124.00,85.77,0
63.00,87.05,0
52.00,87.64,0
43.00,86.93,0
40.00,85.00,0
46.00,82.12,0
80.00,78.97,0
59.00,76.16,0
100.00,73.97,0
58.00,72.47,0
66.00,71.27,0
38.00,69.88,0
64.00,68.23,0
171.00,67.49,0
74.00,68.69,0
59.00,70.45,0
73.00,71.66,0
59.00,72.39,0
60.00,72.63,0
65.00,72.43,0
50.00,71.87,0
57.00,70.91,0
112.00,70.11,0
106.00,70.38,0
70.00,71.51,0
107.00,72.91,0
75.00,74.54,0
108.00,76.32,0
97.00,78.36,0
139.00,80.96,0
85.00,84.06,0
54.00,86.64,0
142.00,88.51,0
67.00,90.35,0
72.00,91.63,0
72.00,91.92,0
106.00,91.77,0
80.00,91.63,0
62.00,91.20,0
69.00,90.12,0
64.00,88.51,0
47.00,86.38,0
55.00,83.66,0
39.00,80.46,0
40.00,76.80,0
68.00,73.02,0
51.00,69.62,0
86.00,66.84,0
104.00,65.22,0
70.00,64.84,0
74.00,65.04,0
116.00,65.79,0
103.00,67.58,0
90.00,70.12,0
108.00,72.96,0
97.00,76.03,0
82.00,79.03,0
80.00,81.52,0
81.00,83.38,0
86.00,84.76,0
104.00,85.95,0
84.00,87.13,0
50.00,87.82,0
92.00,87.71,0
46.00,87.04,0
76.00,85.82,0
97.00,84.49,0
50.00,83.33,0
125.00,82.36,0
81.00,82.04,0
39.00,81.78,0
43.00,80.56,0
56.00,78.46,0
37.00,75.86,0
45.00,72.82,0
37.00,69.46,0
84.00,66.29,0
70.00,63.96,0
94.00,62.72,0
67.00,62.39,0
78.00,62.60,0
91.00,63.29,0
46.00,64.25,0
108.00,65.26,0
51.00,66.46,0
85.00,67.61,0
55.00,68.54,0
58.00,69.06,0
74.00,69.20,0
82.00,69.40,0
88.00,69.95,0
50.00,70.60,0
50.00,70.72,0
209.00,71.43,0
72.00,74.07,0
39.00,76.87,0
76.00,78.34,0
63.00,78.96,0
53.00,78.94,0
90.00,78.46,0
46.00,77.80,0
93.00,77.00,0
36.00,76.07,0
56.00,74.66,0
38.00,72.67,0
74.00,70.46,0
73.00,68.58,0
36.00,67.01,0
37.00,65.11,0
57.00,62.90,0
39.00,60.70,0
78.00,58.79,0
155.00,58.29,0
72.00,59.77,0
58.00,61.87,0
72.00,63.57,0
102.00,65.27,0
76.00,67.31,0
65.00,69.27,0
74.00,70.79,0
40.00,71.69,0
60.00,71.78,0
127.00,71.85,0
64.00,72.65,0
53.00,73.41,0
66.00,73.50,0
105.00,73.53,0
51.00,73.83,0
82.00,74.00,0
53.00,73.90,0
56.00,73.41,0
67.00,72.52,0
96.00,71.82,0
38.00,71.36,0
76.00,70.70,0
46.00,69.82,0
74.00,68.85,0
51.00,67.85,0
90.00,67.05,0
39.00,66.46,0
86.00,65.91,0
62.00,65.57,0
57.00,65.35,0
107.00,65.36,0
61.00,65.95,0
166.00,67.48,0
108.00,70.53,0
160.00,74.98,0
108.00,80.34,0
81.00,85.52,0
80.00,89.53,0
80.00,92.25,0
97.00,94.06,0
112.00,95.51,0
108.00,97.00,0
58.00,98.12,0
64.00,98.11,0
68.00,96.95,0
76.00,95.14,0
86.00,93.15,0
72.00,91.20,0
89.00,89.34,0
38.00,87.34,0
41.00,84.65,0
83.00,81.47,0
46.00,78.46,0
39.00,75.34,0
96.00,72.30,0
35.00,69.80,0
60.00,67.46,0
125.00,65.76,0
43.00,65.24,0
76.00,65.06,0
56.00,64.84,0
96.00,64.88,0
60.00,65.32,0
68.00,65.84,0
86.00,66.39,0
90.00,67.34,0
76.00,68.67,0
54.00,69.85,0
72.00,70.55,0
92.00,71.16,0
78.00,72.02,0
46.00,72.72,0
72.00,72.85,0
86.00,72.82,0
185.00,73.95,0
71.00,76.73,0
58.00,79.48,0
49.00,80.88,0
38.00,80.87,0
83.00,79.90,0
42.00,78.55,0
48.00,76.71,0
55.00,74.37,0
80.00,72.10,0
45.00,70.14,0
80.00,68.40,0
67.00,67.06,0
89.00,66.33,0
88.00,66.34,0
66.00,66.89,0
134.00,68.04,0
90.00,70.17,0
76.00,72.70,0
79.00,74.86,0
96.00,76.77,0
114.00,78.86,0
102.00,81.36,0
77.00,83.84,0
57.00,85.53,0
94.00,86.35,0
47.00,86.52,0
53.00,85.77,0
48.00,84.03,0
71.00,81.74,0
66.00,79.41,0
64.00,77.22,0
53.00,75.05,0
42.00,72.66,0
43.00,69.94,0
35.00,66.90,0
85.00,64.02,0
42.00,61.76,0
65.00,59.93,0
48.00,58.38,0
69.00,57.17,0
39.00,56.22,0
79.00,55.51,0
121.00,55.74,0
51.00,57.17,0
81.00,58.87,0
80.00,60.64,0
76.00,62.59,0
90.00,64.67,0
148.00,67.45,0
77.00,71.15,0
74.00,74.72,0
129.00,77.89,0
60.00,80.96,0
44.00,83.05,0
63.00,83.64,0
80.00,83.39,0
59.00,82.78,0
136.00,82.33,0
72.00,82.60,0
47.00,82.78,0
43.00,81.91,0
41.00,79.98,0
122.00,77.91,0
37.00,76.42,0
36.00,74.68,0
38.00,72.11,0
60.00,69.20,0
70.00,66.58,0
69.00,64.61,0
48.00,63.10,0
64.00,61.75,0
69.00,60.71,0
74.00,60.19,0
73.00,60.20,0
66.00,60.58,0
74.00,61.18,0
105.00,62.24,0
122.00,64.35,0
98.00,67.50,0
64.00,70.81,0
43.00,73.22,0
74.00,74.47,0
78.00,75.18,0
95.00,75.93,0
67.00,76.75,0
62.00,77.24,0
101.00,77.48,0
60.00,77.78,0
78.00,77.91,0
110.00,78.12,0
68.00,78.72,0
37.00,78.91,0
58.00,78.08,0
137.00,77.27,0
83.00,77.53,0
37.00,77.96,0
84.00,77.72,0
50.00,77.07,0
37.00,75.85,0
103.00,74.29,0
38.00,72.98,0
52.00,71.47,0
66.00,69.69,0
58.00,68.03,0
66.00,66.57,0
70.00,65.40,0
107.00,64.95,0
50.00,65.22,0
127.00,66.03,0
82.00,67.66,0
95.00,69.85,0
78.00,72.10,0
97.00,74.30,0
68.00,76.33,0
127.00,78.32,0
72.00,80.50,0
62.00,82.25,0
77.00,83.12,0
110.00,83.72,0
64.00,84.40,0
65.00,84.63,0
46.00,83.99,0
40.00,82.36,0
80.00,80.10,0
188.00,78.95,0
36.00,79.53,0
79.00,80.14,0
36.00,79.85,0
83.00,78.92,0
68.00,77.83,0
47.00,76.63,0
50.00,74.94,0
72.00,72.99,0
66.00,71.24,0
50.00,69.66,0
229.00,69.41,0
74.00,71.76,0
82.00,74.98,0
76.00,77.54,0
86.00,79.56,0
38.00,80.84,0
84.00,81.16,0
86.00,81.14,0
34.00,80.83,0
80.00,79.85,0
58.00,78.56,0
53.00,77.04,0
78.00,75.34,0
89.00,74.02,0
39.00,73.01,0
69.00,71.78,0
37.00,70.24,0
56.00,68.39,0
102.00,66.80,0
62.00,66.04,0
54.00,65.60,0
38.00,64.81,0
50.00,63.56,0
42.00,62.01,0
50.00,60.29,0
73.00,58.78,0
63.00,57.82,0
67.00,57.38,0
80.00,57.43,0
76.00,58.08,0
87.00,59.28,0
93.00,61.07,0
100.00,63.50,0
81.00,66.35,0
69.00,69.05,0
65.00,71.17,0
62.00,72.58,0
77.00,73.45,0
56.00,73.94,0
95.00,74.21,0
79.00,74.65,0
77.00,75.24,0
62.00,75.64,0
98.00,75.91,0
68.00,76.31,0
48.00,76.42,0
73.00,75.93,0
68.00,75.21,0
92.00,74.67,0
35.00,74.16,0
46.00,73.04,0
58.00,71.31,0
43.00,69.33,0
66.00,67.27,0
66.00,65.48,0
44.00,63.95,0
49.00,62.35,0
56.00,60.71,0
44.00,59.15,0
73.00,57.80,0
58.00,56.91,0
34.00,56.20,0
90.00,55.58,0
60.00,55.54,0
78.00,56.05,0
60.00,56.87,0
86.00,57.95,0
87.00,59.49,0
103.00,61.69,0
58.00,64.22,0
59.00,66.32,0
57.00,67.65,0
87.00,68.58,0
45.00,69.29,0
60.00,69.50,0
45.00,69.10,0
52.00,68.18,0
95.00,67.25,0
65.00,66.85,0
58.00,66.67,0
45.00,66.21,0
70.00,65.47,0
145.00,65.48,0
35.00,66.59,0
46.00,67.39,0
36.00,67.12,0
34.00,65.96,0
56.00,64.22,0
44.00,62.34,0
54.00,60.49,0
71.00,58.93,0
56.00,57.88,0
92.00,57.44,0
122.00,58.19,0
56.00,60.09,0
64.00,62.01,0
87.00,63.66,0
80.00,65.44,0
101.00,67.51,0
140.00,70.34,0
41.00,73.65,0
70.00,76.14,0
73.00,77.60,0
48.00,78.34,0
66.00,78.24,0
70.00,77.66,0
89.00,77.08,0
77.00,76.78,0
59.00,76.51,0
65.00,75.92,0
72.00,75.12,0
196.00,75.38,0
62.00,77.42,0
83.00,79.74,0
36.00,81.05,0
52.00,81.05,0
35.00,79.81,0
79.00,77.90,0
48.00,75.86,0
95.00,74.04,0
82.00,72.85,0
89.00,72.41,0
38.00,72.15,0
62.00,71.45,0
65.00,70.43,0
104.00,69.77,0
76.00,69.86,0
95.00,70.51,0
43.00,71.23,0
41.00,71.25,0
67.00,70.50,0
85.00,69.75,0
58.00,69.30,0
77.00,68.97,0
56.00,68.65,0
75.00,68.32,0
94.00,68.29,0
71.00,68.78,0
58.00,69.30,0
58.00,69.44,0
52.00,69.11,0
75.00,68.53,0
81.00,68.17,0
63.00,68.12,0
50.00,67.95,0
52.00,67.36,0
38.00,66.27,0
44.00,64.67,0
65.00,62.89,0
45.00,61.27,0
65.00,59.83,0
105.00,59.07,0
63.00,59.34,0
79.00,60.15,0
76.00,61.23,0
63.00,62.45,0
71.00,63.58,0
58.00,64.50,0
75.00,65.24,0
93.00,66.13,0
69.00,67.35,0
67.00,68.51,0
78.00,69.44,0
125.00,70.74,0
64.00,72.62,0
99.00,74.56,0
72.00,76.33,0
51.00,77.58,0
72.00,78.01,0
72.00,77.96,0
54.00,77.57,0
70.00,76.78,0
82.00,75.92,0
74.00,75.31,0
35.00,74.54,0
82.00,73.37,0
36.00,71.99,0
57.00,70.30,0
69.00,68.51,0
39.00,66.82,0
84.00,65.24,0
75.00,64.20,0
40.00,63.55,0
64.00,62.77,0
112.00,62.41,0
83.00,63.14,0
81.00,64.57,0
70.00,66.13,0
60.00,67.45,0
67.00,68.35,0
79.00,69.03,0
86.00,69.84,0
69.00,70.79,0
68.00,71.58,0
73.00,72.11,0
77.00,72.54,0
37.00,72.65,0
64.00,72.11,0
36.00,70.97,0
49.00,69.28,0
101.00,67.65,0
60.00,66.75,0
58.00,66.16,0
54.00,65.42,0
80.00,64.74,0
35.00,64.13,0
50.00,63.20,0
37.00,61.83,0
36.00,60.06,0
50.00,58.05,0
61.00,56.22,0
37.00,54.71,0
46.00,53.24,0
66.00,51.98,0
68.00,51.33,0
74.00,51.42,0
40.00,51.91,0
64.00,52.36,0
63.00,52.88,0
114.00,54.05,0
53.00,56.00,0
93.00,58.21,0
76.00,60.58,0
63.00,62.92,0
58.00,64.77,0
88.00,66.24,0
53.00,67.54,0
56.00,68.36,0
57.00,68.56,0
54.00,68.30,0
53.00,67.64,0
97.00,67.03,0
76.00,67.03,0
149.00,68.09,0
43.00,70.10,0
58.00,71.72,0
52.00,72.31,0
35.00,72.01,0
104.00,71.26,0
46.00,70.73,0
65.00,70.14,0
74.00,69.44,0
74.00,68.99,0
69.00,68.77,0
130.00,69.16,0
81.00,70.54,0
96.00,72.46,0
50.00,74.20,0
77.00,75.32,0
81.00,76.04,0
93.00,76.82,0
47.00,77.47,0
37.00,77.25,0
74.00,76.15,0
64.00,74.85,0
68.00,73.62,0
67.00,72.46,0
67.00,71.40,0
46.00,70.28,0
70.00,69.00,0
78.00,67.93,0
39.00,67.06,0
36.00,65.78,0
60.00,64.04,0
106.00,62.77,0
38.00,62.30,0
87.00,62.10,0
36.00,61.94,0
39.00,61.42,0
99.00,60.75,0
112.00,61.11,0
44.00,62.40,0
72.00,63.56,0
40.00,64.23,0
48.00,64.27,0
52.00,63.74,0
58.00,62.96,0
67.00,62.23,0
68.00,61.76,0
192.00,62.63,0
71.00,65.54,0
82.00,69.01,0
77.00,71.95,0
106.00,74.64,0
60.00,77.09,0
128.00,79.33,0
56.00,81.49,0
71.00,83.00,0
58.00,83.53,0
99.00,83.54,0
58.00,83.38,0
47.00,82.67,0
54.00,81.10,0
53.00,78.94,0
36.00,76.31,0
39.00,73.13,0
124.00,70.26,0
39.00,68.45,0
53.00,66.92,0
58.00,65.23,0
42.00,63.53,0
88.00,62.04,0
82.00,61.34,0
86.00,61.56,0
81.00,62.46,0
39.00,63.45,0
47.00,63.81,0
39.00,63.39,0
70.00,62.59,0
42.00,61.75,0
71.00,60.92,0
68.00,60.37,0
52.00,60.09,0
58.00,59.79,0
50.00,59.39,0
42.00,58.77,0
77.00,58.11,0
69.00,57.87,0
54.00,57.99,0
69.00,58.21,0
124.00,59.05,0
55.00,60.84,0
72.00,62.71,0
58.00,64.19,0
42.00,65.09,0
46.00,65.18,0
123.00,65.21,0
59.00,65.98,0
38.00,66.69,0
81.00,66.82,0
41.00,66.69,0
120.00,66.73,0
55.00,67.33,0
48.00,67.86,0
61.00,67.76,0
57.00,67.33,0
60.00,66.71,0
67.00,66.05,0
70.00,65.55,0
70.00,65.29,0
60.00,65.17,0
122.00,65.50,0
63.00,66.62,0
67.00,67.87,0
149.00,69.44,0
70.00,71.94,0
61.00,74.35,0
162.00,76.65,0
70.00,79.64,0
94.00,82.54,0
81.00,84.83,0
55.00,86.33,0
53.00,86.64,0
108.00,86.24,0
75.00,85.92,0
41.00,85.31,0
79.00,83.99,0
70.00,82.43,0
55.00,80.79,0
38.00,78.67,0
67.00,76.10,0
76.00,73.68,0
60.00,71.71,0
59.00,69.95,0
40.00,68.10,0
83.00,66.28,0
85.00,65.12,0
109.00,65.07,0
56.00,65.85,0
127.00,67.14,0
46.00,68.84,0
61.00,70.16,0
130.00,71.32,0
77.00,73.12,0
42.00,74.77,0
71.00,75.47,0
55.00,75.49,0
110.00,75.41,0
58.00,75.60,0
58.00,75.60,0
83.00,75.22,0
47.00,74.69,0
87.00,74.00,0
72.00,73.45,0
72.00,73.11,0
65.00,72.76,0
44.00,72.12,0
45.00,70.89,0
122.00,69.72,0
57.00,69.40,0
36.00,69.11,0
67.00,68.22,0
49.00,67.11,0
34.00,65.68,0
83.00,64.09,0
59.00,62.89,0
55.00,62.02,0
61.00,61.21,0
57.00,60.50,0
39.00,59.73,0
46.00,58.67,0
50.00,57.42,0
127.00,56.83,0
94.00,57.77,0
70.00,59.76,0
66.00,61.78,0
69.00,63.52,0
117.00,65.38,0
62.00,67.65,0
94.00,69.91,0
70.00,71.95,0
45.00,73.44,0
84.00,74.15,0
125.00,75.03,0
58.00,76.47,0
46.00,77.41,0
72.00,77.39,0
45.00,76.77,0
51.00,75.52,0
82.00,73.97,0
54.00,72.57,0
39.00,71.00,0
40.00,68.88,0
69.00,66.55,0
72.00,64.64,0
42.00,63.16,0
62.00,61.75,0
42.00,60.36,0
46.00,58.89,0
77.00,57.57,0
47.00,56.71,0
62.00,56.10,0
58.00,55.68,0
59.00,55.48,0
60.00,55.45,0
96.00,55.85,0
53.00,56.84,0
71.00,57.97,0
104.00,59.38,0
81.00,61.47,0
62.00,63.73,0
72.00,65.64,0
74.00,67.23,0
34.00,68.31,0
45.00,68.42,0
90.00,68.00,0
146.00,68.51,0
77.00,70.44,0
44.00,72.42,0
85.00,73.60,0
92.00,74.59,0
54.00,75.55,0
77.00,76.07,0
37.00,75.97,0
47.00,75.00,0
84.00,73.57,0
112.00,72.75,0
37.00,72.57,0
72.00,72.16,0
61.00,71.47,0
83.00,70.87,0
43.00,70.30,0
69.00,69.51,0
79.00,68.76,0
68.00,68.36,0
74.00,68.18,0
69.00,68.14,0
73.00,68.22,0
45.00,68.17,0
84.00,67.92,0
58.00,67.73,0
62.00,67.51,0
44.00,66.97,0
73.00,66.20,0
56.00,65.45,0
77.00,64.89,0
48.00,64.45,0
78.00,64.06,0
60.00,63.83,0
42.00,63.52,0
43.00,62.74,0
43.00,61.49,0
58.00,60.05,0
47.00,58.67,0
39.00,57.27,0
69.00,55.91,0
66.00,55.04,0
53.00,54.66,0
83.00,54.66,0
112.00,55.60,0
44.00,57.36,0
51.00,58.88,0
72.00,59.90,0
44.00,60.67,0
80.00,61.23,0
63.00,61.83,0
78.00,62.60,0
66.00,63.47,0
82.00,64.44,0
81.00,65.62,0
57.00,66.84,0
62.00,67.67,0
99.00,68.38,0
61.00,69.31,0
76.00,70.19,0
115.00,71.24,0
48.00,72.61,0
74.00,73.60,0
97.00,74.34,0
43.00,75.02,0
60.00,75.06,0
54.00,74.41,0
46.00,73.22,0
67.00,71.66,0
64.00,70.12,0
48.00,68.64,0
68.00,67.13,0
63.00,65.80,0
61.00,64.73,0
109.00,64.20,0
62.00,64.49,0
121.00,65.50,0
68.00,67.17,0
70.00,68.92,0
37.00,70.00,0
63.00,70.23,0
59.00,69.91,0
86.00,69.57,0
44.00,69.28,0
92.00,68.97,0
81.00,69.00,0
51.00,69.27,0
64.00,69.23,0
91.00,69.14,0
52.00,69.25,0
80.00,69.32,0
35.00,69.12,0
46.00,68.29,0
58.00,66.94,0
73.00,65.64,0
72.00,64.76,0
71.00,64.34,0
69.00,64.23,0
41.00,64.09,0
51.00,63.54,0
50.00,62.61,0
46.00,61.47,0
61.00,60.25,0
36.00,59.01,0
56.00,57.68,0
125.00,57.02,0
108.00,58.04,0
42.00,60.06,0
54.00,61.65,0
74.00,62.67,0
39.00,63.37,0
63.00,63.57,0
72.00,63.59,0
78.00,63.85,0
88.00,64.55,0
128.00,66.11,0
86.00,68.65,0
58.00,71.27,0
59.00,73.06,0
81.00,74.13,0
67.00,74.88,0
82.00,75.42,0
67.00,75.81,0
74.00,75.99,0
48.00,75.79,0
59.00,75.02,0
75.00,73.95,0
48.00,72.81,0
47.00,71.35,0
55.00,69.50,0
56.00,67.56,0
53.00,65.67,0
36.00,63.70,0
65.00,61.67,0
36.00,59.75,0
81.00,58.13,0
73.00,57.21,0
67.00,57.04,0
66.00,57.29,0
51.00,57.65,0
59.00,57.89,0
71.00,58.15,0
85.00,58.78,0
66.00,59.87,0
112.00,61.43,0
73.00,63.58,0
57.00,65.72,0
99.00,67.53,0
71.00,69.37,0
67.00,71.02,0
99.00,72.44,0
44.00,73.67,0
115.00,74.67,0
130.00,76.29,0
60.00,78.60,0
130.00,80.90,0
53.00,83.05,0
63.00,84.42,0
79.00,84.80,0
111.00,85.03,0
74.00,85.49,0
89.00,85.89,0
122.00,86.44,0
189.00,88.30,0
63.00,91.46,0
106.00,94.32,0
79.00,96.30,0
108.00,97.71,0
130.00,99.05,0
58.00,100.32,0
75.00,100.63,0
91.00,100.01,0
49.00,98.76,0
138.00,97.25,0
76.00,96.20,0
83.00,95.31,0
43.00,93.83,0
109.00,91.90,0
52.00,89.99,0
84.00,88.01,0
90.00,86.16,0
70.00,84.66,0
62.00,83.14,0
104.00,81.70,0
105.00,80.99,0
55.00,80.83,0
61.00,80.32,0
88.00,79.47,0
51.00,78.57,0
76.00,77.50,0
77.00,76.43,0
50.00,75.41,0
48.00,74.00,0
127.00,72.73,0
101.00,72.71,0
59.00,73.49,0
121.00,74.47,0
72.00,75.82,0
116.00,77.50,0
58.00,79.20,0
37.00,80.09,0
68.00,79.78,0
57.00,78.81,0
69.00,77.54,0
127.00,76.67,0
88.00,76.89,0
158.00,78.31,0
70.00,80.72,0
80.00,83.00,0
54.00,84.35,0
93.00,84.89,0
167.00,85.87,0
44.00,87.67,0
78.00,88.89,0
77.00,89.16,0
50.00,88.76,0
159.00,88.30,0
52.00,88.49,0
96.00,88.69,0
79.00,88.57,0
85.00,88.36,0
74.00,87.95,0
53.00,87.08,0
64.00,85.56,0
57.00,83.54,0
72.00,81.31,0
88.00,79.32,0
83.00,77.92,0
97.00,77.18,0
36.00,76.66,0
104.00,75.98,0
46.00,75.35,0
73.00,74.60,0
69.00,73.72,0
66.00,72.90,0
178.00,73.00,0
78.00,74.83,0
107.00,77.39,0
42.00,79.54,0
133.00,81.21,0
74.00,82.96,0
74.00,84.48,0
70.00,85.25,0
118.00,85.77,0
65.00,86.39,0
162.00,87.39,0
67.00,89.05,0
36.00,90.11,0
58.00,89.55,0
68.00,87.98,0
67.00,86.03,0
81.00,84.05,0
36.00,81.95,0
131.00,80.00,0
40.00,78.67,0
61.00,77.30,0
48.00,75.44,0
64.00,73.37,0
115.00,71.78,0
70.00,71.21,0
133.00,71.62,0
119.00,73.31,0
66.00,75.80,0
66.00,77.79,0
76.00,79.01,0
49.00,79.53,0
100.00,79.56,0
102.00,79.85,0
67.00,80.50,0
73.00,80.88,0
56.00,80.73,0
44.00,79.84,0
69.00,78.28,0
76.00,76.65,0
55.00,75.15,0
52.00,73.49,0
54.00,71.56,0
45.00,69.43,0
34.00,66.97,0
145.00,65.03,0
55.00,64.52,0
177.00,65.56,0
42.00,67.91,0
76.00,70.24,0
71.00,71.87,0
161.00,73.86,0
138.00,77.32,0
54.00,81.46,0
61.00,84.46,0
136.00,86.51,0
97.00,88.76,0
85.00,90.96,0
74.00,92.45,0
80.00,93.11,0
101.00,93.31,0
42.00,93.05,0
66.00,91.86,0
37.00,89.67,0
110.00,87.10,0
127.00,85.45,0
104.00,85.24,0
137.00,86.18,0
89.00,87.90,0
60.00,89.40,0
110.00,90.21,0
45.00,90.54,0
73.00,90.05,0
60.00,88.78,0
83.00,87.16,0
47.00,85.32,0
65.00,83.09,0
50.00,80.53,0
66.00,77.84,0
56.00,75.19,0
52.00,72.59,0
62.00,70.04,0
56.00,67.71,0
46.00,65.52,0
125.00,63.95,0
82.00,63.76,0
50.00,64.31,0
94.00,64.88,0
66.00,65.68,0
56.00,66.45,0
57.00,66.78,0
76.00,66.85,0
76.00,67.05,0
59.00,67.36,0
136.00,68.09,0
86.00,69.86,0
70.00,72.01,0
72.00,73.73,0
76.00,74.99,0
58.00,75.81,0
85.00,76.21,0
82.00,76.55,0
62.00,76.86,0
61.00,76.75,0
68.00,76.21,0
37.00,75.22,0
40.00,73.48,0
153.00,71.97,0
50.00,71.71,0
59.00,71.71,0
102.00,71.58,0
37.00,71.59,0
38.00,71.01,0
62.00,69.66,0
39.00,68.00,0
59.00,66.13,0
61.00,64.32,0
36.00,62.61,0
90.00,61.09,0
41.00,60.03,0
98.00,59.48,0
144.00,60.24,0
139.00,63.18,0
137.00,67.99,0
64.00,73.34,0
121.00,78.16,0
59.00,82.26,0
79.00,85.29,0
64.00,87.10,0
36.00,87.59,0
53.00,86.62,0
92.00,84.96,0
62.00,83.36,0
41.00,81.50,0
88.00,79.31,0
106.00,77.70,0
134.00,77.50,0
124.00,78.92,0
135.00,81.65,0
51.00,84.71,0
48.00,86.59,0
63.00,86.89,0
39.00,86.00,0
52.00,84.07,0
46.00,81.38,0
97.00,78.64,0
48.00,76.35,0
98.00,74.48,0
49.00,73.03,0
67.00,71.68,0
61.00,70.30,0
87.00,69.21,0
98.00,68.84,0
79.00,69.28,0
60.00,69.95,0
79.00,70.43,0
116.00,71.24,0
48.00,72.47,0
56.00,73.22,0
74.00,73.30,0
58.00,73.10,0
70.00,72.68,0
91.00,72.35,0
62.00,72.29,0
123.00,72.66,0
35.00,73.37,0
78.00,73.72,0
55.00,73.59,0
34.00,72.88,0
59.00,71.43,0
56.00,69.69,0
36.00,67.76,0
47.00,65.50,0
36.00,62.98,0
63.00,60.49,0
60.00,58.44,0
58.00,56.94,0
80.00,56.03,0
68.00,55.84,0
78.00,56.30,0
67.00,57.19,0
110.00,58.65,0
56.00,60.65,0
78.00,62.65,0
84.00,64.55,0
56.00,66.35,0
74.00,67.76,0
71.00,68.87,0
72.00,69.81,0
56.00,70.46,0
51.00,70.56,0
53.00,70.06,0
144.00,69.84,0
40.00,70.53,0
55.00,71.02,0
55.00,70.74,0
48.00,69.95,0
35.00,68.58,0
52.00,66.68,0
50.00,64.59,0
108.00,63.01,0
56.00,62.39,0
35.00,61.96,0
81.00,61.29,0
48.00,60.79,0
55.00,60.31,0
75.00,59.88,0
114.00,60.21,0
128.00,62.03,0
44.00,64.80,0
61.00,67.06,0
78.00,68.58,0
154.00,70.53,0
59.00,73.36,0
67.00,75.88,0
80.00,77.55,0
98.00,78.94,0
88.00,80.40,0
48.00,81.51,0
65.00,81.72,0
103.00,81.49,0
65.00,81.41,0
52.00,81.01,0
98.00,80.23,0
72.00,79.64,0
55.00,79.01,0
102.00,78.26,0
43.00,77.61,0
60.00,76.59,0
81.00,75.31,0
76.00,74.31,0
126.00,74.05,0
84.00,74.81,0
44.00,75.71,0
66.00,75.86,0
39.00,75.24,0
48.00,73.86,0
134.00,72.60,0
44.00,72.23,0
60.00,71.88,0
77.00,71.24,0
57.00,70.63,0
42.00,69.76,0
135.00,69.08,0
68.00,69.41,0
95.00,70.40,0
72.00,71.55,0
72.00,72.63,0
58.00,73.31,0
120.00,73.96,0
38.00,74.77,0
164.00,75.90,0
57.00,77.74,0
161.00,80.19,0
64.00,83.05,0
36.00,85.17,0
42.00,85.44,0
36.00,84.12,0
56.00,81.74,0
70.00,79.04,0
39.00,76.32,0
40.00,73.28,0
81.00,70.21,0
81.00,67.89,0
50.00,66.31,0
64.00,64.94,0
39.00,63.54,0
76.00,62.19,0
41.00,61.02,0
60.00,59.91,0
86.00,59.13,0
38.00,58.82,0
102.00,58.81,0
71.00,59.45,0
50.00,60.40,0
72.00,61.13,0
66.00,61.81,0
34.00,62.25,0
127.00,62.68,0
94.00,64.11,0
70.00,66.25,0
69.00,68.19,0
150.00,70.37,0
44.00,73.11,0
89.00,75.48,0
98.00,77.42,0
64.00,79.23,0
74.00,80.47,0
35.00,80.79,0
43.00,79.91,0
43.00,77.96,0
39.00,75.29,0
41.00,72.12,0
38.00,68.65,0
48.00,65.10,0
45.00,61.72,0
50.00,58.68,0
94.00,56.39,0
63.00,55.28,0
100.00,55.25,0
55.00,56.01,0
47.00,56.87,0
68.00,57.44,0
144.00,58.67,0
58.00,61.08,0
56.00,63.51,0
70.00,65.25,0
52.00,66.46,0
46.00,67.00,0
53.00,66.83,0
50.00,66.16,0
69.00,65.31,0
49.00,64.46,0
80.00,63.72,0
76.00,63.40,0
66.00,63.53,0
61.00,63.75,0
99.00,64.18,0
70.00,65.10,0
89.00,66.35,0
126.00,68.20,0
92.00,70.92,0
166.00,74.58,0
105.00,79.24,0
34.00,83.56,0
49.00,85.92,0
79.00,86.61,0
70.00,86.57,0
43.00,85.84,0
100.00,84.56,0
39.00,83.12,0
57.00,81.22,0
47.00,78.74,0
122.00,76.51,0
38.00,75.00,0
85.00,73.71,0
79.00,72.67,0
72.00,72.07,0
81.00,71.76,0
67.00,71.63,0
92.00,71.70,0
45.00,71.84,0
47.00,71.45,0
69.00,70.51,0
42.00,69.35,0
67.00,67.99,0
43.00,66.52,0
108.00,65.36,0
52.00,64.88,0
60.00,64.62,0
55.00,64.17,0
43.00,63.47,0
39.00,62.32,0
56.00,60.85,0
43.00,59.33,0
39.00,57.70,0
73.00,56.16,0
40.00,54.99,0
58.00,54.03,0
51.00,53.22,0
55.00,52.63,0
49.00,52.17,0
62.00,51.88,0
72.00,51.96,0
45.00,52.38,0
72.00,52.90,0
64.00,53.64,0
172.00,55.50,0
58.00,58.92,0
65.00,62.49,0
59.00,65.18,0
113.00,67.51,0
46.00,69.79,0
67.00,71.46,0
70.00,72.44,0
113.00,73.43,0
97.00,75.00,0
55.00,76.70,0
96.00,77.97,0
42.00,78.74,0
63.00,78.74,0
56.00,77.99,0
35.00,76.57,0
37.00,74.33,0
93.00,71.83,0
36.00,69.70,0
64.00,67.67,0
68.00,65.81,0
44.00,64.24,0
37.00,62.51,0
34.00,60.40,0
59.00,58.15,0
40.00,56.10,0
38.00,54.15,0
49.00,52.25,0
63.00,50.72,0
37.00,49.63,0
62.00,48.81,0
61.00,48.41,0
55.00,48.47,0
178.00,49.80,0
112.00,53.51,0
78.00,58.51,0
75.00,63.22,0
50.00,67.00,0
127.00,70.15,0
70.00,73.31,0
148.00,76.72,0
92.00,80.56,0
110.00,84.47,0
114.00,88.17,0
70.00,91.44,0
57.00,93.47,0
42.00,93.80,0
84.00,92.80,0
72.00,91.29,0
58.00,89.50,0
40.00,87.07,0
62.00,84.00,0
40.00,80.58,0
42.00,76.84,0
55.00,72.94,0
64.00,69.36,0
108.00,66.74,0
60.00,65.35,0
154.00,65.29,0
77.00,66.74,0
134.00,69.32,0
75.00,72.44,0
53.00,75.21,0
61.00,76.81,0
104.00,77.80,0
36.00,78.50,0
68.00,78.45,0
70.00,77.82,0
70.00,77.06,0
59.00,76.17,0
136.00,75.64,0
67.00,76.03,0
44.00,76.41,0
49.00,75.85,0
101.00,74.93,0
70.00,74.40,0
36.00,73.83,0
58.00,72.61,0
44.00,70.90,0
36.00,68.76,0
43.00,66.18,0
36.00,63.33,0
37.00,60.34,0
45.00,57.35,0
47.00,54.62,0
37.00,52.19,0
50.00,50.04,0
39.00,48.20,0
53.00,46.71,0
55.00,45.68,0
65.00,45.27,0
91.00,45.75,0
74.00,47.23,0
81.00,49.45,0
88.00,52.18,0
74.00,55.26,0
84.00,58.42,0
81.00,61.56,0
77.00,64.58,0
160.00,68.01,0
73.00,72.24,0
89.00,76.33,0
57.00,79.46,0
207.00,82.61,0
118.00,87.13,0
170.00,92.75,0
96.00,98.53,0
63.00,103.17,0
120.00,106.13,0
74.00,107.99,0
136.00,109.17,0
67.00,109.87,0
114.00,109.95,0
59.00,109.30,0
80.00,107.77,0
56.00,105.33,0
58.00,102.06,0
80.00,98.27,0
45.00,94.31,0
46.00,89.98,0
71.00,85.43,0
73.00,81.31,0
38.00,77.59,0
88.00,74.16,0
51.00,71.30,0
55.00,68.79,0
84.00,66.63,0
85.00,65.33,0
46.00,64.66,0
57.00,63.94,0
73.00,63.21,0
72.00,62.84,0
41.00,62.61,0
65.00,62.17,0
88.00,61.93,0
48.00,62.08,0
109.00,62.56,0
63.00,63.59,0
47.00,64.59,0
76.00,65.14,0
58.00,65.53,0
69.00,65.82,0
36.00,65.79,0
56.00,65.21,0
43.00,64.21,0
92.00,63.26,0
61.00,62.82,0
47.00,62.57,0
48.00,61.98,0
41.00,61.01,0
43.00,59.69,0
106.00,58.63,0
64.00,58.54,0
38.00,58.78,0
86.00,58.89,0
43.00,59.12,0
82.00,59.44,0
77.00,60.06,0
59.00,60.99,0
49.00,61.69,0
57.00,61.96,0
65.00,62.00,0
39.00,61.85,0
53.00,61.31,0
62.00,60.58,0
125.00,60.52,0
43.00,61.41,0
98.00,62.60,0
54.00,63.86,0
40.00,64.74,0
62.00,64.88,0
38.00,64.51,0
47.00,63.63,0
58.00,62.43,0
69.00,61.37,0
35.00,60.44,0
115.00,59.84,0
64.00,60.12,0
51.00,60.78,0
69.00,61.21,0
40.00,61.41,0
94.00,61.54,0
35.00,61.77,0
58.00,61.74,0
78.00,61.58,0
65.00,61.72,0
52.00,61.93,0
86.00,62.15,0
115.00,63.08,0
74.00,64.91,0
53.00,66.77,0
65.00,68.00,0
68.00,68.77,0
41.00,69.07,0
42.00,68.62,0
92.00,67.80,0
47.00,67.19,0
44.00,66.40,0
128.00,65.79,0
93.00,66.41,0
105.00,68.15,0
72.00,70.31,0
37.00,71.99,0
63.00,72.61,0
68.00,72.60,0
54.00,72.28,0
47.00,71.50,0
60.00,70.26,0
60.00,68.87,0
67.00,67.58,0
84.00,66.67,0
66.00,66.26,0
62.00,66.06,0
36.00,65.59,0
74.00,64.78,0
142.00,64.72,0
78.00,66.14,0
63.00,68.02,0
35.00,69.18,0
47.00,69.26,0
48.00,68.51,0
102.00,67.69,0
47.00,67.31,0
113.00,67.34,0
44.00,67.76,0
99.00,68.32,0
54.00,68.94,0
51.00,69.26,0
74.00,69.11,0
144.00,69.54,0
39.00,70.89,0
44.00,71.77,0
70.00,71.70,0
46.00,71.17,0
49.00,70.17,0
46.00,68.65,0
47.00,66.78,0
48.00,64.71,0
53.00,62.62,0
62.00,60.75,0
39.00,59.10,0
61.00,57.55,0
44.00,56.17,0
63.00,55.02,0
91.00,54.47,0
78.00,54.92,0
49.00,55.90,0
74.00,56.86,0
91.00,58.09,0
62.00,59.72,0
82.00,61.45,0
43.00,62.95,0
65.00,63.94,0
74.00,64.61,0
77.00,65.39,0
54.00,66.14,0
68.00,66.62,0
73.00,66.96,0
36.00,67.07,0
58.00,66.62,0
217.00,67.12,0
92.00,70.13,0
53.00,73.86,0
48.00,76.29,0
38.00,77.17,0
47.00,76.71,0
58.00,75.39,0
45.00,73.61,0
37.00,71.35,0
53.00,68.70,0
37.00,65.91,0
41.00,62.99,0
64.00,60.21,0
36.00,57.80,0
50.00,55.60,0
141.00,54.39,0
70.00,54.98,0
55.00,56.40,0
70.00,57.67,0
107.00,59.23,0
66.00,61.34,0
83.00,63.58,0
53.00,65.53,0
71.00,67.00,0
69.00,68.09,0
56.00,68.85,0
59.00,69.13,0
84.00,69.19,0
63.00,69.35,0
45.00,69.28,0
56.00,68.67,0
157.00,68.52,0
59.00,69.69,0
48.00,70.94,0
39.00,71.16,0
37.00,70.32,0
56.00,68.75,0
60.00,67.02,0
61.00,65.45,0
36.00,63.89,0
56.00,62.16,0
38.00,60.32,0
43.00,58.38,0
49.00,56.40,0
88.00,54.93,0
38.00,54.17,0
78.00,53.80,0
47.00,53.73,0
52.00,53.75,0
58.00,53.72,0
45.00,53.68,0
62.00,53.61,0
74.00,53.79,0
58.00,54.37,0
58.00,55.05,0
56.00,55.65,0
54.00,56.12,0
60.00,56.48,0
68.00,56.88,0
62.00,57.44,0
103.00,58.40,0
38.00,59.72,0
136.00,61.36,0
63.00,63.66,0
55.00,65.93,0
53.00,67.34,0
36.00,67.80,0
59.00,67.43,0
97.00,67.00,0
42.00,66.90,0
35.00,66.39,0
49.00,65.15,0
36.00,63.45,0
38.00,61.37,0
44.00,59.06,0
66.00,56.93,0
41.00,55.23,0
59.00,53.82,0
70.00,52.86,0
57.00,52.50,0
81.00,52.69,0
50.00,53.31,0
69.00,54.09,0
63.00,54.96,0
36.00,55.72,0
59.00,56.06,0
51.00,56.16,0
50.00,56.12,0
60.00,55.98,0
108.00,56.31,0
36.00,57.30,0
122.00,58.65,0
68.00,60.61,0
36.00,62.53,0
56.00,63.54,0
59.00,63.93,0
48.00,63.94,0
43.00,63.47,0
45.00,62.49,0
46.00,61.16,0
43.00,59.62,0
40.00,57.90,0
40.00,56.02,0
39.00,54.06,0
47.00,52.15,0
50.00,50.49,0
36.00,49.07,0
57.00,47.85,0
38.00,46.89,0
73.00,46.32,0
58.00,46.35,0
58.00,46.87,0
46.00,47.54,0
51.00,48.14,0
69.00,48.79,0
58.00,49.72,0
116.00,51.26,0
65.00,53.67,0
71.00,56.34,0
54.00,58.67,0
137.00,61.11,0
45.00,64.02,0
84.00,66.68,0
126.00,69.30,0
44.00,72.15,0
54.00,74.15,0
71.00,75.06,0
56.00,75.36,0
34.00,74.88,0
62.00,73.59,0
38.00,71.79,0
46.00,69.58,0
66.00,67.21,0
36.00,64.97,0
35.00,62.54,0
66.00,60.05,0
36.00,57.85,0
38.00,55.72,0
73.00,53.79,0
38.00,52.38,0
52.00,51.24,0
83.00,50.54,0
66.00,50.68,0
55.00,51.34,0
70.00,52.17,0
40.00,53.02,0
35.00,53.45,0
81.00,53.59,0
64.00,54.08,0
69.00,54.97,0
58.00,55.97,0
141.00,57.57,0
57.00,60.19,0
89.00,63.03,0
68.00,65.61,0
36.00,67.56,0
58.00,68.43,0
38.00,68.41,0
36.00,67.55,0
38.00,65.87,0
39.00,63.68,0
40.00,61.19,0
46.00,58.65,0
39.00,56.18,0
36.00,53.78,0
35.00,51.38,0
47.00,49.12,0
37.00,47.16,0
41.00,45.45,0
76.00,44.25,0
41.00,43.82,0
48.00,43.75,0
62.00,43.89,0
62.00,44.48,0
54.00,45.44,0
50.00,46.49,0
68.00,47.58,0
68.00,48.94,0
73.00,50.64,0
70.00,52.61,0
64.00,54.65,0
75.00,56.65,0
152.00,59.32,0
59.00,63.00,0
106.00,66.82,0
48.00,70.15,0
55.00,72.49,0
50.00,73.59,0
78.00,73.93,0
35.00,73.74,0
49.00,72.77,0
46.00,71.11,0
98.00,69.47,0
67.00,68.49,0
40.00,67.73,0
36.00,66.41,0
74.00,64.76,0
35.00,63.17,0
40.00,61.40,0
95.00,59.76,0
58.00,58.92,0
43.00,58.43,0
71.00,57.91,0
47.00,57.52,0
64.00,57.21,0
88.00,57.25,0
61.00,57.88,0
58.00,58.66,0
56.00,59.25,0
84.00,59.83,0
74.00,60.76,0
60.00,61.87,0
65.00,62.80,0
117.00,63.98,0
55.00,65.68,0
120.00,67.66,0
65.00,69.90,0
52.00,71.79,0
44.00,72.61,0
73.00,72.60,0
47.00,72.15,0
52.00,71.23,0
54.00,69.87,0
42.00,68.19,0
41.00,66.14,0
39.00,63.75,0
42.00,61.15,0
74.00,58.79,0
34.00,56.90,0
38.00,55.07,0
89.00,53.51,0
39.00,52.66,0
41.00,51.99,0
68.00,51.32,0
46.00,50.96,0
76.00,50.96,0
52.00,51.33,0
59.00,51.89,0
67.00,52.56,0
48.00,53.32,0
80.00,54.15,0
46.00,55.08,0
70.00,55.97,0
59.00,56.82,0
127.00,58.19,0
56.00,60.36,0
149.00,63.21,0
37.00,66.51,0
50.00,69.07,0
64.00,70.40,0
57.00,71.03,0
65.00,71.16,0
95.00,71.24,0
55.00,71.50,0
35.00,71.32,0
53.00,70.29,0
41.00,68.69,0
35.00,66.61,0
65.00,64.28,0
40.00,62.09,0
42.00,59.91,0
80.00,57.96,0
43.00,56.59,0
42.00,55.39,0
56.00,54.16,0
64.00,53.25,0
67.00,52.86,0
56.00,52.92,0
52.00,53.12,0
53.00,53.28,0
68.00,53.50,0
76.00,54.10,0
61.00,55.08,0
50.00,56.05,0
62.00,56.78,0
119.00,57.88,0
87.00,60.00,0
116.00,63.00,0
79.00,66.49,0
49.00,69.61,0
62.00,71.65,0
55.00,72.71,0
123.00,73.56,0
90.00,75.00,0
54.00,76.56,0
44.00,77.22,0
51.00,76.77,0
47.00,75.49,0
53.00,73.65,0
56.00,71.55,0
42.00,69.31,0
37.00,66.77,0
34.00,63.87,0
52.00,60.85,0
44.00,58.05,0
54.00,55.61,0
56.00,53.63,0
46.00,52.11,0
47.00,50.84,0
56.00,49.81,0
51.00,49.12,0
55.00,48.73,0
73.00,48.76,0
40.00,49.17,0
109.00,50.01,0
53.00,51.56,0
144.00,54.01,0
77.00,57.53,0
103.00,61.61,0
90.00,65.77,0
34.00,69.37,0
56.00,71.57,0
58.00,72.56,0
85.00,73.04,0
76.00,73.50,0
81.00,74.05,0
43.00,74.34,0
59.00,73.97,0
37.00,72.89,0
49.00,71.16,0
63.00,69.13,0
58.00,67.22,0
50.00,65.44,0
44.00,63.60,0
45.00,61.60,0
52.00,59.59,0
63.00,57.84,0
35.00,56.36,0
60.00,54.96,0
61.00,53.87,0
77.00,53.40,0
43.00,53.41,0
56.00,53.46,0
82.00,53.69,0
38.00,54.22,0
127.00,55.18,0
70.00,57.06,0
100.00,59.65,0
125.00,62.91,0
66.00,66.74,0
76.00,70.19,0
44.00,72.66,0
48.00,73.89,0
84.00,74.24,0
45.00,74.21,0
46.00,73.55,0
42.00,72.10,0
36.00,69.99,0
50.00,67.42,0
38.00,64.68,0
39.00,61.83,0
63.00,59.10,0
36.00,56.73,0
34.00,54.46,0
62.00,52.30,0
43.00,50.59,0
37.00,49.15,0
41.00,47.74,0
83.00,46.76,0
60.00,46.67,0
40.00,47.07,0
79.00,47.62,0
99.00,48.92,0
94.00,51.35,0
92.00,54.63,0
43.00,57.97,0
115.00,61.01,0
54.00,64.01,0
82.00,66.69,0
79.00,68.98,0
75.00,71.04,0
65.00,72.69,0
36.00,73.53,0
67.00,73.43,0
57.00,72.81,0
60.00,71.92,0
41.00,70.68,0
49.00,68.97,0
115.00,67.50,0
54.00,66.90,0
47.00,66.46,0
68.00,65.72,0
62.00,65.00,0
52.00,64.33,0
39.00,63.39,0
43.00,62.01,0
51.00,60.36,0
37.00,58.61,0
60.00,56.88,0
76.00,55.61,0
39.00,54.88,0
44.00,54.15,0
62.00,53.37,0
64.00,52.92,0
51.00,52.83,0
78.00,53.02,0
48.00,53.53,0
89.00,54.32,0
110.00,55.90,0
102.00,58.64,0
43.00,61.75,0
142.00,64.79,0
67.00,68.22,0
61.00,71.35,0
66.00,73.48,0
69.00,74.83,0
38.00,75.38,0
44.00,74.86,0
43.00,73.38,0
56.00,71.37,0
46.00,69.15,0
73.00,67.00,0
43.00,65.09,0
42.00,63.15,0
43.00,60.99,0
38.00,58.71,0
65.00,56.55,0
45.00,54.81,0
36.00,53.25,0
92.00,52.03,0
41.00,51.53,0
34.00,51.17,0
50.00,50.52,0
60.00,49.96,0
40.00,49.62,0
55.00,49.33,0
69.00,49.28,0
52.00,49.65,0
94.00,50.49,0
56.00,51.90,0
119.00,53.94,0
49.00,56.54,0
69.00,59.01,0
53.00,60.92,0
46.00,62.19,0
108.00,63.19,0
37.00,64.33,0
88.00,65.30,0
48.00,66.03,0
52.00,66.36,0
35.00,65.96,0
59.00,64.96,0
35.00,63.61,0
48.00,61.95,0
86.00,60.43,0
35.00,59.38,0
64.00,58.44,0
55.00,57.60,0
57.00,56.96,0
44.00,56.36,0
61.00,55.73,0
35.00,55.08,0
77.00,54.48,0
52.00,54.21,0
71.00,54.30,0
82.00,54.86,0
49.00,55.81,0
54.00,56.63,0
53.00,57.11,0
96.00,57.71,0
79.00,58.93,0
108.00,60.91,0
62.00,63.34,0
52.00,65.45,0
65.00,66.79,0
55.00,67.55,0
53.00,67.79,0
45.00,67.43,0
64.00,66.64,0
43.00,65.62,0
56.00,64.38,0
35.00,62.87,0
36.00,60.98,0
51.00,58.84,0
41.00,56.74,0
56.00,54.83,0
62.00,53.34,0
50.00,52.35,0
39.00,51.53,0
69.00,50.83,0
53.00,50.52,0
61.00,50.58,0
139.00,51.53,0
54.00,53.82,0
62.00,56.34,0
50.00,58.27,0
52.00,59.58,0
66.00,60.43,0
109.00,61.50,0
49.00,63.04,0
80.00,64.49,0
53.00,65.63,0
59.00,66.35,0
54.00,66.57,0
69.00,66.47,0
54.00,66.24,0
102.00,66.18,0
53.00,66.51,0
56.00,66.75,0
55.00,66.54,0
35.00,65.85,0
44.00,64.53,0
58.00,62.89,0
85.00,61.58,0
43.00,60.80,0
56.00,60.07,0
38.00,59.12,0
38.00,57.85,0
42.00,56.26,0
61.00,54.70,0
42.00,53.41,0
41.00,52.20,0
69.00,51.15,0
59.00,50.63,0
64.00,50.64,0
37.00,50.83,0
57.00,50.90,0
53.00,50.96,0
56.00,51.13,0
152.00,52.18,0
40.00,54.56,0
115.00,57.44,0
74.00,60.57,0
75.00,63.75,0
70.00,66.48,0
68.00,68.70,0
74.00,70.43,0
44.00,71.56,0
61.00,71.90,0
51.00,71.56,0
53.00,70.73,0
39.00,69.38,0
38.00,67.45,0
36.00,65.01,0
37.00,62.22,0
38.00,59.26,0
51.00,56.40,0
44.00,53.89,0
34.00,51.63,0
56.00,49.59,0
50.00,48.02,0
49.00,46.94,0
83.00,46.47,0
55.00,46.81,0
64.00,47.65,0
59.00,48.71,0
106.00,50.28,0
46.00,52.43,0
124.00,55.00,0
60.00,58.06,0
55.00,60.94,0
54.00,62.95,0
73.00,64.36,0
48.00,65.34,0
53.00,65.76,0
53.00,65.61,0
54.00,65.08,0
68.00,64.42,0
39.00,63.68,0
56.00,62.69,0
38.00,61.42,0
38.00,59.83,0
67.00,58.13,0
39.00,56.67,0
40.00,55.21,0
74.00,53.87,0
35.00,52.91,0
53.00,52.07,0
62.00,51.38,0
90.00,51.36,0
36.00,51.95,0
116.00,52.97,0
60.00,54.71,0
72.00,56.76,0
58.00,58.61,0
68.00,60.20,0
60.00,61.51,0
186.00,63.56,0
53.00,67.04,0
62.00,70.40,0
44.00,72.45,0
40.00,73.18,0
43.00,72.69,0
59.00,71.46,0
52.00,69.91,0
61.00,68.28,0
67.00,66.77,0
73.00,65.63,0
45.00,64.72,0
67.00,63.80,0
40.00,62.80,0
44.00,61.54,0
80.00,60.26,0
35.00,59.28,0
34.00,58.09,0
56.00,56.59,0
40.00,55.11,0
41.00,53.63,0
56.00,52.20,0
37.00,50.96,0
42.00,49.75,0
56.00,48.66,0
40.00,47.82,0
41.00,47.06,0
83.00,46.63,0
75.00,47.08,0
71.00,48.39,0
101.00,50.41,0
73.00,53.13,0
82.00,56.16,0
116.00,59.53,0
82.00,63.39,0
64.00,67.08,0
51.00,69.82,0
108.00,71.86,0
44.00,73.61,0
66.00,74.67,0
43.00,74.81,0
94.00,74.49,0
57.00,74.16,0
46.00,73.55,0
40.00,72.22,0
36.00,70.16,0
56.00,67.67,0
40.00,65.09,0
101.00,62.94,0
86.00,61.93,0
67.00,61.93,0
43.00,62.05,0
81.00,62.03,0
49.00,62.06,0
90.00,62.26,0
53.00,62.68,0
85.00,63.25,0
38.00,63.75,0
68.00,63.91,0
60.00,63.86,0
67.00,63.81,0
51.00,63.69,0
79.00,63.54,0
60.00,63.55,0
86.00,63.82,0
58.00,64.30,0
36.00,64.51,0
69.00,64.19,0
63.00,63.77,0
52.00,63.39,0
77.00,63.02,0
40.00,62.69,0
75.00,62.29,0
58.00,61.97,0
36.00,61.56,0
55.00,60.74,0
42.00,59.66,0
36.00,58.32,0
36.00,56.62,0
64.00,54.88,0
52.00,53.53,0
59.00,52.60,0
65.00,52.11,0
43.00,51.93,0
43.00,51.67,0
64.00,51.37,0
49.00,51.26,0
42.00,51.16,0
71.00,51.09,0
100.00,51.69,0
56.00,53.12,0
77.00,54.85,0
63.00,56.62,0
49.00,58.17,0
56.00,59.21,0
92.00,60.14,0
47.00,61.24,0
56.00,62.04,0
61.00,62.43,0
87.00,62.84,0
48.00,63.42,0
38.00,63.59,0
42.00,62.98,0
36.00,61.75,0
45.00,60.09,0
40.00,58.21,0
34.00,56.17,0
64.00,54.19,0
104.00,53.10,0
60.00,53.26,0
51.00,53.89,0
96.00,54.72,0
102.00,56.40,0
57.00,58.75,0
42.00,60.72,0
55.00,61.83,0
42.00,62.23,0
65.00,62.17,0
48.00,61.88,0
115.00,61.90,0
92.00,62.94,0
45.00,64.48,0
94.00,65.80,0
60.00,67.05,0
42.00,67.90,0
70.00,68.06,0
119.00,68.43,0
57.00,69.46,0
43.00,70.23,0
44.00,70.02,0
79.00,69.29,0
40.00,68.44,0
59.00,67.34,0
42.00,65.93,0
40.00,64.19,0
38.00,62.08,0
48.00,59.78,0
57.00,57.63,0
46.00,55.81,0
36.00,54.12,0
68.00,52.58,0
64.00,51.62,0
46.00,51.19,0
61.00,50.96,0
41.00,50.83,0
50.00,50.64,0
41.00,50.33,0
56.00,49.99,0
42.00,49.69,0
64.00,49.50,0
48.00,49.52,0
82.00,49.90,0
54.00,50.73,0
121.00,52.26,0
53.00,54.57,0
51.00,56.82,0
61.00,58.43,0
73.00,59.76,0
35.00,60.80,0
63.00,61.28,0
64.00,61.48,0
70.00,61.75,0
56.00,62.07,0
46.00,62.14,0
68.00,61.93,0
51.00,61.64,0
46.00,61.18,0
38.00,60.30,0
49.00,59.05,0
102.00,58.12,0
46.00,57.95,0
43.00,57.87,0
45.00,57.35,0
37.00,56.47,0
38.00,55.24,0
85.00,54.11,0
76.00,53.81,0
55.00,54.21,0
85.00,54.97,0
71.00,56.17,0
36.00,57.40,0
90.00,58.37,0
60.00,59.45,0
68.00,60.61,0
74.00,61.71,0
77.00,62.94,0
46.00,64.05,0
58.00,64.66,0
70.00,64.90,0
79.00,65.23,0
39.00,65.52,0
117.00,65.85,0
80.00,66.84,0
47.00,68.07,0
60.00,68.68,0
39.00,68.58,0
104.00,68.23,0
69.00,68.33,0
39.00,68.46,0
60.00,68.01,0
40.00,67.06,0
66.00,65.82,0
59.00,64.62,0
54.00,63.54,0
38.00,62.31,0
38.00,60.70,0
50.00,58.82,0
42.00,56.94,0
69.00,55.30,0
58.00,54.20,0
59.00,53.59,0
117.00,53.77,0
69.00,55.12,0
80.00,57.09,0
60.00,59.09,0
77.00,60.95,0
92.00,62.87,0
54.00,64.85,0
42.00,66.22,0
143.00,67.39,0
58.00,69.24,0
46.00,70.88,0
75.00,71.64,0
65.00,72.01,0
50.00,72.02,0
84.00,71.71,0
40.00,71.23,0
99.00,70.69,0
55.00,70.36,0
48.00,69.91,0
61.00,69.02,0
85.00,68.16,0
37.00,67.47,0
53.00,66.47,0
142.00,65.87,0
39.00,66.35,0
54.00,66.78,0
77.00,66.76,0
38.00,66.57,0
52.00,65.93,0
57.00,64.90,0
44.00,63.71,0
56.00,62.36,0
69.00,61.14,0
62.00,60.30,0
57.00,59.73,0
138.00,59.92,0
62.00,61.34,0
68.00,63.12,0
143.00,65.21,0
75.00,68.17,0
189.00,72.16,0
64.00,77.06,0
72.00,81.46,0
47.00,84.22,0
45.00,85.28,0
67.00,84.94,0
57.00,83.83,0
62.00,82.23,0
127.00,80.83,0
36.00,80.01,0
60.00,78.88,0
40.00,77.03,0
113.00,75.17,0
47.00,73.86,0
66.00,72.68,0
151.00,72.11,0
50.00,72.74,0
50.00,73.30,0
134.00,73.65,0
78.00,74.75,0
58.00,75.99,0
59.00,76.51,0
119.00,76.82,0
72.00,77.55,0
108.00,78.62,0
70.00,79.79,0
170.00,81.49,0
104.00,84.34,0
109.00,87.73,0
144.00,91.27,0
52.00,94.65,0
68.00,96.71,0
96.00,97.42,0
67.00,97.44,0
49.00,96.54,0
51.00,94.47,0
85.00,91.70,0
55.00,88.86,0
92.00,86.13,0
59.00,83.67,0
50.00,81.19,0
52.00,78.37,0
49.00,75.31,0
60.00,72.23,0
36.00,69.20,0
46.00,66.08,0
110.00,63.49,0
48.00,62.03,0
62.00,61.08,0
36.00,60.06,0
35.00,58.69,0
108.00,57.49,0
70.00,57.33,0
110.00,58.27,0
86.00,60.16,0
157.00,63.24,0
94.00,67.54,0
37.00,71.74,0
80.00,74.60,0
37.00,76.25,0
66.00,76.81,0
56.00,76.55,0
70.00,75.88,0
36.00,74.78,0
81.00,73.32,0
35.00,71.71,0
62.00,69.88,0
87.00,68.21,0
78.00,67.28,0
130.00,67.43,0
82.00,68.79,0
47.00,70.36,0
93.00,71.45,0
36.00,72.14,0
66.00,72.19,0
39.00,71.56,0
44.00,70.26,0
37.00,68.31,0
84.00,66.24,0
50.00,64.58,0
44.00,63.07,0
35.00,61.27,0
37.00,59.12,0
89.00,57.17,0
133.00,56.66,0
93.00,58.09,0
132.00,60.98,0
115.00,65.06,0
127.00,70.08,0
92.00,75.37,0
88.00,80.20,0
82.00,84.11,0
82.00,87.06,0
47.00,88.85,0
42.00,89.06,0
63.00,87.88,0
94.00,86.25,0
71.00,84.82,0
87.00,83.60,0
92.00,82.70,0
125.00,82.54,0
84.00,83.22,0
44.00,83.77,0
62.00,83.35,0
58.00,82.15,0
38.00,80.31,0
74.00,77.97,0
35.00,75.45,0
37.00,72.54,0
53.00,69.27,0
56.00,66.14,0
37.00,63.25,0
37.00,60.34,0
34.00,57.33,0
84.00,54.71,0
100.00,53.39,0
92.00,53.74,0
129.00,55.64,0
72.00,58.73,0
39.00,61.71,0
75.00,63.79,0
35.00,65.12,0
54.00,65.63,0
69.00,65.60,0
58.00,65.47,0
55.00,65.20,0
58.00,64.70,0
43.00,63.95,0
34.00,62.74,0
73.00,61.26,0
71.00,60.19,0
75.00,59.78,0
57.00,59.79,0
138.00,60.53,0
72.00,62.44,0
54.00,64.61,0
77.00,66.25,0
41.00,67.36,0
59.00,67.79,0
43.00,67.54,0
47.00,66.71,0
55.00,65.46,0
73.00,64.24,0
37.00,63.16,0
40.00,61.80,0
51.00,60.11,0
36.00,58.30,0
77.00,56.66,0
113.00,56.04,0
72.00,56.82,0
84.00,58.35,0
95.00,60.35,0
36.00,62.43,0
48.00,63.73,0
40.00,64.03,0
58.00,63.68,0
157.00,63.90,0
46.00,65.40,0
56.00,66.90,0
36.00,67.43,0
72.00,67.26,0
52.00,66.81,0
106.00,66.60,0
67.00,66.98,0
71.00,67.62,0
78.00,68.25,0
58.00,68.82,0
54.00,69.03,0
51.00,68.71,0
49.00,67.88,0
74.00,66.85,0
53.00,65.93,0
100.00,65.36,0
40.00,65.19,0
56.00,64.86,0
34.00,64.00,0
35.00,62.54,0
73.00,60.83,0
76.00,59.64,0
85.00,59.32,0
120.00,60.14,0
37.00,61.79,0
104.00,63.46,0
51.00,65.07,0
67.00,66.41,0
69.00,67.32,0
56.00,67.95,0
36.00,67.98,0
75.00,67.43,0
122.00,67.33,0
79.00,68.31,0
46.00,69.50,0
57.00,69.99,0
54.00,69.82,0
59.00,69.23,0
70.00,68.50,0
76.00,67.95,0
63.00,67.65,0
49.00,67.25,0
51.00,66.48,0
51.00,65.37,0
51.00,64.06,0
72.00,62.80,0
45.00,61.75,0
78.00,60.89,0
49.00,60.30,0
42.00,59.65,0
61.00,58.79,0
53.00,57.99,0
131.00,57.93,0
74.00,59.18,0
107.00,61.37,0
132.00,64.46,0
93.00,68.53,0
90.00,72.73,0
114.00,76.71,0
35.00,80.12,0
46.00,81.95,0
38.00,82.00,0
67.00,80.91,0
95.00,79.61,0
84.00,78.81,0
132.00,78.86,0
55.00,79.62,0
59.00,80.05,0
50.00,79.58,0
97.00,78.71,0
84.00,78.15,0
66.00,77.88,0
53.00,77.33,0
44.00,76.14,0
96.00,74.68,0
49.00,73.45,0
182.00,73.21,0
34.00,74.29,0
58.00,75.21,0
42.00,75.00,0
165.00,74.91,0
54.00,75.89,0
103.00,77.22,0
56.00,78.30,0
158.00,79.61,0
115.00,82.00,0
36.00,84.61,0
67.00,85.90,0
