203.00,134.81,1
71.00,142.07,1
42.00,146.03,1
96.00,146.27,1
169.00,144.93,1
329.00,145.45,1
341.00,150.75,1
63.00,158.69,1
297.00,165.80,1
49.00,171.56,1
174.00,174.95,1
168.00,176.41,1
79.00,176.55,1
77.00,174.14,1
240.00,170.43,1
184.00,168.10,1
175.00,167.25,1
235.00,167.44,1
100.00,168.22,1
155.00,168.12,1
65.00,166.39,1
61.00,162.44,1
350.00,158.51,1
73.00,157.18,1
54.00,155.51,1
60.00,151.09,1
108.00,145.07,1
58.00,138.44,1
37.00,130.98,1
135.00,123.18,1
118.00,116.69,1
139.00,112.12,1
236.00,110.17,1
47.00,110.53,1
147.00,111.09,1
257.00,112.78,1
191.00,117.42,1
295.00,124.81,1
70.00,133.33,1
75.00,139.62,1
440.00,145.24,1
89.00,153.34,1
220.00,161.36,1
69.00,167.04,1
426.00,172.31,1
81.00,178.89,1
55.00,183.28,1
127.00,183.22,1
164.00,181.00,1
165.00,178.46,1
390.00,177.95,1
153.00,180.75,1
98.00,183.46,1
41.00,182.66,1
146.00,178.67,1
205.00,174.19,1
746.00,175.86,1
68.00,185.96,1
101.00,195.62,1
475.00,202.63,1
178.00,211.43,1
297.00,220.46,1
48.00,226.79,1
671.00,232.89,1
565.00,246.00,1
336.00,265.60,1
75.00,282.56,1
1023.00,298.58,1
90.00,319.19,1
113.00,335.15,1
194.00,340.41,1
39.00,337.62,1
234.00,328.38,1
131.00,315.75,1
556.00,304.41,1
96.00,296.83,1
46.00,287.81,1
123.00,273.99,1
233.00,258.71,1
252.00,245.50,1
40.00,233.76,1
255.00,221.94,1
223.00,212.01,1
260.00,205.39,1
76.00,200.33,1
65.00,193.78,1
175.00,185.53,1
91.00,177.30,1
84.00,168.82,1
426.00,162.46,1
124.00,161.02,1
300.00,162.71,1
46.00,164.98,1
76.00,165.10,1
935.00,169.19,1
204.00,184.56,1
99.00,202.05,1
41.00,212.25,1
226.00,216.31,1
234.00,218.26,1
96.00,219.03,1
174.00,217.35,1
131.00,213.63,1
299.00,209.81,1
201.00,207.66,1
79.00,205.61,1
44.00,200.56,1
108.00,192.34,1
298.00,184.34,1
88.00,178.72,1
258.00,174.60,1
110.00,171.60,1
263.00,169.77,1
382.00,171.16,1
97.00,175.89,1
51.00,178.85,1
99.00,177.56,1
62.00,173.24,1
166.00,167.44,1
290.00,163.17,1
368.00,163.73,1
333.00,170.02,1
115.00,178.72,1
124.00,185.10,1
341.00,189.65,1
236.00,195.47,1
388.00,203.39,1
149.00,212.29,1
46.00,218.06,1
188.00,218.74,1
38.00,215.80,1
57.00,209.04,1
159.00,199.56,1
203.00,190.54,1
140.00,183.21,1
290.00,177.99,1
51.00,174.51,1
243.00,171.35,1
122.00,168.73,1
133.00,166.28,1
137.00,163.26,1
244.00,160.95,1
102.00,159.89,1
129.00,158.55,1
187.00,156.81,1
99.00,155.28,1
120.00,153.16,1
158.00,150.57,1
154.00,148.51,1
55.00,146.34,1
143.00,143.22,1
62.00,139.44,1
138.00,135.30,1
43.00,130.82,1
263.00,127.13,1
165.00,126.20,1
57.00,126.69,1
116.00,126.12,1
302.00,126.41,1
295.00,130.85,1
221.00,139.15,1
116.00,147.90,1
84.00,154.11,1
121.00,157.07,1
105.00,157.67,1
265.00,157.83,1
111.00,158.91,1
114.00,159.43,1
295.00,159.80,1
107.00,161.51,1
296.00,164.13,1
198.00,168.12,1
66.00,171.86,1
99.00,172.54,1
116.00,170.47,1
341.00,168.82,1
87.00,169.31,1
44.00,168.69,1
251.00,166.16,1
38.00,163.57,1
237.00,160.84,1
189.00,159.24,1
60.00,158.35,1
245.00,157.00,1
53.00,155.77,1
40.00,152.93,1
113.00,147.70,1
168.00,142.43,1
112.00,138.36,1
97.00,134.73,1
168.00,131.43,1
208.00,129.88,1
87.00,129.95,1
84.00,129.56,1
252.00,129.17,1
100.00,130.29,1
134.00,131.68,1
179.00,132.90,1
115.00,134.46,1
193.00,136.17,1
84.00,137.81,1
48.00,137.89,1
38.00,135.13,1
103.00,130.42,1
208.00,126.27,1
136.00,124.40,1
81.00,123.50,1
61.00,121.69,1
60.00,118.43,1
185.00,115.06,1
78.00,112.90,1
243.00,112.37,1
127.00,113.98,1
69.00,116.13,1
42.00,116.42,1
96.00,114.84,1
55.00,112.23,1
236.00,110.19,1
143.00,110.55,1
194.00,113.12,1
148.00,116.98,1
130.00,121.17,1
111.00,124.64,1
82.00,126.74,1
109.00,127.31,1
80.00,126.66,1
125.00,125.23,1
81.00,123.39,1
206.00,121.99,1
76.00,121.60,1
192.00,121.83,1
173.00,123.22,1
204.00,126.37,1
41.00,129.73,1
96.00,131.15,1
102.00,130.64,1
173.00,129.84,1
51.00,129.06,1
158.00,127.78,1
131.00,126.70,1
66.00,125.70,1
67.00,123.50,1
119.00,120.38,1
122.00,117.55,1
65.00,115.05,1
312.00,114.01,1
40.00,115.52,1
128.00,117.14,1
44.00,117.31,1
41.00,115.67,1
247.00,113.68,1
59.00,113.33,1
162.00,113.68,1
107.00,114.25,1
138.00,115.15,1
287.00,117.57,1
129.00,122.51,1
114.00,127.67,1
43.00,130.67,1
44.00,130.61,1
193.00,128.91,1
310.00,129.50,1
130.00,133.51,1
269.00,139.10,1
640.00,149.69,1
202.00,167.29,1
91.00,184.53,1
182.00,196.13,1
89.00,202.95,1
50.00,204.81,1
224.00,202.82,1
55.00,199.16,1
150.00,193.80,1
287.00,188.62,1
81.00,185.12,1
193.00,181.63,1
193.00,178.44,1
89.00,175.63,1
203.00,172.43,1
137.00,169.51,1
76.00,166.26,1
71.00,161.24,1
131.00,154.95,1
120.00,148.78,1
182.00,143.75,1
39.00,139.51,1
67.00,134.37,1
250.00,129.51,1
131.00,127.34,1
154.00,127.00,1
50.00,126.59,1
71.00,124.74,1
107.00,121.67,1
82.00,118.35,1
104.00,115.01,1
439.00,114.70,1
94.00,119.57,1
41.00,124.86,1
108.00,127.08,1
71.00,127.26,1
102.00,126.08,1
90.00,124.02,1
186.00,122.23,1
308.00,123.23,1
38.00,126.87,1
57.00,129.07,1
127.00,128.75,1
205.00,128.51,1
135.00,129.64,1
62.00,130.66,1
96.00,130.03,1
77.00,127.98,1
200.00,125.90,1
167.00,125.49,1
148.00,126.67,1
62.00,127.72,1
149.00,127.76,1
221.00,128.38,1
173.00,130.94,1
62.00,133.76,1
120.00,134.89,1
189.00,135.35,1
64.00,135.87,1
68.00,134.94,1
71.00,132.00,1
143.00,128.31,1
39.00,124.53,1
53.00,119.80,1
38.00,113.76,1
116.00,107.42,1
50.00,101.69,1
45.00,96.12,1
86.00,90.58,1
43.00,85.51,1
46.00,80.64,1
108.00,76.27,1
83.00,73.29,1
327.00,73.57,1
67.00,78.13,1
45.00,83.20,1
36.00,85.88,1
192.00,87.62,1
115.00,90.47,1
149.00,94.38,1
120.00,98.65,1
76.00,102.47,1
194.00,105.85,1
231.00,110.65,1
114.00,117.01,1
175.00,123.23,1
128.00,128.77,1
60.00,132.79,1
84.00,134.19,1
384.00,135.88,1
74.00,140.36,1
86.00,144.23,1
66.00,144.92,1
81.00,143.11,1
43.00,139.23,1
138.00,134.16,1
108.00,129.40,1
127.00,125.49,1
92.00,122.11,1
44.00,118.44,1
164.00,114.57,1
64.00,111.44,1
107.00,108.67,1
80.00,105.93,1
120.00,103.54,1
91.00,101.71,1
192.00,101.05,1
174.00,102.59,1
106.00,105.70,1
76.00,108.39,1
108.00,109.88,1
194.00,111.39,1
66.00,113.49,1
235.00,115.99,1
73.00,119.10,1
100.00,121.49,1
55.00,121.97,1
65.00,120.56,1
41.00,117.35,1
36.00,112.49,1
89.00,106.74,1
82.00,101.27,1
87.00,96.58,1
139.00,93.09,1
93.00,91.17,1
135.00,90.51,1
56.00,90.48,1
64.00,90.03,1
165.00,89.60,1
52.00,90.00,1
117.00,90.52,1
40.00,90.62,1
61.00,89.83,1
124.00,88.61,1
79.00,87.97,1
64.00,87.43,1
60.00,86.33,1
54.00,84.62,1
136.00,83.04,1
121.00,82.77,1
130.00,84.06,1
307.00,87.96,1
57.00,94.64,1
534.00,104.50,1
61.00,118.41,1
113.00,131.43,1
52.00,139.72,1
266.00,145.37,1
151.00,150.95,1
51.00,155.30,1
114.00,156.48,1
66.00,155.05,1
48.00,151.23,1
91.00,145.40,1
49.00,138.47,1
194.00,131.78,1
100.00,126.78,1
247.00,124.11,1
66.00,123.45,1
153.00,123.27,1
255.00,124.25,1
61.00,126.90,1
182.00,129.34,1
117.00,131.39,1
182.00,133.56,1
42.00,135.11,1
99.00,134.82,1
187.00,133.66,1
56.00,132.73,1
48.00,130.50,1
71.00,126.30,1
38.00,120.81,1
65.00,114.40,1
75.00,107.74,1
94.00,101.68,1
97.00,96.68,1
137.00,93.21,1
78.00,91.21,1
137.00,90.24,1
104.00,90.31,1
79.00,90.88,1
84.00,91.17,1
72.00,91.01,1
48.00,90.16,1
41.00,88.24,1
127.00,85.99,1
118.00,84.86,1
73.00,84.81,1
164.00,85.52,1
69.00,87.12,1
66.00,88.50,1
43.00,88.62,1
60.00,87.52,1
421.00,88.63,1
129.00,95.18,1
181.00,104.13,1
62.00,112.06,1
82.00,117.56,1
74.00,120.34,1
221.00,122.20,1
86.00,124.56,1
72.00,126.07,1
279.00,127.26,1
264.00,131.37,1
175.00,138.29,1
102.00,144.90,1
127.00,149.31,1
214.00,152.42,1
67.00,154.89,1
110.00,155.42,1
43.00,153.36,1
221.00,150.17,1
65.00,147.33,1
192.00,144.78,1
286.00,144.14,1
375.00,148.34,1
334.00,158.03,1
112.00,169.74,1
222.00,179.47,1
397.00,188.83,1
148.00,199.33,1
78.00,207.08,1
846.00,215.65,1
154.00,231.03,1
142.00,245.80,1
205.00,254.14,1
372.00,259.69,1
209.00,264.90,1
219.00,268.43,1
281.00,269.89,1
41.00,268.83,1
124.00,263.12,1
331.00,255.20,1
252.00,249.34,1
125.00,244.58,1
65.00,237.55,1
167.00,227.79,1
127.00,217.17,1
151.00,206.65,1
40.00,195.68,1
59.00,183.23,1
194.00,170.60,1
118.00,160.05,1
182.00,151.80,1
195.00,146.13,1
56.00,142.19,1
73.00,137.63,1
56.00,131.73,1
134.00,125.51,1
40.00,119.65,1
227.00,114.88,1
88.00,112.29,1
40.00,110.28,1
61.00,106.99,1
76.00,102.90,1
82.00,98.83,1
69.00,95.02,1
153.00,92.06,1
574.00,94.63,1
258.00,106.45,1
50.00,121.42,1
237.00,133.71,1
214.00,144.72,1
53.00,154.24,1
179.00,160.48,1
118.00,164.23,1
176.00,166.54,1
182.00,168.16,1
146.00,169.51,1
127.00,169.89,1
69.00,168.42,1
64.00,164.42,1
69.00,158.11,1
99.00,150.57,1
39.00,142.35,1
217.00,134.66,1
280.00,130.60,1
43.00,130.05,1
274.00,130.63,1
36.00,131.93,1
163.00,132.77,1
122.00,133.01,1
48.00,132.55,1
73.00,130.20,1
104.00,126.55,1
55.00,122.36,1
144.00,118.08,1
34.00,114.04,1
71.00,109.52,1
133.00,105.01,1
82.00,101.58,1
80.00,98.73,1
166.00,96.68,1
48.00,95.73,1
65.00,94.54,1
337.00,94.77,1
236.00,99.93,1
38.00,107.60,1
139.00,113.59,1
270.00,119.24,1
122.00,126.25,1
136.00,132.78,1
207.00,138.31,1
39.00,142.81,1
66.00,144.39,1
98.00,143.01,1
96.00,140.16,1
70.00,136.32,1
139.00,131.99,1
133.00,128.31,1
38.00,124.93,1
211.00,121.70,1
56.00,119.50,1
52.00,116.97,1
137.00,113.64,1
315.00,112.68,1
61.00,115.09,1
107.00,117.62,1
125.00,118.95,1
167.00,120.35,1
89.00,121.97,1
190.00,123.59,1
106.00,125.49,1
38.00,126.42,1
102.00,125.26,1
84.00,122.93,1
75.00,119.95,1
120.00,116.65,1
89.00,113.62,1
103.00,110.87,1
126.00,108.60,1
54.00,106.66,1
76.00,104.22,1
142.00,101.80,1
322.00,102.26,1
196.00,107.37,1
416.00,117.08,1
154.00,130.45,1
46.00,142.67,1
43.00,149.57,1
178.00,152.37,1
424.00,156.27,1
133.00,163.75,1
68.00,170.29,1
73.00,172.42,1
41.00,170.36,1
386.00,167.64,1
93.00,167.53,1
242.00,168.66,1
96.00,169.51,1
41.00,168.45,1
44.00,163.87,1
70.00,156.61,1
36.00,147.71,1
40.00,137.53,1
68.00,126.75,1
265.00,118.02,1
78.00,113.10,1
56.00,109.57,1
91.00,105.59,1
35.00,101.32,1
38.00,96.37,1
127.00,91.39,1
332.00,89.72,1
136.00,93.20,1
144.00,98.97,1
591.00,108.47,1
152.00,124.47,1
68.00,140.51,1
223.00,152.22,1
46.00,160.70,1
324.00,167.09,1
63.00,172.68,1
475.00,178.88,1
68.00,186.63,1
83.00,192.05,1
374.00,194.83,1
202.00,199.06,1
70.00,202.70,1
169.00,202.97,1
109.00,200.68,1
138.00,196.62,1
345.00,193.06,1
42.00,191.20,1
63.00,187.51,1
58.00,180.38,1
61.00,170.90,1
356.00,162.47,1
178.00,158.59,1
91.00,157.05,1
111.00,154.57,1
107.00,151.03,1
51.00,146.44,1
111.00,140.75,1
51.00,134.46,1
150.00,128.23,1
172.00,123.58,1
257.00,122.17,1
98.00,123.55,1
187.00,125.83,1
56.00,127.76,1
49.00,127.84,1
144.00,126.14,1
74.00,124.06,1
80.00,121.44,1
59.00,117.84,1
40.00,113.16,1
154.00,108.27,1
122.00,104.86,1
114.00,103.06,1
256.00,103.32,1
174.00,106.75,1
64.00,111.37,1
134.00,114.79,1
88.00,117.05,1
172.00,118.89,1
127.00,120.98,1
71.00,122.68,1
254.00,124.24,1
114.00,127.07,1
105.00,129.87,1
92.00,131.14,1
94.00,130.91,1
99.00,129.53,1
94.00,127.39,1
115.00,124.87,1
100.00,122.32,1
116.00,119.91,1
127.00,117.90,1
36.00,115.83,1
105.00,112.94,1
128.00,110.10,1
52.00,107.72,1
58.00,104.74,1
141.00,101.55,1
63.00,99.11,1
55.00,96.64,1
214.00,94.77,1
108.00,95.14,1
41.00,96.17,1
95.00,96.11,1
104.00,95.65,1
290.00,97.06,1
92.00,101.42,1
144.00,106.48,1
82.00,110.63,1
42.00,113.01,1
218.00,114.25,1
63.00,115.89,1
207.00,117.87,1
114.00,120.36,1
124.00,122.90,1
86.00,124.46,1
91.00,124.73,1
106.00,123.90,1
38.00,121.98,1
48.00,118.39,1
54.00,113.28,1
91.00,107.70,1
151.00,103.09,1
70.00,100.01,1
92.00,97.53,1
284.00,96.88,1
126.00,99.66,1
110.00,103.84,1
66.00,106.98,1
185.00,109.36,1
66.00,111.71,1
60.00,112.90,1
183.00,113.12,1
153.00,114.35,1
70.00,116.12,1
254.00,118.14,1
69.00,121.13,1
443.00,126.30,1
124.00,135.02,1
270.00,145.14,1
74.00,154.14,1
53.00,159.74,1
146.00,161.39,1
104.00,161.01,1
122.00,159.31,1
100.00,156.46,1
186.00,153.31,1
127.00,150.81,1
60.00,148.06,1
46.00,143.49,1
223.00,138.34,1
72.00,134.52,1
84.00,130.90,1
63.00,126.31,1
38.00,120.69,1
51.00,113.99,1
296.00,108.74,1
197.00,108.12,1
41.00,110.13,1
158.00,111.62,1
141.00,113.19,1
146.00,115.48,1
127.00,118.04,1
133.00,120.48,1
228.00,123.49,1
151.00,127.83,1
115.00,132.23,1
137.00,135.49,1
76.00,137.33,1
133.00,137.65,1
56.00,136.65,1
264.00,135.57,1
169.00,136.53,1
127.00,138.78,1
60.00,139.88,1
126.00,139.16,1
57.00,137.05,1
46.00,133.29,1
97.00,128.06,1
206.00,123.54,1
112.00,121.17,1
116.00,119.87,1
42.00,118.10,1
81.00,115.17,1
160.00,112.14,1
39.00,109.77,1
80.00,106.96,1
42.00,103.28,1
109.00,99.31,1
69.00,95.73,1
94.00,92.67,1
59.00,89.88,1
55.00,87.00,1
66.00,83.87,1
104.00,81.13,1
60.00,79.12,1
204.00,78.53,1
256.00,81.52,1
90.00,87.79,1
45.00,93.63,1
86.00,97.15,1
103.00,99.25,1
89.00,100.72,1
53.00,101.26,1
112.00,100.85,1
80.00,100.15,1
82.00,99.23,1
68.00,97.83,1
44.00,95.69,1
108.00,93.07,1
70.00,90.73,1
63.00,88.52,1
103.00,86.38,1
135.00,85.25,1
88.00,85.38,1
42.00,85.58,1
132.00,85.41,1
148.00,86.21,1
152.00,88.77,1
85.00,92.24,1
60.00,94.99,1
120.00,96.62,1
95.00,97.93,1
49.00,98.65,1
114.00,98.48,1
41.00,97.73,1
205.00,97.24,1
194.00,98.98,1
89.00,102.68,1
36.00,105.47,1
137.00,106.56,1
52.00,106.85,1
91.00,106.27,1
199.00,105.90,1
52.00,106.60,1
67.00,106.65,1
48.00,105.10,1
262.00,103.97,1
50.00,104.80,1
78.00,105.61,1
291.00,106.83,1
170.00,111.08,1
120.00,116.89,1
53.00,121.26,1
188.00,123.99,1
54.00,125.95,1
130.00,126.80,1
121.00,126.84,1
166.00,127.12,1
58.00,127.36,1
47.00,126.04,1
155.00,123.40,1
174.00,121.70,1
83.00,121.23,1
156.00,120.96,1
50.00,120.43,1
81.00,118.84,1
76.00,116.08,1
90.00,112.80,1
41.00,109.03,1
84.00,104.67,1
48.00,100.01,1
36.00,94.95,1
96.00,89.75,1
141.00,85.90,1
68.00,83.81,1
87.00,82.46,1
56.00,81.18,1
136.00,80.28,1
80.00,80.32,1
99.00,80.97,1
34.00,81.35,1
51.00,80.76,1
146.00,79.96,1
103.00,80.41,1
50.00,81.42,1
86.00,81.88,1
68.00,81.92,1
78.00,81.71,1
99.00,81.53,1
177.00,82.45,1
98.00,84.99,1
56.00,87.66,1
158.00,89.83,1
52.00,92.01,1
211.00,94.54,1
49.00,97.67,1
37.00,99.68,1
116.00,99.88,1
160.00,100.28,1
127.00,101.94,1
51.00,103.67,1
109.00,104.35,1
85.00,104.35,1
257.00,105.32,1
36.00,107.83,1
120.00,109.89,1
46.00,110.47,1
73.00,109.61,1
99.00,107.72,1
39.00,105.28,1
93.00,102.18,1
83.00,98.99,1
54.00,95.88,1
66.00,92.47,1
43.00,88.71,1
123.00,85.19,1
81.00,82.76,1
99.00,81.35,1
50.00,80.31,1
317.00,81.13,1
48.00,85.12,1
185.00,90.31,1
143.00,95.91,1
61.00,101.39,1
109.00,105.29,1
195.00,108.69,1
38.00,112.12,1
134.00,114.36,1
90.00,115.55,1
122.00,116.23,1
79.00,116.32,1
36.00,115.14,1
76.00,112.32,1
74.00,108.63,1
55.00,104.54,1
117.00,100.47,1
89.00,97.17,1
51.00,94.32,1
87.00,91.33,1
59.00,88.38,1
38.00,85.22,1
127.00,82.17,1
108.00,80.44,1
81.00,79.97,1
46.00,79.58,1
70.00,78.65,1
49.00,77.29,1
89.00,75.82,1
95.00,74.86,1
38.00,74.28,1
129.00,73.86,1
35.00,73.85,1
34.00,73.31,1
145.00,72.53,1
57.00,72.71,1
80.00,73.24,1
99.00,73.83,1
98.00,74.96,1
50.00,76.19,1
133.00,77.34,1
56.00,78.75,1
103.00,80.08,1
40.00,80.95,1
91.00,81.18,1
47.00,80.91,1
44.00,79.91,1
98.00,78.43,1
156.00,77.99,1
114.00,79.41,1
109.00,81.95,1
59.00,84.40,1
106.00,86.23,1
56.00,87.46,1
51.00,87.73,1
52.00,86.77,1
64.00,84.98,1
50.00,82.71,1
111.00,80.52,1
66.00,78.99,1
118.00,78.20,1
115.00,78.47,1
98.00,79.77,1
103.00,81.54,1
82.00,83.39,1
38.00,84.55,1
58.00,84.42,1
56.00,83.25,1
42.00,81.36,1
146.00,79.60,1
48.00,78.79,1
97.00,78.38,1
70.00,78.05,1
52.00,77.61,1
136.00,77.27,1
58.00,77.61,1
74.00,78.01,1
45.00,77.80,1
82.00,77.10,1
38.00,76.05,1
129.00,75.11,1
51.00,74.78,1
66.00,74.52,1
81.00,74.03,1
116.00,74.06,1
78.00,74.87,1
59.00,75.75,1
50.00,75.94,1
42.00,75.23,1
112.00,74.24,1
89.00,73.96,1
83.00,74.39,1
65.00,74.91,1
128.00,75.64,1
117.00,77.32,1
86.00,79.75,1
42.00,81.70,1
86.00,82.59,1
86.00,83.01,1
50.00,83.13,1
87.00,82.73,1
213.00,83.31,1
103.00,86.11,1
52.00,89.29,1
40.00,90.78,1
64.00,90.53,1
44.00,89.10,1
35.00,86.62,1
88.00,83.54,1
140.00,81.35,1
47.00,80.42,1
62.00,79.51,1
125.00,78.63,1
92.00,78.70,1
144.00,79.90,1
66.00,81.87,1
37.00,83.25,1
75.00,83.32,1
91.00,82.92,1
144.00,83.19,1
92.00,84.55,1
42.00,85.84,1
58.00,85.91,1
80.00,85.08,1
50.00,83.85,1
80.00,82.29,1
40.00,80.45,1
49.00,78.11,1
68.00,75.44,1
41.00,72.79,1
53.00,70.04,1
44.00,67.21,1
58.00,64.49,1
96.00,62.40,1
63.00,61.33,1
81.00,61.01,1
59.00,61.11,1
148.00,62.02,1
41.00,63.96,1
56.00,65.68,1
148.00,67.31,1
43.00,69.60,1
126.00,72.01,1
40.00,74.24,1
96.00,75.97,1
129.00,77.75,1
66.00,80.01,1
117.00,82.21,1
88.00,84.37,1
41.00,85.98,1
99.00,86.58,1
80.00,86.80,1
66.00,86.79,1
41.00,85.98,1
93.00,84.52,1
270.00,84.71,1
63.00,87.79,1
63.00,91.03,1
59.00,92.54,1
41.00,92.46,1
52.00,90.91,1
61.00,88.44,1
51.00,85.50,1
127.00,82.83,1
95.00,81.37,1
66.00,80.74,1
93.00,80.23,1
138.00,80.42,1
37.00,81.27,1
39.00,81.30,1
38.00,79.87,1
68.00,77.66,1
147.00,76.06,1
178.00,76.83,1
160.00,80.35,1
64.00,85.01,1
181.00,89.64,1
127.00,94.76,1
200.00,100.77,1
50.00,106.79,1
70.00,110.88,1
94.00,112.66,1
91.00,113.18,1
127.00,113.16,1
38.00,112.56,1
164.00,111.41,1
51.00,110.30,1
141.00,109.17,1
99.00,108.28,1
78.00,107.47,1
62.00,105.91,1
60.00,103.38,1
82.00,100.23,1
119.00,97.35,1
68.00,95.15,1
68.00,93.00,1
44.00,90.34,1
180.00,88.11,1
69.00,87.42,1
78.00,87.28,1
101.00,86.99,1
88.00,86.93,1
145.00,87.51,1
49.00,88.59,1
111.00,89.41,1
210.00,91.07,1
91.00,94.47,1
55.00,97.63,1
69.00,99.02,1
57.00,98.86,1
100.00,97.81,1
64.00,96.43,1
169.00,95.47,1
80.00,95.58,1
68.00,95.78,1
99.00,95.37,1
52.00,94.53,1
190.00,94.02,1
92.00,94.86,1
57.00,95.93,1
127.00,96.31,1
54.00,96.44,1
172.00,96.71,1
60.00,97.51,1
153.00,98.58,1
89.00,99.90,1
70.00,100.90,1
69.00,100.79,1
42.00,99.45,1
40.00,96.72,1
134.00,93.56,1
62.00,91.12,1
35.00,88.67,1
191.00,86.55,1
59.00,86.02,1
37.00,85.64,1
44.00,83.99,1
61.00,81.46,1
84.00,78.92,1
122.00,77.27,1
109.00,77.09,1
58.00,77.69,1
73.00,78.04,1
94.00,78.19,1
63.00,78.39,1
57.00,78.25,1
90.00,77.75,1
89.00,77.49,1
104.00,77.81,1
117.00,78.91,1
83.00,80.62,1
59.00,82.09,1
85.00,82.85,1
38.00,82.89,1
96.00,82.30,1
196.00,82.65,1
196.00,85.88,1
274.00,92.66,1
225.00,102.75,1
166.00,114.37,1
124.00,125.05,1
103.00,133.31,1
180.00,139.37,1
124.00,144.22,1
39.00,146.98,1
44.00,146.19,1
76.00,142.40,1
39.00,136.74,1
71.00,129.75,1
108.00,122.54,1
41.00,115.72,1
56.00,108.73,1
77.00,101.73,1
48.00,95.18,1
298.00,90.94,1
180.00,91.58,1
80.00,95.14,1
91.00,98.26,1
81.00,100.21,1
57.00,100.93,1
85.00,100.46,1
61.00,99.14,1
116.00,97.53,1
175.00,96.97,1
37.00,97.51,1
210.00,98.49,1
132.00,100.85,1
87.00,103.96,1
161.00,106.75,1
84.00,109.41,1
188.00,112.10,1
74.00,114.85,1
49.00,116.32,1
61.00,115.49,1
55.00,112.91,1
53.00,109.04,1
75.00,104.44,1
60.00,99.65,1
66.00,94.88,1
332.00,92.45,1
42.00,93.96,1
134.00,96.54,1
124.00,98.90,1
175.00,102.03,1
51.00,105.38,1
131.00,107.81,1
44.00,109.04,1
57.00,108.66,1
45.00,106.45,1
78.00,103.10,1
70.00,99.39,1
46.00,95.45,1
90.00,91.40,1
87.00,87.88,1
131.00,85.56,1
153.00,85.13,1
155.00,86.90,1
65.00,89.74,1
78.00,91.94,1
165.00,93.76,1
303.00,97.93,1
257.00,106.37,1
109.00,116.92,1
65.00,125.53,1
48.00,130.29,1
70.00,131.50,1
61.00,130.08,1
71.00,126.87,1
130.00,122.99,1
108.00,119.60,1
44.00,116.30,1
87.00,112.27,1
42.00,107.64,1
173.00,103.40,1
140.00,101.14,1
131.00,100.90,1
89.00,101.45,1
62.00,101.58,1
91.00,100.83,1
43.00,99.30,1
170.00,97.71,1
200.00,98.11,1
63.00,100.43,1
103.00,102.41,1
82.00,103.43,1
151.00,104.24,1
59.00,105.07,1
38.00,104.76,1
52.00,102.60,1
127.00,99.79,1
69.00,97.46,1
38.00,94.96,1
96.00,91.92,1
66.00,89.01,1
39.00,86.06,1
132.00,83.25,1
60.00,81.37,1
63.00,79.85,1
133.00,78.70,1
114.00,78.88,1
88.00,80.13,1
182.00,82.34,1
127.00,86.10,1
46.00,90.10,1
71.00,92.55,1
90.00,93.63,1
112.00,94.36,1
127.00,95.44,1
113.00,97.06,1
92.00,98.77,1
69.00,99.83,1
127.00,100.27,1
52.00,100.40,1
97.00,99.88,1
176.00,99.67,1
44.00,100.29,1
39.00,99.94,1
58.00,97.85,1
73.00,94.90,1
62.00,91.72,1
39.00,88.21,1
86.00,84.50,1
65.00,81.17,1
110.00,78.65,1
61.00,77.00,1
72.00,75.72,1
87.00,74.65,1
100.00,74.24,1
105.00,74.72,1
43.00,75.53,1
78.00,75.87,1
83.00,75.95,1
164.00,76.87,1
62.00,78.95,1
39.00,80.62,1
175.00,81.82,1
68.00,83.81,1
106.00,86.00,1
77.00,87.77,1
57.00,88.84,1
79.00,88.93,1
60.00,88.33,1
41.00,86.94,1
62.00,84.69,1
74.00,82.14,1
98.00,80.04,1
75.00,78.65,1
66.00,77.59,1
73.00,76.53,1
41.00,75.29,1
80.00,73.79,1
49.00,72.28,1
54.00,70.66,1
165.00,69.76,1
127.00,70.97,1
121.00,74.01,1
74.00,77.54,1
96.00,80.67,1
43.00,82.93,1
125.00,84.44,1
95.00,86.01,1
87.00,87.68,1
40.00,88.60,1
71.00,88.33,1
70.00,87.28,1
36.00,85.64,1
51.00,83.15,1
145.00,80.85,1
125.00,80.28,1
91.00,81.22,1
67.00,82.34,1
59.00,82.81,1
82.00,82.64,1
127.00,82.67,1
212.00,84.51,1
69.00,88.23,1
47.00,91.42,1
53.00,92.61,1
95.00,92.50,1
67.00,91.91,1
105.00,91.19,1
64.00,90.44,1
115.00,89.76,1
132.00,89.79,1
153.00,91.24,1
50.00,93.36,1
149.00,95.20,1
89.00,97.07,1
37.00,98.28,1
123.00,98.32,1
54.00,97.88,1
73.00,96.82,1
58.00,94.93,1
103.00,92.78,1
150.00,91.50,1
132.00,91.95,1
113.00,93.62,1
65.00,95.29,1
58.00,95.88,1
122.00,95.66,1
59.00,95.31,1
58.00,94.35,1
39.00,92.26,1
50.00,89.16,1
56.00,85.47,1
55.00,81.62,1
83.00,78.06,1
169.00,75.99,1
83.00,76.07,1
118.00,77.37,1
38.00,78.75,1
202.00,80.47,1
96.00,83.58,1
227.00,88.32,1
60.00,94.03,1
127.00,99.18,1
180.00,103.90,1
469.00,111.93,1
63.00,124.11,1
164.00,135.54,1
99.00,143.79,1
89.00,149.01,1
51.00,150.75,1
222.00,150.50,1
127.00,150.48,1
105.00,150.29,1
41.00,148.29,1
58.00,143.89,1
52.00,137.53,1
63.00,130.00,1
37.00,121.77,1
117.00,113.57,1
127.00,106.88,1
43.00,101.69,1
72.00,96.74,1
70.00,91.89,1
65.00,87.46,1
87.00,83.57,1
83.00,80.52,1
49.00,78.03,1
36.00,75.35,1
45.00,72.19,1
64.00,68.97,1
182.00,67.18,1
164.00,68.55,1
80.00,72.18,1
107.00,76.13,1
64.00,79.57,1
40.00,81.82,1
41.00,82.34,1
52.00,81.46,1
90.00,80.03,1
87.00,78.94,1
84.00,78.38,1
48.00,77.87,1
67.00,76.95,1
127.00,76.26,1
85.00,76.57,1
72.00,77.33,1
70.00,77.82,1
85.00,78.07,1
87.00,78.38,1
56.00,78.63,1
72.00,78.46,1
67.00,77.94,1
127.00,77.72,1
48.00,78.04,1
264.00,79.74,1
89.00,83.89,1
65.00,88.47,1
114.00,91.77,1
38.00,93.97,1
68.00,94.65,1
74.00,94.09,1
142.00,93.51,1
103.00,93.78,1
84.00,94.47,1
36.00,94.40,1
82.00,93.19,1
71.00,91.42,1
40.00,89.24,1
56.00,86.35,1
98.00,83.36,1
46.00,80.79,1
108.00,78.64,1
42.00,76.91,1
80.00,75.31,1
81.00,73.94,1
90.00,73.19,1
80.00,73.03,1
45.00,72.94,1
77.00,72.49,1
165.00,72.77,1
48.00,74.34,1
245.00,77.28,1
98.00,82.27,1
85.00,87.69,1
69.00,91.71,1
103.00,94.40,1
94.00,96.38,1
180.00,98.59,1
44.00,101.13,1
100.00,102.75,1
97.00,103.41,1
64.00,103.43,1
67.00,102.44,1
49.00,100.32,1
76.00,97.36,1
41.00,93.88,1
86.00,90.15,1
51.00,86.51,1
49.00,82.83,1
101.00,79.37,1
112.00,77.12,1
38.00,75.86,1
70.00,74.54,1
57.00,73.00,1
65.00,71.47,1
50.00,69.91,1
135.00,68.89,1
70.00,69.07,1
81.00,69.88,1
119.00,71.09,1
81.00,72.98,1
146.00,75.54,1
49.00,78.49,1
176.00,81.61,1
92.00,85.37,1
134.00,89.49,1
74.00,93.25,1
125.00,96.38,1
47.00,98.64,1
175.00,100.35,1
82.00,102.29,1
52.00,103.61,1
85.00,103.42,1
90.00,102.44,1
46.00,100.88,1
48.00,98.27,1
52.00,94.63,1
143.00,91.17,1
45.00,88.70,1
88.00,86.54,1
73.00,84.47,1
71.00,82.63,1
144.00,81.46,1
69.00,81.42,1
99.00,81.85,1
90.00,82.43,1
105.00,83.31,1
50.00,84.13,1
98.00,84.47,1
137.00,85.10,1
86.00,86.56,1
135.00,88.48,1
105.00,90.83,1
310.00,95.01,1
38.00,101.38,1
52.00,106.49,1
109.00,108.91,1
104.00,110.23,1
62.00,110.72,1
63.00,109.84,1
141.00,108.24,1
63.00,106.81,1
90.00,105.15,1
47.00,102.79,1
53.00,99.56,1
69.00,95.64,1
47.00,91.45,1
94.00,87.37,1
76.00,83.95,1
144.00,81.81,1
32.00,80.75,1
34.00,79.27,1
142.00,77.53,1
82.00,76.95,1
153.00,77.76,1
110.00,79.94,1
155.00,83.34,1
40.00,86.96,1
74.00,89.40,1
126.00,90.88,1
106.00,92.57,1
168.00,94.98,1
50.00,97.75,1
63.00,99.35,1
122.00,99.74,1
35.00,99.57,1
66.00,98.28,1
41.00,95.76,1
48.00,92.30,1
59.00,88.23,1
94.00,84.36,1
183.00,82.19,1
40.00,81.97,1
123.00,82.28,1
52.00,82.60,1
83.00,82.66,1
64.00,82.31,1
214.00,82.82,1
72.00,85.16,1
56.00,87.55,1
98.00,88.80,1
144.00,90.09,1
81.00,91.96,1
73.00,93.47,1
45.00,93.75,1
113.00,93.15,1
112.00,92.78,1
134.00,93.33,1
124.00,94.82,1
158.00,97.28,1
43.00,99.93,1
47.00,101.04,1
142.00,100.84,1
162.00,101.44,1
84.00,103.09,1
46.00,104.05,1
96.00,103.57,1
42.00,102.09,1
220.00,100.90,1
102.00,101.49,1
38.00,102.40,1
109.00,102.06,1
216.00,102.34,1
37.00,103.95,1
158.00,105.43,1
37.00,106.30,1
37.00,105.67,1
111.00,103.50,1
241.00,102.58,1
132.00,104.48,1
98.00,107.47,1
36.00,109.20,1
58.00,108.77,1
118.00,107.07,1
61.00,105.17,1
69.00,102.80,1
46.00,99.64,1
37.00,95.58,1
123.00,91.33,1
51.00,87.84,1
89.00,84.89,1
62.00,82.24,1
85.00,79.97,1
74.00,78.13,1
79.00,76.73,1
100.00,75.88,1
82.00,75.71,1
44.00,75.63,1
268.00,76.70,1
112.00,80.73,1
49.00,85.61,1
97.00,89.02,1
59.00,91.15,1
236.00,93.49,1
52.00,96.99,1
55.00,99.72,1
111.00,100.73,1
70.00,101.03,1
67.00,100.55,1
47.00,98.92,1
58.00,96.21,1
203.00,94.00,1
100.00,93.91,1
58.00,94.55,1
63.00,94.21,1
72.00,92.95,1
43.00,90.98,1
53.00,88.22,1
44.00,84.79,1
50.00,80.95,1
39.00,76.87,1
64.00,72.81,1
38.00,69.01,1
96.00,65.79,1
67.00,63.62,1
37.00,62.08,1
64.00,60.55,1
116.00,59.71,1
75.00,60.18,1
41.00,61.09,1
147.00,62.27,1
43.00,64.25,1
116.00,66.51,1
57.00,68.77,1
194.00,71.72,1
56.00,75.75,1
98.00,79.66,1
54.00,82.51,1
126.00,84.70,1
74.00,86.71,1
78.00,88.27,1
77.00,89.07,1
62.00,89.17,1
41.00,88.28,1
98.00,86.68,1
56.00,85.02,1
58.00,83.16,1
94.00,81.20,1
60.00,79.55,1
62.00,77.94,1
48.00,76.06,1
67.00,73.97,1
75.00,72.06,1
50.00,70.44,1
37.00,68.62,1
53.00,66.44,1
39.00,64.09,1
50.00,61.68,1
92.00,59.71,1
46.00,58.57,1
59.00,57.77,1
53.00,57.04,1
36.00,56.27,1
87.00,55.57,1
116.00,55.91,1
65.00,57.49,1
92.00,59.59,1
98.00,62.08,1
116.00,65.26,1
138.00,69.37,1
100.00,74.30,1
48.00,78.77,1
154.00,82.46,1
264.00,87.71,1
94.00,95.21,1
46.00,101.89,1
36.00,105.42,1
65.00,106.12,1
65.00,105.06,1
52.00,102.80,1
137.00,100.21,1
54.00,98.08,1
70.00,95.81,1
181.00,94.02,1
132.00,94.23,1
71.00,95.54,1
50.00,96.05,1
37.00,94.98,1
100.00,92.89,1
139.00,91.34,1
81.00,90.94,1
86.00,90.82,1
126.00,90.87,1
54.00,91.14,1
78.00,90.92,1
57.00,89.95,1
70.00,88.40,1
48.00,86.33,1
148.00,84.50,1
62.00,83.68,1
81.00,83.21,1
97.00,82.75,1
75.00,82.56,1
78.00,82.38,1
59.00,81.91,1
78.00,81.10,1
48.00,79.99,1
97.00,78.74,1
90.00,77.93,1
88.00,77.76,1
75.00,77.88,1
57.00,77.83,1
75.00,77.40,1
50.00,76.63,1
46.00,75.34,1
134.00,74.15,1
86.00,74.10,1
83.00,74.83,1
134.00,76.11,1
141.00,78.63,1
103.00,82.25,1
75.00,85.77,1
66.00,88.24,1
176.00,90.36,1
103.00,93.31,1
38.00,95.93,1
103.00,97.07,1
135.00,97.87,1
34.00,98.60,1
35.00,97.85,1
73.00,95.52,1
47.00,92.45,1
85.00,89.14,1
74.00,86.09,1
87.00,83.57,1
65.00,81.48,1
55.00,79.44,1
44.00,77.07,1
85.00,74.60,1
48.00,72.42,1
59.00,70.36,1
42.00,68.18,1
88.00,66.17,1
84.00,64.96,1
43.00,64.37,1
42.00,63.54,1
97.00,62.66,1
106.00,62.76,1
129.00,64.39,1
73.00,67.10,1
81.00,69.89,1
70.00,72.22,1
66.00,73.98,1
80.00,75.20,1
160.00,76.83,1
58.00,79.33,1
40.00,81.21,1
82.00,81.77,1
44.00,81.55,1
49.00,80.47,1
41.00,78.50,1
85.00,76.20,1
95.00,74.46,1
46.00,73.33,1
64.00,72.12,1
54.00,70.71,1
81.00,69.38,1
127.00,68.92,1
66.00,69.61,1
96.00,70.77,1
121.00,72.46,1
182.00,75.63,1
82.00,80.25,1
92.00,84.73,1
153.00,88.80,1
192.00,93.82,1
149.00,100.26,1
87.00,106.61,1
80.00,111.24,1
64.00,113.62,1
133.00,114.49,1
60.00,114.59,1
176.00,114.41,1
41.00,114.24,1
55.00,112.92,1
44.00,109.77,1
62.00,105.44,1
70.00,100.63,1
214.00,97.09,1
39.00,95.63,1
49.00,94.18,1
81.00,91.78,1
78.00,89.31,1
63.00,86.95,1
40.00,84.30,1
48.00,81.07,1
189.00,78.62,1
121.00,78.68,1
134.00,80.84,1
48.00,83.42,1
145.00,85.72,1
62.00,87.94,1
84.00,89.65,1
141.00,91.04,1
113.00,93.05,1
100.00,95.36,1
63.00,97.07,1
66.00,97.57,1
69.00,96.89,1
35.00,95.12,1
89.00,92.52,1
123.00,90.27,1
54.00,88.79,1
39.00,86.95,1
39.00,84.08,1
92.00,80.85,1
39.00,77.88,1
50.00,74.87,1
82.00,71.93,1
102.00,69.94,1
128.00,69.56,1
44.00,70.29,1
50.00,70.73,1
193.00,71.51,1
138.00,74.50,1
92.00,78.94,1
166.00,83.75,1
55.00,88.60,1
74.00,92.24,1
53.00,94.07,1
148.00,95.05,1
150.00,96.79,1
87.00,99.34,1
92.00,101.43,1
108.00,102.80,1
78.00,103.62,1
97.00,103.80,1
45.00,103.12,1
102.00,101.56,1
73.00,99.68,1
71.00,97.60,1
50.00,94.98,1
59.00,91.74,1
55.00,88.08,1
127.00,84.84,1
111.00,83.05,1
205.00,83.54,1
68.00,86.03,1
75.00,88.52,1
107.00,90.17,1
219.00,92.64,1
35.00,96.27,1
152.00,99.48,1
69.00,102.01,1
48.00,103.34,1
63.00,102.81,1
124.00,101.46,1
51.00,100.07,1
56.00,98.04,1
84.00,95.29,1
81.00,92.57,1
139.00,90.62,1
173.00,90.55,1
84.00,92.21,1
96.00,94.03,1
43.00,94.95,1
57.00,94.48,1
48.00,92.68,1
37.00,89.81,1
85.00,86.38,1
45.00,83.00,1
89.00,79.87,1
62.00,77.21,1
205.00,76.09,1
60.00,77.16,1
137.00,79.23,1
96.00,81.74,1
138.00,84.82,1
134.00,88.53,1
62.00,92.29,1
181.00,95.73,1
83.00,99.37,1
111.00,102.64,1
111.00,105.16,1
52.00,106.78,1
93.00,107.03,1
144.00,106.83,1
52.00,106.73,1
162.00,106.52,1
74.00,106.55,1
66.00,106.16,1
97.00,104.85,1
86.00,103.25,1
64.00,101.37,1
71.00,98.95,1
100.00,96.37,1
77.00,94.09,1
51.00,91.77,1
203.00,90.14,1
41.00,90.03,1
73.00,89.93,1
70.00,89.00,1
46.00,87.50,1
66.00,85.33,1
192.00,83.93,1
47.00,84.19,1
55.00,84.43,1
41.00,83.45,1
231.00,82.99,1
66.00,84.59,1
54.00,86.47,1
198.00,88.11,1
45.00,90.53,1
72.00,92.35,1
92.00,93.00,1
76.00,93.16,1
40.00,92.55,1
46.00,90.67,1
52.00,87.76,1
98.00,84.71,1
130.00,82.72,1
86.00,82.13,1
96.00,82.27,1
66.00,82.50,1
84.00,82.52,1
54.00,82.20,1
66.00,81.36,1
42.00,79.91,1
37.00,77.70,1
62.00,74.93,1
68.00,72.22,1
88.00,70.15,1
165.00,69.63,1
66.00,70.96,1
82.00,72.77,1
73.00,74.23,1
45.00,75.14,1
60.00,75.20,1
47.00,74.50,1
39.00,73.08,1
45.00,70.99,1
86.00,68.83,1
95.00,67.50,1
105.00,67.41,1
108.00,68.52,1
130.00,70.81,1
134.00,74.37,1
236.00,79.88,1
83.00,87.12,1
51.00,93.49,1
50.00,97.19,1
128.00,99.09,1
149.00,101.03,1
89.00,103.41,1
153.00,105.77,1
116.00,108.29,1
208.00,111.53,1
55.00,115.15,1
118.00,117.70,1
137.00,119.27,1
122.00,120.77,1
48.00,121.45,1
191.00,121.33,1
137.00,121.92,1
138.00,123.32,1
97.00,124.52,1
152.00,125.32,1
86.00,125.81,1
76.00,125.32,1
39.00,123.08,1
44.00,118.92,1
49.00,113.26,1
62.00,106.90,1
146.00,101.17,1
72.00,97.00,1
112.00,93.95,1
128.00,92.03,1
97.00,91.38,1
49.00,90.94,1
45.00,89.58,1
139.00,87.88,1
108.00,87.25,1
166.00,88.20,1
36.00,89.95,1
62.00,90.78,1
43.00,90.07,1
220.00,89.59,1
107.00,91.17,1
111.00,93.87,1
318.00,98.17,1
87.00,105.13,1
87.00,111.74,1
74.00,115.83,1
121.00,118.03,1
128.00,119.47,1
358.00,122.68,1
120.00,129.06,1
38.00,134.89,1
64.00,137.01,1
109.00,136.35,1
45.00,134.01,1
176.00,130.91,1
63.00,128.02,1
174.00,125.53,1
380.00,126.03,1
42.00,130.35,1
228.00,135.05,1
426.00,141.80,1
248.00,153.24,1
68.00,165.07,1
405.00,175.12,1
83.00,184.92,1
59.00,191.42,1
109.00,192.55,1
89.00,190.06,1
52.00,184.64,1
35.00,176.28,1
48.00,165.48,1
73.00,153.45,1
95.00,141.62,1
88.00,130.85,1
133.00,121.69,1
55.00,114.08,1
62.00,107.05,1
102.00,100.48,1
76.00,94.99,1
81.00,90.45,1
52.00,86.41,1
72.00,82.60,1
48.00,78.99,1
45.00,75.40,1
38.00,71.62,1
75.00,68.00,1
58.00,65.04,1
52.00,62.65,1
92.00,60.86,1
40.00,59.77,1
60.00,58.88,1
67.00,58.14,1
48.00,57.65,1
53.00,57.16,1
56.00,56.64,1
76.00,56.36,1
118.00,56.98,1
111.00,59.06,1
79.00,62.16,1
77.00,65.32,1
105.00,68.36,1
70.00,71.37,1
88.00,74.04,1
86.00,76.37,1
82.00,78.44,1
74.00,80.10,1
50.00,81.02,1
122.00,81.49,1
52.00,82.01,1
120.00,82.56,1
57.00,83.13,1
121.00,83.75,1
193.00,85.52,1
72.00,88.84,1
58.00,91.70,1
45.00,92.76,1
67.00,92.25,1
88.00,91.02,1
86.00,89.80,1
86.00,88.76,1
53.00,87.60,1
129.00,86.48,1
62.00,85.86,1
141.00,85.80,1
165.00,87.14,1
70.00,89.74,1
131.00,92.35,1
125.00,95.07,1
69.00,97.70,1
215.00,100.43,1
38.00,103.63,1
278.00,107.33,1
101.00,112.34,1
161.00,117.75,1
114.00,122.41,1
92.00,125.87,1
66.00,127.35,1
447.00,129.82,1
283.00,137.69,1
86.00,148.21,1
228.00,156.94,1
192.00,164.45,1
64.00,170.31,1
87.00,172.48,1
196.00,172.00,1
107.00,170.78,1
134.00,168.71,1
42.00,164.99,1
506.00,162.70,1
122.00,165.29,1
204.00,169.69,1
45.00,172.17,1
327.00,173.51,1
154.00,175.85,1
174.00,178.51,1
39.00,179.08,1
436.00,179.29,1
316.00,183.66,1
522.00,194.05,1
57.00,207.31,1
303.00,218.29,1
123.00,225.90,1
51.00,229.14,1
287.00,228.22,1
241.00,227.13,1
178.00,226.62,1
70.00,224.24,1
132.00,218.74,1
57.00,210.50,1
193.00,200.92,1
63.00,191.17,1
310.00,182.64,1
76.00,176.41,1
93.00,170.43,1
147.00,163.63,1
107.00,157.13,1
350.00,152.88,1
262.00,153.47,1
122.00,157.11,1
154.00,160.13,1
195.00,162.31,1
143.00,164.27,1
228.00,166.19,1
147.00,168.33,1
88.00,169.42,1
87.00,168.02,1
59.00,164.04,1
61.00,157.75,1
110.00,150.16,1
174.00,143.19,1
233.00,138.88,1
209.00,138.01,1
122.00,139.18,1
304.00,141.72,1
42.00,145.37,1
132.00,147.63,1
176.00,148.45,1
145.00,149.36,1
212.00,150.72,1
76.00,152.11,1
65.00,151.66,1
56.00,148.44,1
128.00,143.60,1
328.00,140.48,1
102.00,140.79,1
132.00,141.86,1
420.00,144.51,1
201.00,151.49,1
284.00,160.92,1
127.00,170.19,1
213.00,177.81,1
72.00,182.90,1
76.00,184.29,1
238.00,183.04,1
246.00,182.65,1
200.00,183.98,1
353.00,187.21,1
136.00,192.08,1
39.00,194.90,1
49.00,192.73,1
82.00,186.53,1
141.00,178.57,1
400.00,172.94,1
78.00,171.39,1
374.00,172.22,1
106.00,174.87,1
188.00,177.50,1
167.00,178.99,1
213.00,180.29,1
36.00,180.49,1
60.00,177.52,1
83.00,171.34,1
103.00,163.69,1
185.00,156.38,1
286.00,151.91,1
143.00,150.91,1
64.00,150.41,1
58.00,147.77,1
60.00,142.85,1
44.00,136.20,1
214.00,129.63,1
137.00,125.37,1
137.00,123.19,1
371.00,123.93,1
153.00,128.96,1
231.00,136.05,1
179.00,143.50,1
133.00,150.38,1
137.00,155.45,1
113.00,158.44,1
54.00,158.93,1
117.00,156.81,1
86.00,153.07,1
364.00,150.57,1
166.00,151.77,1
137.00,154.57,1
38.00,155.55,1
75.00,153.50,1
110.00,149.31,1
97.00,144.43,1
163.00,139.81,1
77.00,135.80,1
52.00,131.32,1
274.00,127.33,1
72.00,125.66,1
243.00,125.71,1
79.00,126.86,1
72.00,127.44,1
73.00,126.10,1
208.00,124.44,1
135.00,124.23,1
48.00,124.32,1
173.00,123.62,1
280.00,124.58,1
59.00,127.76,1
51.00,129.67,1
49.00,128.54,1
72.00,125.24,1
38.00,120.49,1
41.00,114.45,1
250.00,109.13,1
99.00,106.79,1
263.00,107.36,1
139.00,110.61,1
89.00,114.65,1
143.00,117.73,1
162.00,120.62,1
46.00,123.06,1
247.00,124.99,1
211.00,128.56,1
251.00,134.65,1
262.00,142.90,1
126.00,151.93,1
98.00,158.83,1
111.00,162.39,1
118.00,163.32,1
67.00,162.03,1
118.00,158.75,1
66.00,154.02,1
215.00,149.17,1
42.00,145.00,1
51.00,139.91,1
117.00,133.57,1
167.00,128.06,1
60.00,123.88,1
88.00,119.70,1
75.00,115.13,1
220.00,111.64,1
38.00,109.88,1
125.00,108.39,1
175.00,107.50,1
217.00,109.00,1
230.00,113.47,1
166.00,120.09,1
79.00,126.46,1
134.00,130.89,1
184.00,134.32,1
103.00,137.48,1
88.00,139.29,1
152.00,139.62,1
409.00,141.89,1
85.00,147.62,1
90.00,152.62,1
194.00,155.16,1
299.00,158.38,1
50.00,162.56,1
309.00,166.21,1
127.00,170.07,1
359.00,174.99,1
112.00,180.87,1
123.00,185.19,1
122.00,186.31,1
74.00,184.64,1
151.00,180.71,1
159.00,176.18,1
67.00,171.34,1
97.00,165.21,1
127.00,158.29,1
44.00,151.06,1
76.00,142.94,1
40.00,133.99,1
248.00,126.10,1
94.00,121.16,1
107.00,117.88,1
203.00,115.72,1
98.00,115.29,1
94.00,115.23,1
168.00,115.13,1
248.00,116.85,1
69.00,120.40,1
65.00,122.83,1
49.00,122.66,1
148.00,121.03,1
110.00,119.55,1
127.00,118.57,1
64.00,117.44,1
119.00,115.79,1
54.00,113.64,1
53.00,110.56,1
76.00,106.52,1
208.00,103.34,1
66.00,102.13,1
40.00,100.98,1
143.00,99.15,1
36.00,97.48,1
91.00,95.51,1
189.00,94.22,1
73.00,94.60,1
106.00,95.41,1
78.00,95.87,1
135.00,96.34,1
75.00,97.00,1
116.00,97.61,1
58.00,97.86,1
58.00,97.21,1
76.00,95.55,1
130.00,93.94,1
45.00,92.76,1
154.00,91.89,1
82.00,91.78,1
108.00,92.18,1
64.00,92.44,1
132.00,92.61,1
42.00,92.74,1
286.00,93.92,1
51.00,97.24,1
90.00,100.50,1
86.00,102.27,1
37.00,102.69,1
218.00,102.74,1
38.00,103.61,1
67.00,103.81,1
58.00,102.44,1
80.00,100.18,1
128.00,98.00,1
48.00,96.28,1
70.00,94.22,1
52.00,91.50,1
40.00,88.17,1
54.00,84.26,1
60.00,80.22,1
160.00,77.26,1
63.00,76.13,1
100.00,75.94,1
62.00,75.98,1
105.00,76.21,1
109.00,77.02,1
128.00,78.83,1
52.00,81.05,1
102.00,82.82,1
103.00,84.40,1
172.00,86.77,1
64.00,89.93,1
120.00,92.84,1
152.00,95.74,1
102.00,99.14,1
72.00,101.98,1
291.00,105.21,1
45.00,109.94,1
84.00,113.75,1
205.00,116.33,1
143.00,119.72,1
40.00,122.73,1
98.00,123.59,1
46.00,122.49,1
179.00,120.64,1
229.00,120.48,1
127.00,122.71,1
162.00,125.67,1
100.00,128.33,1
288.00,131.49,1
126.00,136.18,1
60.00,140.20,1
69.00,141.23,1
88.00,139.70,1
121.00,136.94,1
58.00,133.51,1
86.00,129.16,1
96.00,124.28,1
89.00,119.49,1
179.00,115.64,1
69.00,113.16,1
194.00,111.75,1
143.00,111.96,1
75.00,113.01,1
81.00,113.15,1
104.00,112.33,1
542.00,114.90,1
216.00,124.68,1
182.00,137.60,1
209.00,149.38,1
196.00,159.98,1
172.00,169.13,1
134.00,176.06,1
128.00,180.20,1
53.00,181.06,1
86.00,178.29,1
329.00,174.88,1
74.00,173.27,1
61.00,170.76,1
201.00,166.48,1
58.00,162.03,1
127.00,156.96,1
118.00,151.46,1
37.00,145.58,1
78.00,138.50,1
52.00,130.56,1
62.00,122.22,1
58.00,113.75,1
127.00,106.07,1
69.00,99.88,1
73.00,94.67,1
38.00,89.67,1
47.00,84.53,1
43.00,79.25,1
58.00,74.21,1
72.00,69.83,1
47.00,66.26,1
162.00,64.06,1
52.00,63.79,1
92.00,64.45,1
81.00,65.44,1
37.00,66.44,1
80.00,66.94,1
93.00,67.51,1
112.00,68.84,1
78.00,70.84,1
156.00,73.54,1
164.00,77.75,1
146.00,83.64,1
45.00,89.49,1
58.00,93.40,1
42.00,94.93,1
91.00,94.86,1
66.00,94.07,1
46.00,92.56,1
91.00,90.42,1
138.00,88.82,1
122.00,88.75,1
41.00,89.26,1
101.00,89.21,1
193.00,89.84,1
195.00,93.01,1
37.00,97.46,1
222.00,101.68,1
166.00,106.89,1
83.00,112.59,1
70.00,116.51,1
207.00,119.19,1
90.00,122.04,1
90.00,124.11,1
129.00,124.86,1
74.00,124.79,1
171.00,124.31,1
156.00,124.58,1
66.00,125.20,1
39.00,124.24,1
60.00,121.05,1
54.00,116.38,1
59.00,110.85,1
105.00,105.27,1
38.00,100.08,1
49.00,94.72,1
56.00,89.10,1
61.00,83.71,1
96.00,79.12,1
56.00,75.56,1
111.00,73.01,1
53.00,71.39,1
110.00,70.50,1
72.00,70.34,1
92.00,70.76,1
46.00,71.23,1
68.00,71.31,1
50.00,70.93,1
177.00,71.15,1
118.00,73.31,1
88.00,76.67,1
89.00,79.86,1
246.00,83.88,1
164.00,90.34,1
64.00,97.53,1
313.00,104.78,1
182.00,114.05,1
126.00,123.97,1
226.00,132.87,1
107.00,140.91,1
112.00,146.92,1
87.00,150.08,1
68.00,150.39,1
162.00,148.82,1
139.00,147.09,1
149.00,145.78,1
134.00,144.69,1
81.00,143.18,1
38.00,140.04,1
107.00,135.22,1
47.00,129.54,1
147.00,123.82,1
200.00,119.86,1
41.00,117.75,1
77.00,115.21,1
62.00,111.60,1
61.00,107.33,1
110.00,102.97,1
124.00,99.60,1
152.00,97.98,1
126.00,98.08,1
235.00,100.21,1
196.00,105.07,1
99.00,111.28,1
216.00,117.38,1
115.00,123.48,1
91.00,128.47,1
152.00,131.72,1
50.00,133.51,1
127.00,133.60,1
62.00,132.26,1
93.00,129.70,1
91.00,126.27,1
90.00,122.50,1
76.00,118.45,1
70.00,114.03,1
37.00,109.00,1
323.00,105.45,1
190.00,106.49,1
64.00,110.11,1
118.00,112.82,1
121.00,114.62,1
269.00,117.41,1
79.00,121.77,1
107.00,125.47,1
175.00,128.00,1
292.00,131.89,1
127.00,137.83,1
100.00,143.13,1
47.00,145.52,1
95.00,144.87,1
57.00,142.04,1
71.00,137.50,1
41.00,131.45,1
72.00,124.35,1
41.00,116.72,1
65.00,108.85,1
66.00,101.24,1
47.00,94.12,1
146.00,88.14,1
58.00,83.96,1
39.00,80.50,1
171.00,77.74,1
54.00,76.70,1
135.00,76.80,1
98.00,77.82,1
71.00,79.35,1
38.00,80.18,1
40.00,79.71,1
128.00,78.74,1
68.00,78.41,1
82.00,78.42,1
127.00,78.82,1
103.00,80.13,1
76.00,81.87,1
64.00,83.12,1
68.00,83.56,1
52.00,83.22,1
96.00,82.42,1
86.00,81.82,1
85.00,81.57,1
103.00,81.65,1
93.00,82.20,1
133.00,83.39,1
80.00,85.16,1
121.00,87.12,1
36.00,88.68,1
110.00,89.44,1
199.00,90.81,1
116.00,94.04,1
57.00,97.41,1
66.00,99.20,1
90.00,99.57,1
73.00,99.19,1
112.00,98.50,1
85.00,97.87,1
49.00,96.89,1
36.00,94.75,1
144.00,92.18,1
116.00,90.82,1
120.00,90.89,1
113.00,91.82,1
239.00,94.37,1
147.00,99.30,1
78.00,104.82,1
77.00,108.69,1
127.00,111.00,1
54.00,112.27,1
96.00,112.23,1
106.00,111.40,1
57.00,110.10,1
58.00,107.76,1
70.00,104.43,1
113.00,101.01,1
111.00,98.44,1
69.00,96.58,1
99.00,94.84,1
129.00,93.67,1
112.00,93.56,1
35.00,93.59,1
65.00,92.56,1
81.00,90.74,1
98.00,89.04,1
61.00,87.60,1
45.00,85.80,1
122.00,83.84,1
53.00,82.42,1
136.00,81.62,1
172.00,82.43,1
110.00,85.20,1
44.00,88.09,1
84.00,89.71,1
52.00,90.17,1
105.00,89.95,1
152.00,90.23,1
116.00,91.80,1
37.00,93.43,1
173.00,94.59,1
183.00,97.01,1
138.00,101.25,1
50.00,105.33,1
153.00,108.18,1
54.00,110.15,1
136.00,111.28,1
164.00,112.51,1
209.00,115.30,1
43.00,118.79,1
38.00,120.27,1
117.00,119.37,1
73.00,117.59,1
172.00,115.94,1
114.00,115.25,1
63.00,114.74,1
70.00,113.10,1
367.00,112.84,1
159.00,116.89,1
66.00,122.34,1
94.00,125.61,1
49.00,126.43,1
114.00,125.40,1
39.00,123.08,1
78.00,119.47,1
43.00,114.72,1
91.00,109.42,1
61.00,104.14,1
97.00,99.24,1
96.00,95.13,1
155.00,92.54,1
76.00,91.49,1
218.00,92.04,1
126.00,94.70,1
262.00,99.69,1
115.00,106.52,1
112.00,113.18,1
47.00,117.68,1
45.00,119.27,1
54.00,118.10,1
43.00,114.92,1
66.00,110.39,1
91.00,105.50,1
75.00,100.96,1
71.00,96.75,1
144.00,93.34,1
68.00,91.20,1
101.00,89.70,1
171.00,89.25,1
155.00,90.88,1
136.00,94.21,1
110.00,98.08,1
98.00,101.53,1
324.00,106.00,1
127.00,113.15,1
74.00,120.23,1
40.00,124.23,1
42.00,124.74,1
99.00,122.87,1
168.00,120.75,1
110.00,119.66,1
70.00,118.66,1
292.00,118.47,1
125.00,120.84,1
98.00,123.94,1
87.00,125.57,1
77.00,125.54,1
86.00,124.05,1
152.00,122.13,1
59.00,120.34,1
38.00,117.53,1
87.00,113.33,1
114.00,109.09,1
171.00,106.29,1
538.00,108.87,1
117.00,118.56,1
60.00,128.92,1
82.00,135.15,1
150.00,138.47,1
108.00,140.46,1
37.00,140.67,1
39.00,137.99,1
69.00,132.88,1
168.00,127.45,1
62.00,122.97,1
206.00,119.62,1
66.00,117.59,1
204.00,116.62,1
100.00,116.78,1
42.00,116.72,1
99.00,115.15,1
49.00,112.55,1
150.00,109.70,1
198.00,108.43,1
157.00,109.69,1
137.00,112.41,1
55.00,114.78,1
99.00,115.65,1
81.00,115.21,1
49.00,113.64,1
80.00,110.82,1
40.00,107.06,1
113.00,102.92,1
116.00,99.53,1
103.00,97.37,1
208.00,96.91,1
208.00,99.37,1
108.00,103.98,1
179.00,109.04,1
108.00,114.04,1
291.00,119.74,1
40.00,126.16,1
75.00,130.54,1
128.00,132.18,1
41.00,132.12,1
146.00,130.64,1
67.00,128.50,1
135.00,126.05,1
221.00,124.63,1
42.00,124.55,1
60.00,123.39,1
52.00,120.16,1
82.00,115.76,1
156.00,111.65,1
42.00,108.45,1
104.00,105.27,1
119.00,102.43,1
160.00,101.03,1
95.00,101.04,1
242.00,102.60,1
38.00,105.49,1
36.00,107.11,1
292.00,108.13,1
194.00,112.06,1
63.00,117.53,1
51.00,120.86,1
138.00,121.89,1
186.00,122.89,1
44.00,124.16,1
127.00,124.34,1
139.00,123.98,1
78.00,123.60,1
47.00,122.05,1
105.00,119.12,1
209.00,116.81,1
199.00,117.15,1
127.00,119.61,1
101.00,122.11,1
34.00,122.96,1
164.00,122.30,1
44.00,121.11,1
88.00,119.00,1
72.00,115.88,1
67.00,112.15,1
55.00,107.75,1
286.00,104.67,1
119.00,105.06,1
125.00,107.27,1
57.00,108.93,1
125.00,109.59,1
144.00,110.20,1
135.00,111.55,1
124.00,113.34,1
107.00,115.00,1
189.00,116.82,1
46.00,118.73,1
60.00,119.08,1
56.00,117.24,1
110.00,114.29,1
84.00,111.26,1
52.00,107.99,1
70.00,104.07,1
61.00,99.74,1
54.00,95.17,1
204.00,91.64,1
85.00,90.45,1
69.00,90.23,1
104.00,89.78,1
96.00,89.55,1
89.00,89.60,1
52.00,89.38,1
36.00,88.13,1
86.00,86.00,1
46.00,83.64,1
201.00,82.21,1
194.00,83.73,1
144.00,88.21,1
59.00,93.19,1
108.00,96.94,1
112.00,99.79,1
135.00,102.52,1
66.00,104.90,1
44.00,105.79,1
50.00,104.64,1
56.00,101.96,1
167.00,99.26,1
144.00,98.35,1
99.00,98.99,1
79.00,99.69,1
40.00,99.38,1
230.00,99.07,1
74.00,100.32,1
96.00,101.87,1
77.00,102.53,1
60.00,102.18,1
36.00,100.47,1
98.00,97.74,1
90.00,95.10,1
36.00,92.53,1
83.00,89.55,1
181.00,87.48,1
38.00,87.03,1
80.00,86.59,1
94.00,85.81,1
127.00,85.66,1
69.00,86.15,1
93.00,86.64,1
66.00,86.79,1
80.00,86.56,1
62.00,85.91,1
92.00,85.01,1
237.00,85.50,1
190.00,89.32,1
195.00,96.02,1
83.00,103.42,1
61.00,109.10,1
108.00,112.39,1
125.00,114.49,1
138.00,116.40,1
74.00,117.93,1
122.00,118.56,1
95.00,118.53,1
73.00,117.78,1
67.00,115.84,1
84.00,112.94,1
161.00,110.28,1
87.00,108.69,1
73.00,107.26,1
76.00,105.18,1
134.00,103.09,1
149.00,102.17,1
51.00,102.10,1
125.00,101.78,1
55.00,101.10,1
72.00,99.78,1
148.00,98.34,1
42.00,97.39,1
46.00,95.73,1
372.00,95.50,1
109.00,99.66,1
55.00,104.88,1
65.00,107.70,1
51.00,108.24,1
75.00,107.07,1
56.00,104.75,1
61.00,101.56,1
70.00,97.82,1
72.00,94.01,1
304.00,92.28,1
124.00,94.59,1
60.00,98.27,1
35.00,100.10,1
55.00,99.70,1
58.00,97.79,1
70.00,95.08,1
235.00,93.46,1
165.00,94.97,1
216.00,99.43,1
55.00,104.93,1
171.00,109.75,1
176.00,114.52,1
128.00,119.76,1
137.00,124.49,1
76.00,127.91,1
127.00,129.70,1
58.00,129.98,1
71.00,128.48,1
125.00,125.76,1
219.00,124.00,1
134.00,124.34,1
125.00,125.56,1
81.00,126.19,1
50.00,125.25,1
101.00,122.72,1
43.00,119.16,1
112.00,114.98,1
214.00,111.99,1
92.00,111.24,1
121.00,111.28,1
113.00,111.32,1
72.00,111.13,1
117.00,110.41,1
74.00,109.34,1
140.00,108.27,1
84.00,107.49,1
149.00,107.12,1
65.00,107.00,1
66.00,106.22,1
195.00,105.35,1
43.00,105.35,1
131.00,105.28,1
134.00,105.36,1
64.00,105.78,1
146.00,105.97,1
91.00,106.30,1
48.00,106.15,1
159.00,105.39,1
75.00,104.97,1
88.00,104.46,1
58.00,103.16,1
145.00,101.65,1
79.00,100.66,1
61.00,99.60,1
79.00,97.80,1
53.00,95.45,1
198.00,93.69,1
224.00,94.81,1
127.00,98.95,1
61.00,103.27,1
59.00,105.68,1
108.00,106.39,1
37.00,105.99,1
128.00,104.73,1
43.00,103.09,1
115.00,101.15,1
74.00,99.20,1
52.00,97.04,1
138.00,94.80,1
174.00,94.12,1
166.00,95.90,1
77.00,98.90,1
55.00,101.00,1
42.00,101.15,1
64.00,99.59,1
103.00,97.37,1
66.00,95.24,1
230.00,94.32,1
162.00,96.19,1
99.00,99.85,1
127.00,103.35,1
36.00,105.80,1
114.00,106.75,1
76.00,106.75,1
111.00,106.34,1
93.00,105.74,1
72.00,104.83,1
206.00,104.33,1
48.00,104.91,1
132.00,105.47,1
143.00,106.17,1
106.00,107.53,1
45.00,108.31,1
87.00,107.64,1
40.00,105.71,1
56.00,102.58,1
100.00,98.89,1
114.00,95.88,1
58.00,93.62,1
278.00,93.00,1
180.00,96.03,1
152.00,101.75,1
52.00,107.16,1
62.00,110.36,1
57.00,111.03,1
89.00,110.05,1
140.00,108.77,1
119.00,108.23,1
383.00,110.54,1
115.00,116.92,1
134.00,124.06,1
67.00,129.10,1
101.00,131.70,1
112.00,132.47,1
61.00,131.84,1
42.00,129.29,1
53.00,124.69,1
114.00,119.22,1
197.00,115.07,1
127.00,113.38,1
46.00,112.47,1
60.00,110.37,1
79.00,107.14,1
40.00,103.26,1
58.00,98.70,1
59.00,93.75,1
85.00,89.05,1
56.00,84.88,1
48.00,80.94,1
43.00,76.87,1
44.00,72.70,1
84.00,68.91,1
67.00,66.06,1
73.00,64.12,1
98.00,63.09,1
52.00,62.88,1
50.00,62.73,1
42.00,62.14,1
146.00,61.96,1
56.00,62.99,1
59.00,64.31,1
69.00,65.20,1
87.00,66.07,1
54.00,67.00,1
59.00,67.59,1
107.00,68.11,1
48.00,68.91,1
181.00,70.41,1
97.00,73.42,1
47.00,76.76,1
114.00,79.28,1
76.00,81.47,1
70.00,83.22,1
47.00,83.96,1
60.00,83.59,1
70.00,82.51,1
85.00,81.32,1
57.00,80.18,1
61.00,78.81,1
38.00,76.95,1
94.00,74.90,1
52.00,73.17,1
51.00,71.48,1
43.00,69.46,1
103.00,67.61,1
78.00,66.67,1
306.00,68.45,1
149.00,74.47,1
74.00,82.20,1
84.00,88.50,1
38.00,92.67,1
62.00,94.59,1
104.00,95.13,1
247.00,96.66,1
56.00,100.04,1
61.00,102.78,1
70.00,103.52,1
58.00,102.78,1
58.00,100.85,1
48.00,97.86,1
50.00,94.03,1
44.00,89.60,1
104.00,85.28,1
209.00,82.99,1
35.00,83.13,1
56.00,83.26,1
88.00,82.54,1
49.00,81.59,1
140.00,80.87,1
211.00,82.13,1
87.00,85.76,1
59.00,89.35,1
35.00,91.10,1
194.00,92.09,1
69.00,93.86,1
42.00,95.19,1
47.00,94.70,1
60.00,92.82,1
190.00,91.27,1
40.00,91.06,1
67.00,90.68,1
51.00,89.24,1
44.00,86.95,1
57.00,83.94,1
64.00,80.72,1
60.00,77.62,1
73.00,74.82,1
68.00,72.48,1
98.00,70.86,1
98.00,70.28,1
65.00,70.49,1
35.00,70.49,1
48.00,69.67,1
56.00,68.28,1
167.00,67.69,1
34.00,68.50,1
124.00,69.83,1
39.00,71.19,1
69.00,72.11,1
66.00,72.42,1
76.00,72.56,1
178.00,73.53,1
39.00,75.74,1
212.00,78.79,1
101.00,83.18,1
83.00,87.88,1
128.00,91.80,1
38.00,94.87,1
47.00,96.13,1
66.00,95.54,1
37.00,93.72,1
37.00,90.69,1
81.00,86.98,1
100.00,83.76,1
44.00,81.23,1
54.00,78.62,1
60.00,75.78,1
72.00,73.14,1
43.00,70.77,1
105.00,68.79,1
80.00,67.77,1
226.00,68.80,1
121.00,72.74,1
177.00,78.66,1
120.00,85.48,1
47.00,91.67,1
112.00,96.03,1
169.00,99.81,1
51.00,103.52,1
46.00,105.54,1
124.00,105.79,1
163.00,106.26,1
79.00,107.48,1
38.00,107.82,1
64.00,106.33,1
52.00,103.46,1
40.00,99.57,1
54.00,94.86,1
56.00,89.83,1
52.00,84.83,1
46.00,79.94,1
88.00,75.49,1
43.00,71.80,1
96.00,68.86,1
159.00,67.62,1
298.00,70.35,1
95.00,77.14,1
49.00,84.19,1
79.00,88.99,1
62.00,91.93,1
54.00,93.24,1
70.00,93.12,1
54.00,92.01,1
67.00,90.14,1
259.00,89.44,1
143.00,92.00,1
36.00,95.72,1
106.00,98.03,1
141.00,99.76,1
55.00,101.43,1
127.00,102.48,1
49.00,102.84,1
56.00,102.03,1
87.00,100.09,1
38.00,97.50,1
67.00,94.23,1
150.00,91.28,1
94.00,89.84,1
39.00,88.89,1
97.00,87.46,1
84.00,86.09,1
44.00,84.77,1
36.00,82.66,1
106.00,80.16,1
42.00,78.01,1
47.00,75.76,1
72.00,73.26,1
54.00,70.97,1
114.00,69.31,1
155.00,69.37,1
95.00,71.42,1
150.00,74.72,1
166.00,79.39,1
114.00,85.25,1
76.00,90.77,1
51.00,94.58,1
118.00,96.79,1
49.00,98.04,1
89.00,98.27,1
58.00,97.55,1
138.00,96.61,1
39.00,95.78,1
49.00,94.17,1
59.00,91.46,1
46.00,88.12,1
37.00,84.20,1
57.00,79.91,1
107.00,76.15,1
139.00,74.16,1
155.00,74.68,1
86.00,77.06,1
99.00,79.86,1
89.00,82.42,1
51.00,84.35,1
41.00,84.94,1
89.00,84.42,1
113.00,83.97,1
107.00,84.35,1
91.00,85.31,1
137.00,86.74,1
78.00,88.63,1
52.00,89.98,1
151.00,90.79,1
37.00,91.63,1
37.00,91.41,1
74.00,89.73,1
72.00,87.61,1
94.00,85.67,1
68.00,84.08,1
115.00,82.95,1
84.00,82.50,1
149.00,83.01,1
88.00,84.55,1
45.00,85.98,1
64.00,86.23,1
64.00,85.51,1
52.00,84.16,1
37.00,82.03,1
83.00,79.41,1
84.00,77.18,1
142.00,76.18,1
50.00,76.37,1
71.00,76.58,1
135.00,76.91,1
44.00,77.80,1
218.00,79.57,1
177.00,83.69,1
40.00,89.11,1
54.00,92.83,1
206.00,95.52,1
137.00,99.39,1
64.00,103.55,1
65.00,106.02,1
158.00,107.30,1
38.00,108.19,1
53.00,107.65,1
43.00,105.20,1
65.00,101.53,1
46.00,97.18,1
72.00,92.55,1
68.00,88.10,1
39.00,83.85,1
137.00,80.19,1
36.00,77.64,1
44.00,75.23,1
38.00,72.25,1
75.00,69.20,1
96.00,66.94,1
78.00,65.87,1
83.00,65.66,1
34.00,65.64,1
54.00,65.14,1
50.00,64.18,1
71.00,63.20,1
41.00,62.28,1
44.00,61.15,1
112.00,60.26,1
46.00,60.20,1
68.00,60.41,1
50.00,60.49,1
38.00,60.26,1
192.00,60.71,1
39.00,62.89,1
72.00,65.29,1
80.00,67.13,1
158.00,69.55,1
54.00,72.81,1
114.00,76.03,1
33.00,78.55,1
121.00,80.36,1
147.00,82.57,1
70.00,85.55,1
47.00,87.74,1
105.00,88.73,1
50.00,89.07,1
94.00,88.85,1
88.00,88.44,1
44.00,87.79,1
135.00,86.97,1
195.00,87.68,1
62.00,90.20,1
35.00,92.05,1
117.00,92.47,1
49.00,92.35,1
176.00,92.44,1
64.00,93.31,1
88.00,94.12,1
57.00,94.08,1
44.00,92.95,1
140.00,91.37,1
65.00,90.36,1
55.00,89.29,1
75.00,87.59,1
36.00,85.39,1
39.00,82.41,1
41.00,78.69,1
89.00,74.99,1
61.00,72.02,1
50.00,69.55,1
99.00,67.51,1
76.00,66.42,1
40.00,65.81,1
205.00,66.16,1
83.00,68.69,1
121.00,72.40,1
128.00,76.57,1
36.00,80.64,1
39.00,83.02,1
78.00,83.66,1
48.00,83.38,1
74.00,82.46,1
78.00,81.29,1
135.00,80.75,1
42.00,80.89,1
63.00,80.65,1
77.00,79.82,1
78.00,78.98,1
36.00,77.96,1
42.00,76.19,1
82.00,73.98,1
43.00,71.92,1
109.00,70.26,1
44.00,69.21,1
122.00,68.77,1
148.00,69.77,1
95.00,72.49,1
116.00,75.93,1
37.00,79.04,1
52.00,80.79,1
38.00,80.90,1
81.00,80.02,1
47.00,78.75,1
92.00,77.38,1
147.00,76.91,1
46.00,77.59,1
68.00,78.08,1
102.00,78.21,1
54.00,78.43,1
136.00,78.86,1
52.00,79.70,1
199.00,81.34,1
44.00,84.00,1
52.00,86.04,1
109.00,86.88,1
76.00,87.49,1
51.00,87.65,1
70.00,86.91,1
48.00,85.45,1
140.00,84.03,1
68.00,83.45,1
38.00,82.85,1
35.00,81.13,1
137.00,79.17,1
77.00,78.26,1
38.00,77.70,1
42.00,76.32,1
85.00,74.45,1
77.00,72.96,1
64.00,71.92,1
42.00,70.80,1
127.00,69.87,1
38.00,69.62,1
66.00,69.36,1
79.00,68.91,1
70.00,68.73,1
76.00,68.76,1
36.00,68.64,1
62.00,68.01,1
84.00,67.30,1
66.00,66.98,1
70.00,66.89,1
65.00,66.86,1
35.00,66.55,1
48.00,65.64,1
54.00,64.29,1
127.00,63.49,1
46.00,63.71,1
50.00,64.00,1
111.00,64.23,1
37.00,64.84,1
127.00,65.74,1
45.00,67.03,1
78.00,68.24,1
57.00,69.03,1
61.00,69.44,1
150.00,70.17,1
41.00,71.73,1
68.00,73.03,1
74.00,73.67,1
53.00,73.94,1
62.00,73.71,1
68.00,73.12,1
78.00,72.53,1
39.00,71.86,1
61.00,70.77,1
60.00,69.42,1
166.00,68.98,1
168.00,71.01,1
82.00,75.06,1
80.00,79.07,1
67.00,82.05,1
88.00,84.10,1
41.00,85.20,1
119.00,85.62,1
226.00,87.29,1
153.00,91.69,1
202.00,98.08,1
47.00,104.69,1
41.00,109.02,1
128.00,110.83,1
54.00,111.45,1
109.00,111.07,1
113.00,110.30,1
48.00,109.23,1
132.00,107.61,1
127.00,106.46,1
120.00,106.25,1
69.00,106.19,1
123.00,105.77,1
50.00,104.97,1
82.00,103.42,1
72.00,101.18,1
47.00,98.38,1
107.00,95.26,1
68.00,92.46,1
163.00,90.63,1
48.00,89.90,1
40.00,88.84,1
36.00,86.45,1
61.00,83.20,1
48.00,79.69,1
107.00,76.56,1
96.00,74.61,1
114.00,74.08,1
81.00,74.60,1
41.00,75.15,1
68.00,74.99,1
59.00,74.33,1
127.00,73.96,1
84.00,74.52,1
121.00,75.93,1
66.00,77.73,1
71.00,79.20,1
100.00,80.25,1
150.00,81.88,1
37.00,84.02,1
88.00,85.45,1
62.00,85.97,1
130.00,86.36,1
86.00,87.17,1
36.00,87.70,1
54.00,86.95,1
46.00,85.08,1
101.00,82.87,1
152.00,81.77,1
74.00,82.19,1
69.00,82.85,1
190.00,83.93,1
77.00,86.33,1
61.00,88.65,1
249.00,91.19,1
90.00,95.47,1
130.00,100.18,1
60.00,103.84,1
38.00,105.56,1
69.00,105.08,1
42.00,103.01,1
102.00,100.14,1
73.00,97.29,1
88.00,94.67,1
46.00,91.99,1
39.00,88.72,1
85.00,85.01,1
59.00,81.60,1
46.00,78.36,1
121.00,75.56,1
80.00,73.97,1
52.00,73.08,1
55.00,71.95,1
38.00,70.36,1
41.00,68.24,1
49.00,65.77,1
64.00,63.39,1
118.00,61.93,1
46.00,61.62,1
43.00,61.44,1
36.00,60.67,1
60.00,59.52,1
130.00,59.05,1
40.00,59.73,1
105.00,60.87,1
43.00,62.15,1
84.00,63.34,1
52.00,64.33,1
112.00,65.43,1
66.00,66.94,1
79.00,68.53,1
52.00,69.76,1
84.00,70.60,1
39.00,71.03,1
48.00,70.75,1
67.00,69.85,1
38.00,68.68,1
92.00,67.46,1
37.00,66.44,1
54.00,65.28,1
50.00,63.86,1
35.00,62.22,1
127.00,60.96,1
156.00,61.67,1
99.00,64.64,1
89.00,68.41,1
47.00,71.70,1
122.00,74.35,1
79.00,76.96,1
146.00,79.92,1
84.00,83.31,1
152.00,86.97,1
49.00,90.49,1
51.00,92.66,1
70.00,93.06,1
83.00,92.54,1
51.00,91.47,1
44.00,89.50,1
88.00,86.93,1
104.00,84.78,1
103.00,83.65,1
139.00,83.74,1
150.00,85.42,1
48.00,87.90,1
42.00,89.25,1
243.00,90.43,1
81.00,93.37,1
109.00,96.78,1
113.00,99.58,1
54.00,101.63,1
121.00,102.65,1
104.00,103.34,1
43.00,103.52,1
254.00,103.90,1
214.00,107.11,1
49.00,112.05,1
50.00,115.09,1
80.00,115.47,1
84.00,114.35,1
56.00,112.24,1
68.00,109.09,1
107.00,105.56,1
50.00,102.13,1
234.00,99.80,1
99.00,99.84,1
48.00,100.54,1
126.00,100.38,1
82.00,100.10,1
78.00,99.62,1
85.00,98.63,1
75.00,97.28,1
122.00,95.99,1
64.00,95.00,1
162.00,94.52,1
102.00,95.09,1
78.00,96.06,1
101.00,96.59,1
35.00,96.40,1
68.00,95.02,1
70.00,92.81,1
119.00,90.77,1
82.00,89.45,1
210.00,89.57,1
171.00,92.27,1
38.00,96.17,1
72.00,98.59,1
74.00,99.28,1
179.00,99.82,1
65.00,101.04,1
68.00,101.73,1
142.00,101.73,1
127.00,102.33,1
56.00,103.14,1
101.00,103.15,1
88.00,102.60,1
80.00,101.74,1
47.00,100.16,1
44.00,97.43,1
108.00,94.14,1
76.00,91.31,1
143.00,89.46,1
36.00,88.39,1
40.00,86.76,1
60.00,84.10,1
48.00,81.00,1
100.00,78.09,1
44.00,75.71,1
36.00,73.24,1
130.00,70.98,1
36.00,69.66,1
35.00,68.31,1
113.00,66.84,1
99.00,66.49,1
102.00,67.43,1
131.00,69.52,1
58.00,72.30,1
126.00,75.10,1
92.00,78.08,1
101.00,81.16,1
39.00,83.57,1
100.00,84.94,1
40.00,85.47,1
60.00,85.04,1
94.00,83.99,1
39.00,82.78,1
92.00,81.31,1
153.00,80.61,1
35.00,81.01,1
92.00,81.23,1
39.00,80.85,1
51.00,79.70,1
41.00,77.69,1
56.00,75.16,1
69.00,72.59,1
77.00,70.47,1
51.00,68.79,1
66.00,67.27,1
41.00,65.74,1
52.00,64.05,1
151.00,63.10,1
71.00,63.81,1
110.00,65.58,1
45.00,67.54,1
119.00,69.43,1
49.00,71.32,1
89.00,72.92,1
125.00,74.65,1
84.00,76.98,1
57.00,79.10,1
45.00,80.09,1
93.00,80.18,1
63.00,80.02,1
59.00,79.54,1
36.00,78.34,1
90.00,76.66,1
51.00,75.05,1
149.00,74.17,1
177.00,75.41,1
39.00,78.39,1
88.00,80.89,1
66.00,82.44,1
140.00,83.87,1
58.00,85.52,1
38.00,86.37,1
42.00,85.59,1
150.00,84.41,1
58.00,84.05,1
67.00,83.74,1
114.00,83.27,1
147.00,83.82,1
81.00,85.51,1
241.00,88.54,1
121.00,93.57,1
47.00,98.69,1
116.00,102.05,1
69.00,104.10,1
104.00,105.17,1
84.00,105.48,1
120.00,105.47,1
38.00,104.96,1
82.00,103.40,1
110.00,101.38,1
49.00,99.39,1
113.00,97.25,1
135.00,95.79,1
86.00,95.38,1
42.00,94.80,1
59.00,93.12,1
54.00,90.53,1
121.00,87.94,1
133.00,86.61,1
126.00,86.98,1
39.00,87.89,1
103.00,88.21,1
194.00,89.17,1
104.00,91.86,1
63.00,94.72,1
71.00,96.24,1
160.00,97.23,1
100.00,98.84,1
62.00,100.29,1
69.00,100.49,1
52.00,99.41,1
114.00,97.66,1
144.00,96.61,1
103.00,96.80,1
34.00,96.91,1
52.00,95.63,1
39.00,92.95,1
56.00,89.38,1
59.00,85.45,1
54.00,81.52,1
136.00,78.35,1
83.00,76.72,1
90.00,76.20,1
70.00,76.03,1
58.00,75.77,1
39.00,74.93,1
40.00,73.28,1
74.00,71.19,1
128.00,69.85,1
92.00,70.02,1
76.00,71.06,1
65.00,72.05,1
143.00,73.30,1
172.00,76.16,1
36.00,80.16,1
54.00,83.00,1
53.00,84.04,1
74.00,83.98,1
101.00,83.65,1
71.00,83.51,1
64.00,83.17,1
58.00,82.29,1
52.00,80.81,1
93.00,79.11,1
142.00,78.35,1
62.00,78.82,1
99.00,79.59,1
135.00,80.81,1
86.00,82.84,1
82.00,84.86,1
64.00,86.18,1
174.00,87.52,1
86.00,89.76,1
67.00,91.91,1
46.00,92.70,1
64.00,92.07,1
68.00,90.55,1
69.00,88.62,1
87.00,86.65,1
60.00,84.79,1
46.00,82.66,1
79.00,80.23,1
59.00,77.89,1
38.00,75.49,1
45.00,72.65,1
73.00,69.75,1
36.00,67.12,1
85.00,64.81,1
47.00,63.00,1
43.00,61.37,1
49.00,59.61,1
39.00,57.79,1
44.00,55.91,1
76.00,54.31,1
82.00,53.60,1
157.00,54.58,1
41.00,57.15,1
62.00,59.70,1
70.00,61.60,1
153.00,63.95,1
94.00,67.49,1
90.00,71.53,1
127.00,75.54,1
55.00,79.40,1
105.00,82.53,1
71.00,84.95,1
110.00,86.94,1
154.00,89.25,1
219.00,93.32,1
97.00,99.02,1
80.00,104.14,1
79.00,107.37,1
127.00,109.27,1
70.00,110.44,1
44.00,110.24,1
44.00,108.06,1
104.00,104.78,1
135.00,102.03,1
68.00,100.22,1
55.00,98.23,1
42.00,95.28,1
243.00,93.05,1
120.00,93.65,1
78.00,95.66,1
286.00,98.67,1
44.00,103.45,1
37.00,107.06,1
37.00,107.52,1
109.00,106.12,1
58.00,104.14,1
38.00,101.35,1
204.00,98.67,1
80.00,97.72,1
280.00,99.10,1
35.00,102.48,1
108.00,105.45,1
89.00,107.02,1
65.00,107.56,1
46.00,106.60,1
133.00,104.73,1
67.00,102.99,1
105.00,101.33,1
47.00,99.39,1
54.00,96.73,1
100.00,93.61,1
38.00,90.55,1
56.00,87.16,1
105.00,83.80,1
102.00,81.52,1
85.00,80.35,1
118.00,80.03,1
68.00,80.37,1
38.00,80.38,1
72.00,79.49,1
70.00,78.28,1
115.00,77.48,1
42.00,77.13,1
68.00,76.53,1
95.00,75.80,1
57.00,75.34,1
60.00,74.72,1
47.00,73.63,1
50.00,72.05,1
54.00,70.12,1
68.00,68.20,1
125.00,67.08,1
76.00,67.29,1
44.00,67.87,1
64.00,67.95,1
92.00,67.95,1
102.00,68.59,1
61.00,69.76,1
79.00,70.85,1
77.00,71.78,1
48.00,72.44,1
124.00,73.00,1
215.00,75.27,1
86.00,79.81,1
58.00,84.31,1
60.00,87.09,1
53.00,88.23,1
111.00,88.47,1
141.00,89.17,1
89.00,90.74,1
61.00,92.08,1
67.00,92.34,1
54.00,91.54,1
75.00,89.98,1
36.00,87.79,1
40.00,84.75,1
106.00,81.48,1
77.00,79.03,1
38.00,77.01,1
72.00,74.79,1
35.00,72.42,1
94.00,70.18,1
127.00,69.05,1
52.00,69.22,1
127.00,70.02,1
99.00,71.67,1
127.00,74.31,1
39.00,77.10,1
70.00,78.94,1
122.00,80.22,1
37.00,81.43,1
62.00,81.79,1
86.00,81.40,1
46.00,80.73,1
67.00,79.57,1
57.00,78.02,1
40.00,76.08,1
105.00,74.09,1
45.00,72.56,1
169.00,72.01,1
54.00,72.83,1
138.00,74.48,1
127.00,77.06,1
90.00,80.47,1
84.00,83.62,1
38.00,85.70,1
127.00,86.81,1
78.00,87.84,1
41.00,88.39,1
43.00,87.55,1
73.00,85.66,1
86.00,83.66,1
56.00,81.87,1
34.00,79.71,1
85.00,77.15,1
109.00,75.25,1
118.00,74.81,1
38.00,75.17,1
54.00,75.00,1
72.00,74.20,1
90.00,73.51,1
157.00,73.96,1
161.00,76.51,1
140.00,81.06,1
38.00,85.82,1
149.00,89.60,1
51.00,92.71,1
60.00,94.57,1
85.00,94.96,1
103.00,94.87,1
63.00,94.58,1
69.00,93.70,1
73.00,92.19,1
66.00,90.32,1
41.00,87.93,1
63.00,84.96,1
117.00,82.24,1
86.00,80.62,1
92.00,79.87,1
91.00,79.66,1
81.00,79.79,1
82.00,80.03,1
99.00,80.41,1
106.00,81.23,1
43.00,82.09,1
63.00,82.13,1
196.00,82.47,1
80.00,84.43,1
82.00,86.76,1
134.00,88.79,1
156.00,91.58,1
176.00,95.84,1
43.00,100.47,1
74.00,103.43,1
41.00,104.14,1
130.00,103.59,1
54.00,102.68,1
47.00,100.93,1
186.00,99.02,1
135.00,98.88,1
82.00,99.98,1
126.00,101.02,1
87.00,101.95,1
43.00,102.11,1
77.00,100.92,1
47.00,98.70,1
70.00,95.72,1
43.00,92.19,1
59.00,88.24,1
69.00,84.21,1
258.00,82.14,1
77.00,83.30,1
57.00,85.31,1
90.00,86.32,1
36.00,86.48,1
38.00,85.38,1
44.00,83.01,1
108.00,80.38,1
62.00,78.40,1
116.00,77.18,1
47.00,76.53,1
37.00,75.53,1
70.00,73.84,1
37.00,71.89,1
47.00,69.59,1
121.00,67.63,1
61.00,66.80,1
127.00,67.04,1
38.00,67.92,1
42.00,68.37,1
40.00,67.78,1
123.00,67.11,1
52.00,67.18,1
46.00,67.27,1
106.00,67.19,1
42.00,67.38,1
125.00,67.90,1
62.00,68.99,1
82.00,70.28,1
61.00,71.31,1
76.00,72.05,1
101.00,72.82,1
101.00,74.14,1
105.00,76.08,1
80.00,78.27,1
99.00,80.36,1
54.00,82.04,1
116.00,83.26,1
160.00,85.14,1
229.00,89.26,1
69.00,95.16,1
79.00,100.19,1
45.00,102.93,1
72.00,103.57,1
36.00,102.48,1
112.00,100.38,1
38.00,97.93,1
36.00,94.67,1
58.00,90.44,1
74.00,86.10,1
133.00,82.75,1
116.00,81.25,1
60.00,80.96,1
182.00,81.51,1
67.00,83.29,1
48.00,84.89,1
66.00,85.20,1
87.00,84.82,1
39.00,84.03,1
184.00,83.54,1
73.00,84.38,1
93.00,85.73,1
44.00,86.42,1
52.00,86.02,1
64.00,84.62,1
112.00,83.17,1
38.00,82.02,1
109.00,80.88,1
44.00,79.82,1
76.00,78.64,1
58.00,77.23,1
53.00,75.63,1
75.00,73.89,1
45.00,72.17,1
58.00,70.32,1
39.00,68.24,1
92.00,66.28,1
132.00,65.54,1
42.00,66.12,1
140.00,67.32,1
88.00,69.39,1
173.00,72.72,1
98.00,77.25,1
83.00,81.88,1
99.00,85.70,1
56.00,88.55,1
153.00,90.79,1
166.00,93.86,1
58.00,97.56,1
73.00,100.08,1
69.00,100.95,1
40.00,100.34,1
73.00,98.37,1
82.00,95.84,1
132.00,93.80,1
39.00,92.33,1
49.00,90.30,1
62.00,87.42,1
58.00,84.24,1
74.00,81.12,1
37.00,78.08,1
65.00,74.94,1
43.00,71.81,1
53.00,68.74,1
105.00,66.23,1
82.00,65.00,1
56.00,64.60,1
71.00,64.35,1
92.00,64.44,1
76.00,65.11,1
43.00,65.84,1
114.00,66.50,1
169.00,68.43,1
72.00,71.97,1
210.00,76.64,1
131.00,82.82,1
93.00,89.46,1
61.00,94.65,1
138.00,98.39,1
64.00,101.29,1
52.00,102.75,1
69.00,102.42,1
105.00,101.21,1
44.00,99.61,1
34.00,96.98,1
62.00,93.19,1
40.00,88.86,1
38.00,84.10,1
56.00,79.13,1
83.00,74.67,1
70.00,71.21,1
47.00,68.46,1
80.00,66.13,1
162.00,65.24,1
145.00,66.95,1
83.00,70.47,1
125.00,74.42,1
104.00,78.58,1
42.00,82.23,1
125.00,84.88,1
112.00,87.42,1
123.00,90.36,1
111.00,93.50,1
40.00,95.97,1
83.00,96.94,1
76.00,96.81,1
81.00,96.11,1
125.00,95.41,1
87.00,95.18,1
55.00,94.78,1
69.00,93.53,1
41.00,91.43,1
39.00,88.36,1
54.00,84.54,1
68.00,80.62,1
106.00,77.42,1
139.00,75.89,1
108.00,76.30,1
61.00,77.53,1
100.00,78.62,1
60.00,79.51,1
80.00,80.03,1
48.00,79.99,1
134.00,79.88,1
144.00,80.95,1
90.00,83.34,1
105.00,85.95,1
85.00,88.27,1
113.00,90.32,1
188.00,93.02,1
82.00,96.72,1
111.00,100.16,1
41.00,102.32,1
128.00,103.23,1
63.00,103.49,1
123.00,103.37,1
48.00,102.81,1
177.00,102.27,1
159.00,103.12,1
73.00,105.06,1
52.00,106.01,1
54.00,105.11,1
70.00,102.84,1
169.00,100.71,1
66.00,99.70,1
103.00,98.97,1
43.00,97.75,1
73.00,95.75,1
178.00,94.10,1
66.00,93.83,1
102.00,93.93,1
244.00,95.15,1
74.00,98.44,1
87.00,101.64,1
177.00,104.23,1
86.00,107.10,1
87.00,109.34,1
80.00,110.22,1
62.00,109.79,1
98.00,108.33,1
136.00,106.89,1
91.00,106.07,1
37.00,104.88,1
78.00,102.50,1
94.00,99.67,1
57.00,96.89,1
58.00,93.76,1
67.00,90.26,1
82.00,86.88,1
93.00,84.12,1
38.00,81.76,1
53.00,79.11,1
181.00,77.16,1
61.00,77.09,1
53.00,77.43,1
58.00,76.98,1
132.00,76.58,1
167.00,77.81,1
92.00,80.80,1
81.00,83.97,1
67.00,86.25,1
124.00,87.94,1
38.00,89.22,1
43.00,89.25,1
54.00,87.78,1
79.00,85.66,1
62.00,83.48,1
56.00,81.20,1
62.00,78.73,1
62.00,76.25,1
70.00,73.96,1
53.00,71.88,1
58.00,69.86,1
136.00,68.54,1
58.00,68.47,1
135.00,69.37,1
51.00,70.89,1
61.00,72.16,1
75.00,72.79,1
160.00,73.93,1
39.00,75.93,1
90.00,77.66,1
37.00,78.51,1
78.00,78.57,1
66.00,78.14,1
38.00,77.29,1
92.00,76.02,1
119.00,75.36,1
107.00,75.97,1
74.00,77.30,1
87.00,78.57,1
47.00,79.38,1
83.00,79.56,1
65.00,79.36,1
102.00,79.18,1
92.00,79.42,1
113.00,80.28,1
107.00,81.78,1
57.00,83.40,1
42.00,84.04,1
163.00,84.27,1
138.00,85.85,1
85.00,88.55,1
154.00,91.50,1
49.00,94.38,1
53.00,95.96,1
40.00,95.60,1
51.00,93.69,1
97.00,91.10,1
109.00,89.05,1
54.00,87.61,1
149.00,86.64,1
51.00,86.37,1
158.00,86.69,1
45.00,87.49,1
114.00,88.19,1
118.00,89.04,1
146.00,90.86,1
44.00,92.99,1
131.00,94.55,1
56.00,95.60,1
56.00,95.70,1
45.00,94.37,1
61.00,91.95,1
50.00,88.85,1
87.00,85.61,1
120.00,83.16,1
139.00,82.41,1
142.00,83.59,1
127.00,86.26,1
66.00,89.27,1
80.00,91.40,1
45.00,92.23,1
45.00,91.57,1
101.00,89.99,1
59.00,88.34,1
44.00,86.33,1
54.00,83.62,1
108.00,80.94,1
36.00,78.76,1
106.00,76.87,1
186.00,76.47,1
147.00,78.82,1
40.00,82.31,1
180.00,85.61,1
95.00,89.37,1
127.00,93.40,1
111.00,97.18,1
64.00,100.25,1
55.00,101.67,1
180.00,102.31,1
40.00,103.18,1
42.00,102.90,1
52.00,100.74,1
46.00,97.35,1
93.00,93.49,1
101.00,90.22,1
62.00,87.71,1
58.00,85.23,1
39.00,82.33,1
110.00,79.43,1
127.00,77.80,1
107.00,77.88,1
58.00,78.67,1
44.00,78.88,1
128.00,78.69,1
139.00,79.58,1
56.00,81.44,1
127.00,83.30,1
52.00,84.94,1
54.00,85.74,1
44.00,85.18,1
111.00,84.04,1
134.00,83.70,1
118.00,84.79,1
62.00,86.39,1
180.00,88.24,1
55.00,90.68,1
40.00,92.27,1
52.00,91.97,1
76.00,90.53,1
51.00,88.54,1
190.00,87.14,1
170.00,88.17,1
62.00,90.95,1
89.00,93.23,1
61.00,94.36,1
143.00,95.03,1
40.00,95.59,1
178.00,96.17,1
151.00,97.97,1
112.00,101.00,1
159.00,104.37,1
119.00,108.02,1
68.00,111.06,1
146.00,113.01,1
120.00,114.72,1
190.00,116.99,1
124.00,120.01,1
50.00,122.37,1
76.00,122.59,1
38.00,120.69,1
54.00,116.95,1
63.00,111.97,1
69.00,106.53,1
46.00,100.90,1
48.00,95.01,1
85.00,89.26,1
64.00,84.28,1
56.00,79.92,1
46.00,75.80,1
65.00,71.92,1
80.00,68.72,1
82.00,66.56,1
40.00,65.06,1
110.00,64.02,1
40.00,63.61,1
70.00,63.33,1
74.00,63.13,1
74.00,63.31,1
53.00,63.63,1
105.00,64.12,1
73.00,65.17,1
49.00,66.29,1
35.00,66.65,1
98.00,66.51,1
96.00,66.92,1
108.00,68.31,1
39.00,70.02,1
53.00,70.98,1
48.00,70.94,1
53.00,70.23,1
59.00,69.12,1
127.00,68.46,1
173.00,69.73,1
40.00,72.64,1
53.00,74.97,1
78.00,76.11,1
52.00,76.60,1
45.00,76.32,1
59.00,75.24,1
39.00,73.59,1
67.00,71.59,1
49.00,69.53,1
102.00,67.88,1
140.00,67.63,1
36.00,68.67,1
251.00,71.00,1
42.00,75.20,1
56.00,79.14,1
105.00,81.64,1
112.00,83.97,1
96.00,86.48,1
46.00,88.42,1
102.00,89.36,1
130.00,90.26,1
93.00,91.73,1
42.00,92.77,1
98.00,92.76,1
59.00,92.14,1
116.00,91.36,1
82.00,90.83,1
218.00,91.56,1
35.00,93.68,1
125.00,95.60,1
40.00,96.57,1
106.00,96.68,1
55.00,96.10,1
136.00,95.39,1
88.00,95.13,1
40.00,94.69,1
139.00,93.76,1
114.00,93.53,1
90.00,94.05,1
41.00,94.09,1
75.00,93.04,1
60.00,91.24,1
46.00,88.84,1
84.00,86.02,1
61.00,83.31,1
95.00,80.98,1
151.00,79.86,1
203.00,81.33,1
78.00,85.01,1
53.00,88.41,1
73.00,90.20,1
59.00,90.69,1
50.00,90.05,1
65.00,88.44,1
147.00,86.99,1
41.00,86.33,1
172.00,86.28,1
53.00,87.02,1
54.00,87.44,1
61.00,86.71,1
50.00,85.17,1
70.00,83.07,1
108.00,81.20,1
140.00,80.63,1
38.00,81.06,1
129.00,81.56,1
80.00,82.35,1
106.00,83.50,1
228.00,85.91,1
106.00,90.43,1
156.00,95.81,1
153.00,101.46,1
92.00,106.98,1
70.00,111.00,1
56.00,112.74,1
83.00,112.52,1
48.00,110.86,1
54.00,107.84,1
158.00,104.58,1
91.00,102.45,1
115.00,101.22,1
57.00,100.06,1
40.00,98.09,1
162.00,95.81,1
100.00,94.74,1
92.00,94.55,1
64.00,94.16,1
119.00,93.54,1
44.00,92.84,1
82.00,91.63,1
84.00,90.08,1
118.00,88.97,1
136.00,88.97,1
151.00,90.48,1
44.00,92.63,1
65.00,93.71,1
78.00,93.51,1
43.00,92.44,1
88.00,90.66,1
61.00,88.61,1
57.00,86.33,1
81.00,83.86,1
192.00,82.62,1
62.00,83.28,1
40.00,83.98,1
44.00,83.24,1
104.00,81.84,1
55.00,80.61,1
59.00,79.26,1
132.00,78.14,1
45.00,77.75,1
150.00,77.95,1
129.00,79.47,1
40.00,81.69,1
58.00,82.89,1
45.00,82.71,1
102.00,81.90,1
43.00,80.98,1
79.00,79.81,1
96.00,78.74,1
155.00,78.85,1
82.00,80.39,1
71.00,82.13,1
69.00,83.16,1
75.00,83.53,1
99.00,83.68,1
77.00,83.92,1
66.00,83.97,1
58.00,83.43,1
91.00,82.52,1
55.00,81.53,1
75.00,80.36,1
80.00,79.18,1
62.00,78.11,1
46.00,76.78,1
83.00,75.20,1
56.00,73.72,1
35.00,72.06,1
52.00,69.89,1
43.00,67.44,1
35.00,64.77,1
48.00,61.93,1
177.00,60.28,1
36.00,60.68,1
81.00,61.72,1
76.00,62.72,1
50.00,63.76,1
68.00,64.45,1
61.00,64.89,1
99.00,65.46,1
63.00,66.40,1
49.00,67.18,1
59.00,67.38,1
66.00,67.22,1
66.00,67.00,1
90.00,66.99,1
52.00,67.24,1
55.00,67.27,1
59.00,66.89,1
39.00,66.14,1
55.00,64.96,1
53.00,63.59,1
78.00,62.42,1
40.00,61.53,1
45.00,60.50,1
82.00,59.46,1
47.00,58.83,1
50.00,58.27,1
59.00,57.62,1
56.00,57.07,1
36.00,56.48,1
55.00,55.67,1
73.00,55.03,1
46.00,54.76,1
66.00,54.66,1
103.00,55.10,1
118.00,56.87,1
80.00,59.80,1
120.00,63.35,1
48.00,67.00,1
82.00,70.02,1
59.00,72.24,1
92.00,73.94,1
75.00,75.43,1
75.00,76.68,1
71.00,77.54,1
68.00,77.98,1
43.00,77.81,1
65.00,76.91,1
34.00,75.38,1
177.00,74.30,1
83.00,74.89,1
39.00,76.04,1
42.00,76.07,1
61.00,75.10,1
41.00,73.55,1
81.00,71.80,1
94.00,70.55,1
131.00,70.58,1
48.00,71.61,1
41.00,72.24,1
53.00,71.82,1
74.00,70.96,1
40.00,69.95,1
214.00,69.92,1
57.00,71.92,1
93.00,74.55,1
134.00,77.21,1
42.00,80.01,1
252.00,83.38,1
114.00,88.66,1
188.00,95.28,1
128.00,102.28,1
102.00,108.73,1
177.00,114.24,1
44.00,118.79,1
138.00,121.64,1
50.00,122.83,1
46.00,122.02,1
70.00,119.12,1
55.00,114.96,1
51.00,109.90,1
298.00,106.19,1
56.00,105.71,1
207.00,106.94,1
106.00,109.11,1
49.00,111.03,1
68.00,111.04,1
117.00,109.88,1
83.00,108.54,1
85.00,106.98,1
494.00,108.46,1
68.00,115.43,1
73.00,122.74,1
330.00,128.72,1
76.00,135.71,1
160.00,141.84,1
42.00,145.43,1
130.00,146.44,1
103.00,145.69,1
64.00,143.59,1
135.00,140.26,1
346.00,138.75,1
135.00,140.93,1
43.00,143.38,1
114.00,143.24,1
105.00,141.49,1
131.00,139.24,1
68.00,136.51,1
129.00,133.19,1
55.00,129.41,1
406.00,127.60,1
270.00,131.43,1
103.00,138.69,1
163.00,144.90,1
94.00,149.14,1
52.00,150.76,1
65.00,149.15,1
151.00,145.73,1
59.00,141.83,1
40.00,136.73,1
131.00,130.53,1
251.00,126.08,1
151.00,125.02,1
178.00,126.17,1
50.00,127.47,1
69.00,127.11,1
55.00,124.63,1
240.00,122.07,1
80.00,121.18,1
144.00,120.99,1
68.00,120.46,1
140.00,119.53,1
61.00,118.26,1
189.00,117.12,1
144.00,117.20,1
110.00,118.24,1
63.00,118.65,1
162.00,118.32,1
262.00,119.53,1
268.00,124.42,1
92.00,131.37,1
51.00,136.46,1
57.00,137.87,1
232.00,137.66,1
82.00,137.94,1
562.00,141.53,1
232.00,151.47,1
158.00,163.82,1
366.00,175.35,1
257.00,187.82,1
223.00,200.21,1
63.00,209.36,1
388.00,215.45,1
212.00,221.64,1
177.00,227.20,1
125.00,229.56,1
233.00,229.21,1
138.00,227.39,1
38.00,222.94,1
75.00,214.61,1
251.00,204.82,1
124.00,196.40,1
205.00,189.33,1
52.00,182.54,1
47.00,174.27,1
89.00,164.16,1
62.00,153.41,1
236.00,143.87,1
79.00,136.95,1
98.00,131.23,1
255.00,126.92,1
77.00,125.16,1
137.00,124.20,1
59.00,122.75,1
53.00,120.13,1
71.00,116.10,1
213.00,112.58,1
109.00,111.21,1
167.00,111.45,1
96.00,112.41,1
177.00,113.86,1
108.00,115.80,1
190.00,118.28,1
108.00,121.19,1
98.00,123.56,1
147.00,124.99,1
132.00,126.28,1
139.00,127.63,1
83.00,128.52,1
135.00,128.57,1
46.00,127.64,1
74.00,125.19,1
112.00,121.71,1
110.00,118.42,1
127.00,115.79,1
278.00,115.26,1
76.00,117.36,1
132.00,119.71,1
115.00,121.31,1
63.00,122.01,1
214.00,122.27,1
138.00,123.64,1
370.00,127.67,1
243.00,135.83,1
149.00,145.86,1
69.00,153.70,1
57.00,157.40,1
264.00,158.68,1
48.00,159.64,1
158.00,159.37,1
194.00,158.50,1
63.00,157.63,1
56.00,154.84,1
169.00,150.44,1
55.00,145.82,1
127.00,140.84,1
103.00,135.80,1
74.00,130.85,1
86.00,125.54,1
171.00,120.81,1
222.00,118.58,1
45.00,118.42,1
55.00,117.42,1
70.00,114.63,1
45.00,110.71,1
113.00,106.31,1
207.00,103.40,1
72.00,102.73,1
97.00,102.53,1
63.00,101.70,1
341.00,102.39,1
65.00,106.21,1
180.00,110.99,1
53.00,114.91,1
72.00,117.05,1
43.00,116.79,1
46.00,114.40,1
111.00,110.83,1
73.00,107.27,1
210.00,104.88,1
48.00,104.07,1
52.00,102.97,1
150.00,101.22,1
232.00,101.37,1
39.00,103.53,1
202.00,105.98,1
141.00,109.18,1
125.00,113.04,1
75.00,116.08,1
38.00,117.13,1
174.00,116.74,1
314.00,118.39,1
166.00,123.77,1
232.00,131.03,1
97.00,138.24,1
234.00,144.59,1
53.00,149.75,1
244.00,153.54,1
74.00,156.42,1
120.00,157.68,1
209.00,157.74,1
72.00,157.61,1
85.00,155.92,1
247.00,153.53,1
41.00,151.76,1
118.00,149.10,1
124.00,145.46,1
96.00,141.69,1
75.00,137.37,1
85.00,132.26,1
290.00,128.44,1
164.00,128.17,1
57.00,129.31,1
56.00,128.64,1
143.00,126.45,1
364.00,126.44,1
78.00,130.09,1
88.00,133.59,1
455.00,137.70,1
189.00,146.09,1
189.00,156.14,1
190.00,164.87,1
336.00,173.54,1
99.00,182.34,1
73.00,188.01,1
50.00,188.51,1
132.00,185.13,1
156.00,180.32,1
188.00,175.92,1
304.00,173.68,1
127.00,173.90,1
65.00,173.46,1
355.00,172.44,1
82.00,173.07,1
41.00,172.46,1
156.00,168.93,1
89.00,164.30,1
108.00,159.01,1
116.00,153.22,1
127.00,147.61,1
111.00,142.44,1
198.00,138.32,1
167.00,136.19,1
78.00,135.14,1
206.00,134.24,1
200.00,134.83,1
158.00,137.14,1
216.00,140.42,1
283.00,145.50,1
58.00,151.52,1
77.00,155.00,1
229.00,156.16,1
123.00,157.31,1
244.00,158.94,1
351.00,162.88,1
321.00,171.08,1
128.00,180.95,1
198.00,188.86,1
199.00,194.59,1
127.00,198.49,1
98.00,199.43,1
56.00,196.61,1
225.00,191.56,1
146.00,186.78,1
56.00,181.69,1
144.00,175.14,1
202.00,168.88,1
197.00,164.72,1
154.00,162.32,1
147.00,160.51,1
207.00,159.26,1
37.00,157.98,1
211.00,155.85,1
325.00,155.57,1
61.00,157.85,1
105.00,158.93,1
194.00,158.34,1
49.00,157.13,1
167.00,154.80,1
115.00,152.03,1
239.00,150.16,1
199.00,150.32,1
281.00,153.07,1
190.00,157.98,1
275.00,164.23,1
41.00,170.01,1
44.00,172.04,1
90.00,169.68,1
127.00,165.20,1
108.00,160.05,1
40.00,154.01,1
66.00,146.40,1
267.00,139.41,1
259.00,136.61,1
128.00,137.55,1
58.00,138.45,1
150.00,137.80,1
65.00,136.25,1
50.00,133.28,1
117.00,128.93,1
60.00,124.21,1
74.00,119.08,1
285.00,115.34,1
52.00,114.43,1
144.00,114.37,1
52.00,113.78,1
96.00,112.41,1
58.00,110.14,1
281.00,108.85,1
94.00,110.18,1
95.00,112.22,1
191.00,113.98,1
163.00,116.84,1
39.00,119.76,1
59.00,120.49,1
59.00,118.81,1
189.00,116.63,1
59.00,115.22,1
217.00,114.68,1
74.00,115.17,1
40.00,115.08,1
60.00,112.94,1
72.00,109.50,1
314.00,107.56,1
114.00,109.31,1
102.00,112.36,1
105.00,114.45,1
71.00,115.42,1
83.00,115.06,1
169.00,114.34,1
73.00,114.10,1
142.00,113.93,1
44.00,113.34,1
313.00,113.64,1
87.00,116.38,1
233.00,120.56,1
102.00,125.17,1
120.00,129.13,1
41.00,131.03,1
75.00,130.43,1
165.00,128.59,1
60.00,126.77,1
88.00,124.28,1
67.00,120.76,1
46.00,116.30,1
36.00,110.66,1
137.00,104.82,1
111.00,100.40,1
137.00,97.83,1
240.00,97.83,1
36.00,100.00,1
188.00,102.47,1
55.00,104.83,1
205.00,107.31,1
170.00,110.91,1
107.00,115.39,1
165.00,119.51,1
69.00,122.88,1
136.00,125.00,1
88.00,126.01,1
70.00,125.79,1
234.00,125.27,1
178.00,126.69,1
46.00,128.84,1
87.00,129.16,1
66.00,127.45,1
194.00,125.35,1
36.00,123.66,1
80.00,121.13,1
73.00,117.43,1
63.00,113.10,1
238.00,109.70,1
49.00,108.33,1
119.00,107.47,1
51.00,106.05,1
104.00,104.14,1
303.00,103.89,1
230.00,108.12,1
87.00,114.80,1
173.00,120.84,1
73.00,125.62,1
57.00,128.20,1
121.00,128.46,1
68.00,127.44,1
153.00,125.84,1
129.00,124.62,1
56.00,123.43,1
146.00,121.64,1
105.00,120.00,1
183.00,119.24,1
321.00,121.30,1
128.00,126.73,1
196.00,133.06,1
136.00,138.90,1
81.00,143.27,1
34.00,144.57,1
60.00,142.50,1
85.00,138.17,1
83.00,132.88,1
41.00,126.88,1
108.00,120.35,1
71.00,114.12,1
189.00,109.25,1
133.00,106.78,1
62.00,105.63,1
244.00,105.42,1
60.00,106.84,1
258.00,109.54,1
110.00,113.66,1
82.00,117.65,1
245.00,121.09,1
107.00,125.32,1
110.00,129.09,1
108.00,131.27,1
127.00,132.33,1
87.00,132.47,1
108.00,131.57,1
119.00,130.02,1
123.00,128.41,1
84.00,126.66,1
88.00,124.27,1
110.00,121.40,1
116.00,118.71,1
64.00,116.09,1
152.00,113.55,1
110.00,111.81,1
139.00,111.01,1
85.00,110.65,1
149.00,110.50,1
274.00,112.17,1
131.00,116.57,1
113.00,121.43,1
183.00,125.56,1
128.00,129.57,1
53.00,132.40,1
61.00,132.60,1
93.00,130.56,1
106.00,127.61,1
70.00,124.24,1
88.00,120.33,1
89.00,116.14,1
69.00,111.88,1
248.00,108.87,1
103.00,108.51,1
59.00,108.90,1
57.00,107.88,1
251.00,107.05,1
149.00,108.73,1
181.00,112.46,1
58.00,116.29,1
189.00,119.37,1
85.00,122.07,1
108.00,123.94,1
198.00,125.39,1
64.00,127.04,1
63.00,127.30,1
142.00,126.03,1
287.00,126.14,1
79.00,128.62,1
127.00,130.99,1
127.00,132.26,1
204.00,133.68,1
74.00,135.39,1
224.00,136.97,1
91.00,138.71,1
65.00,139.33,1
301.00,139.51,1
67.00,141.11,1
125.00,142.28,1
102.00,141.92,1
99.00,140.48,1
230.00,139.12,1
266.00,140.33,1
74.00,143.54,1
46.00,145.02,1
170.00,144.12,1
175.00,143.31,1
45.00,142.62,1
182.00,141.07,1
49.00,139.02,1
105.00,136.01,1
38.00,131.70,1
46.00,125.96,1
36.00,118.78,1
127.00,111.41,1
56.00,104.98,1
141.00,99.77,1
60.00,95.80,1
159.00,93.10,1
54.00,91.55,1
66.00,90.09,1
118.00,88.52,1
83.00,87.58,1
224.00,88.18,1
119.00,91.12,1
59.00,94.65,1
173.00,97.59,1
81.00,100.62,1
52.00,102.79,1
245.00,104.60,1
91.00,107.75,1
83.00,110.80,1
108.00,112.46,1
122.00,113.48,1
245.00,115.44,1
169.00,119.57,1
61.00,124.09,1
121.00,126.83,1
53.00,127.67,1
288.00,128.33,1
146.00,131.03,1
119.00,134.52,1
44.00,136.24,1
38.00,135.06,1
128.00,131.74,1
73.00,127.88,1
183.00,124.49,1
165.00,122.80,1
48.00,122.10,1
103.00,120.55,1
71.00,118.07,1
170.00,115.72,1
256.00,115.64,1
92.00,118.17,1
138.00,120.97,1
110.00,123.04,1
97.00,124.31,1
196.00,125.30,1
196.00,127.58,1
238.00,131.94,1
53.00,136.88,1
64.00,139.47,1
95.00,139.09,1
76.00,136.92,1
303.00,135.30,1
65.00,135.79,1
122.00,136.26,1
122.00,135.67,1
60.00,134.25,1
43.00,131.07,1
84.00,126.22,1
65.00,120.61,1
103.00,114.97,1
164.00,110.49,1
115.00,107.96,1
70.00,106.31,1
127.00,104.70,1
122.00,103.70,1
48.00,102.98,1
90.00,101.57,1
92.00,99.78,1
339.00,100.19,1
203.00,105.22,1
167.00,113.12,1
75.00,120.43,1
85.00,125.34,1
58.00,127.43,1
38.00,126.76,1
42.00,123.49,1
102.00,118.77,1
71.00,113.87,1
119.00,109.37,1
70.00,105.47,1
74.00,101.77,1
142.00,98.57,1
42.00,96.19,1
296.00,95.53,1
106.00,98.00,1
102.00,101.68,1
54.00,104.12,1
116.00,105.22,1
150.00,106.18,1
97.00,107.64,1
224.00,109.89,1
142.00,113.63,1
104.00,117.78,1
135.00,121.04,1
136.00,123.73,1
250.00,127.11,1
59.00,131.24,1
250.00,135.15,1
154.00,139.55,1
184.00,144.41,1
144.00,148.84,1
55.00,151.65,1
104.00,151.73,1
58.00,149.38,1
142.00,145.63,1
118.00,141.77,1
249.00,139.34,1
96.00,138.78,1
43.00,137.77,1
49.00,134.33,1
166.00,129.80,1
85.00,125.92,1
55.00,122.04,1
220.00,118.48,1
68.00,116.52,1
37.00,114.42,1
117.00,111.17,1
93.00,108.03,1
69.00,105.15,1
87.00,102.10,1
97.00,99.23,1
84.00,96.78,1
47.00,94.29,1
62.00,91.26,1
60.00,87.85,1
64.00,84.38,1
69.00,81.08,1
37.00,77.86,1
54.00,74.47,1
106.00,71.50,1
37.00,69.39,1
69.00,67.55,1
120.00,66.35,1
96.00,66.60,1
38.00,67.48,1
45.00,67.70,1
64.00,67.22,1
70.00,66.64,1
130.00,66.76,1
70.00,67.96,1
48.00,69.25,1
81.00,69.98,1
171.00,71.37,1
133.00,74.67,1
47.00,78.72,1
79.00,81.73,1
68.00,83.57,1
110.00,84.89,1
53.00,85.90,1
84.00,86.31,1
85.00,86.29,1
62.00,86.03,1
66.00,85.25,1
91.00,84.19,1
71.00,83.24,1
67.00,82.25,1
190.00,82.04,1
45.00,83.25,1
95.00,84.53,1
49.00,85.05,1
164.00,85.59,1
235.00,88.23,1
42.00,92.89,1
89.00,96.73,1
83.00,98.95,1
95.00,100.27,1
134.00,101.32,1
133.00,102.87,1
88.00,104.68,1
157.00,106.45,1
64.00,108.12,1
107.00,109.06,1
190.00,110.03,1
183.00,112.67,1
45.00,115.94,1
130.00,117.92,1
164.00,119.40,1
96.00,121.16,1
62.00,121.95,1
41.00,120.68,1
82.00,117.55,1
85.00,113.68,1
70.00,109.64,1
69.00,105.37,1
269.00,102.58,1
179.00,103.57,1
84.00,106.77,1
77.00,109.16,1
71.00,109.92,1
38.00,108.98,1
217.00,107.68,1
35.00,107.31,1
46.00,106.22,1
122.00,103.91,1
37.00,101.42,1
64.00,98.32,1
113.00,95.00,1
66.00,92.28,1
92.00,89.94,1
117.00,88.24,1
78.00,87.37,1
92.00,86.84,1
132.00,86.83,1
39.00,87.22,1
63.00,86.88,1
69.00,85.67,1
147.00,84.81,1
64.00,84.87,1
82.00,85.07,1
48.00,84.69,1
48.00,83.45,1
92.00,81.70,1
47.00,79.97,1
113.00,78.49,1
178.00,78.51,1
129.00,80.88,1
56.00,84.08,1
88.00,86.44,1
88.00,88.02,1
57.00,88.97,1
136.00,89.54,1
202.00,91.40,1
55.00,94.72,1
79.00,97.34,1
55.00,98.33,1
97.00,98.20,1
142.00,98.08,1
167.00,99.29,1
91.00,101.63,1
51.00,103.36,1
174.00,104.27,1
60.00,105.32,1
58.00,105.54,1
130.00,104.74,1
38.00,103.61,1
90.00,101.77,1
96.00,99.59,1
55.00,97.43,1
161.00,95.60,1
64.00,94.70,1
143.00,94.46,1
197.00,95.66,1
164.00,99.21,1
56.00,103.45,1
127.00,106.58,1
148.00,109.22,1
62.00,111.62,1
133.00,113.11,1
64.00,113.73,1
43.00,112.94,1
58.00,110.32,1
48.00,106.38,1
57.00,101.60,1
145.00,97.14,1
66.00,93.96,1
80.00,91.39,1
91.00,89.03,1
100.00,87.29,1
47.00,85.87,1
38.00,83.87,1
58.00,81.06,1
49.00,77.93,1
84.00,74.95,1
134.00,73.10,1
41.00,72.52,1
92.00,72.24,1
41.00,71.83,1
61.00,71.08,1
148.00,70.75,1
95.00,71.90,1
58.00,73.69,1
208.00,76.09,1
201.00,81.01,1
200.00,88.78,1
198.00,98.42,1
90.00,108.17,1
194.00,116.73,1
44.00,123.68,1
58.00,127.67,1
102.00,128.58,1
153.00,128.46,1
82.00,128.16,1
128.00,127.36,1
127.00,126.39,1
73.00,125.22,1
103.00,123.29,1
312.00,122.64,1
160.00,125.47,1
66.00,129.26,1
139.00,131.42,1
187.00,133.11,1
37.00,134.54,1
40.00,133.64,1
41.00,129.84,1
92.00,124.43,1
139.00,119.22,1
55.00,114.83,1
152.00,111.01,1
41.00,107.75,1
112.00,104.56,1
73.00,101.47,1
80.00,98.56,1
104.00,95.87,1
39.00,93.36,1
94.00,90.65,1
51.00,87.88,1
76.00,85.11,1
269.00,84.11,1
54.00,86.08,1
95.00,88.65,1
101.00,90.53,1
150.00,92.65,1
113.00,95.46,1
197.00,99.19,1
68.00,103.49,1
205.00,107.78,1
185.00,112.97,1
58.00,118.42,1
135.00,122.24,1
148.00,125.03,1
153.00,127.84,1
60.00,130.00,1
160.00,130.91,1
105.00,131.28,1
218.00,132.09,1
161.00,134.15,1
302.00,138.27,1
92.00,143.92,1
140.00,148.63,1
134.00,151.46,1
124.00,153.00,1
174.00,153.70,1
92.00,153.80,1
123.00,152.77,1
37.00,150.00,1
41.00,144.93,1
70.00,137.84,1
214.00,131.15,1
253.00,128.01,1
48.00,127.75,1
177.00,127.67,1
167.00,128.10,1
86.00,129.13,1
41.00,128.78,1
67.00,126.18,1
245.00,123.50,1
133.00,123.09,1
235.00,124.89,1
36.00,127.42,1
150.00,128.90,1
213.00,130.30,1
226.00,133.67,1
54.00,137.76,1
106.00,139.95,1
35.00,139.47,1
128.00,137.00,1
172.00,134.42,1
90.00,132.66,1
41.00,130.19,1
39.00,125.75,1
67.00,119.73,1
101.00,113.47,1
53.00,107.62,1
114.00,102.26,1
207.00,98.84,1
99.00,98.17,1
170.00,99.19,1
92.00,101.08,1
71.00,102.69,1
100.00,103.27,1
40.00,102.86,1
145.00,101.83,1
76.00,101.04,1
64.00,100.08,1
61.00,98.22,1
46.00,95.47,1
170.00,92.89,1
55.00,91.50,1
166.00,91.11,1
109.00,91.91,1
70.00,93.24,1
201.00,94.89,1
124.00,97.96,1
75.00,101.38,1
244.00,104.91,1
140.00,109.93,1
112.00,115.37,1
88.00,119.43,1
50.00,121.35,1
48.00,120.73,1
102.00,118.31,1
144.00,115.83,1
116.00,114.31,1
113.00,113.42,1
56.00,112.28,1
183.00,111.08,1
78.00,110.62,1
42.00,109.77,1
62.00,107.31,1
216.00,105.06,1
120.00,104.95,1
36.00,105.48,1
98.00,104.79,1
92.00,103.48,1
109.00,102.29,1
169.00,101.96,1
94.00,102.81,1
48.00,103.41,1
50.00,102.42,1
321.00,102.15,1
73.00,104.91,1
45.00,107.77,1
87.00,108.45,1
42.00,107.52,1
62.00,105.17,1
118.00,102.24,1
47.00,99.49,1
100.00,96.69,1
76.00,94.02,1
226.00,92.85,1
44.00,93.64,1
116.00,94.70,1
86.00,95.37,1
134.00,96.21,1
56.00,97.06,1
156.00,97.82,1
143.00,99.39,1
142.00,102.13,1
114.00,105.31,1
125.00,108.34,1
121.00,111.06,1
55.00,112.95,1
41.00,112.87,1
116.00,111.17,1
67.00,109.01,1
98.00,106.63,1
66.00,104.01,1
146.00,101.69,1
108.00,100.42,1
127.00,100.18,1
67.00,100.24,1
135.00,100.24,1
61.00,100.21,1
44.00,99.37,1
178.00,98.15,1
70.00,97.87,1
44.00,97.42,1
102.00,95.99,1
71.00,94.37,1
171.00,93.44,1
131.00,94.15,1
118.00,96.13,1
291.00,99.90,1
188.00,106.84,1
86.00,114.81,1
49.00,120.43,1
111.00,123.16,1
45.00,123.78,1
215.00,123.58,1
183.00,124.79,1
76.00,127.02,1
90.00,128.01,1
74.00,127.26,1
77.00,125.08,1
66.00,121.71,1
97.00,117.65,1
62.00,113.33,1
43.00,108.48,1
65.00,102.95,1
39.00,97.10,1
260.00,92.77,1
56.00,91.53,1
104.00,91.50,1
128.00,91.69,1
92.00,92.55,1
195.00,94.34,1
154.00,97.84,1
36.00,101.72,1
118.00,104.15,1
130.00,105.87,1
203.00,108.49,1
57.00,111.79,1
354.00,116.15,1
38.00,122.27,1
113.00,127.36,1
191.00,130.78,1
108.00,134.04,1
81.00,136.12,1
67.00,135.96,1
123.00,134.13,1
89.00,131.63,1
273.00,130.13,1
39.00,130.27,1
103.00,129.82,1
146.00,128.40,1
78.00,126.98,1
66.00,124.74,1
55.00,121.09,1
212.00,117.52,1
40.00,115.21,1
135.00,113.18,1
72.00,111.05,1
158.00,109.37,1
85.00,108.40,1
178.00,108.26,1
97.00,109.03,1
91.00,109.83,1
99.00,109.94,1
109.00,109.67,1
111.00,109.38,1
44.00,108.64,1
84.00,106.82,1
113.00,104.59,1
37.00,102.30,1
186.00,100.26,1
112.00,99.70,1
94.00,100.16,1
197.00,101.31,1
227.00,104.73,1
192.00,110.85,1
84.00,117.59,1
214.00,123.56,1
308.00,130.80,1
58.00,139.35,1
100.00,145.56,1
127.00,148.63,1
70.00,149.55,1
53.00,147.94,1
148.00,144.50,1
195.00,141.60,1
323.00,141.82,1
120.00,145.27,1
77.00,148.38,1
54.00,148.53,1
61.00,145.76,1
84.00,140.95,1
250.00,136.59,1
79.00,134.24,1
165.00,132.75,1
93.00,131.37,1
193.00,130.48,1
82.00,130.13,1
130.00,129.59,1
247.00,129.75,1
70.00,131.32,1
234.00,133.31,1
176.00,136.31,1
166.00,140.29,1
96.00,143.67,1
72.00,145.04,1
38.00,143.56,1
275.00,141.19,1
206.00,141.30,1
78.00,143.04,1
183.00,144.14,1
187.00,145.44,1
264.00,148.42,1
80.00,152.37,1
60.00,154.31,1
95.00,153.11,1
38.00,149.52,1
85.00,143.92,1
266.00,138.83,1
64.00,136.00,1
344.00,135.44,1
74.00,137.41,1
36.00,138.72,1
88.00,137.05,1
189.00,134.55,1
194.00,133.66,1
162.00,134.67,1
136.00,136.39,1
155.00,138.06,1
61.00,138.95,1
34.00,137.58,1
138.00,134.19,1
84.00,130.43,1
172.00,127.22,1
143.00,125.29,1
57.00,123.94,1
115.00,121.88,1
108.00,119.55,1
42.00,116.91,1
236.00,114.58,1
255.00,115.38,1
126.00,119.38,1
118.00,123.65,1
345.00,128.65,1
127.00,135.96,1
179.00,143.45,1
139.00,149.55,1
52.00,153.45,1
122.00,154.32,1
40.00,152.63,1
128.00,149.01,1
152.00,145.05,1
55.00,141.25,1
150.00,137.10,1
48.00,132.74,1
122.00,128.08,1
110.00,123.62,1
42.00,119.31,1
105.00,114.55,1
238.00,111.19,1
43.00,110.14,1
206.00,110.08,1
438.00,113.78,1
55.00,122.23,1
82.00,129.81,1
95.00,133.85,1
83.00,135.43,1
36.00,134.59,1
84.00,131.44,1
147.00,127.59,1
58.00,124.05,1
616.00,124.52,1
403.00,134.92,1
140.00,151.23,1
168.00,165.66,1
260.00,177.23,1
140.00,187.01,1
164.00,194.06,1
190.00,198.41,1
149.00,200.89,1
151.00,201.41,1
134.00,199.95,1
139.00,196.83,1
126.00,192.38,1
127.00,186.88,1
58.00,180.13,1
88.00,171.77,1
64.00,162.15,1
45.00,151.62,1
140.00,141.03,1
70.00,131.58,1
100.00,123.19,1
91.00,115.73,1
58.00,109.04,1
66.00,102.60,1
49.00,96.29,1
94.00,90.44,1
87.00,85.68,1
82.00,82.12,1
146.00,80.00,1
43.00,79.19,1
57.00,78.35,1
76.00,77.03,1
65.00,75.74,1
56.00,74.43,1
68.00,72.99,1
51.00,71.49,1
38.00,69.70,1
118.00,68.07,1
69.00,67.42,1
45.00,67.18,1
138.00,67.24,1
122.00,68.73,1
81.00,71.43,1
57.00,73.94,1
132.00,76.10,1
73.00,78.49,1
110.00,80.91,1
63.00,83.02,1
65.00,84.36,1
56.00,84.64,1
59.00,84.00,1
123.00,83.19,1
38.00,82.65,1
61.00,81.66,1
70.00,80.11,1
38.00,78.25,1
58.00,75.94,1
84.00,73.64,1
112.00,72.25,1
87.00,72.07,1
101.00,72.76,1
39.00,73.59,1
122.00,74.28,1
154.00,75.97,1
103.00,79.16,1
41.00,82.29,1
124.00,84.48,1
107.00,86.63,1
67.00,88.75,1
50.00,89.82,1
61.00,89.55,1
129.00,88.87,1
89.00,88.79,1
111.00,89.25,1
75.00,89.85,1
67.00,90.03,1
44.00,89.28,1
48.00,87.43,1
46.00,84.66,1
50.00,81.31,1
66.00,77.82,1
84.00,74.80,1
157.00,73.28,1
55.00,73.46,1
79.00,74.04,1
56.00,74.24,1
64.00,74.05,1
63.00,73.49,1
54.00,72.65,1
82.00,71.70,1
60.00,70.90,1
89.00,70.36,1
67.00,70.14,1
96.00,70.29,1
260.00,72.38,1
52.00,77.10,1
62.00,81.66,1
58.00,84.36,1
108.00,85.98,1
43.00,86.99,1
102.00,87.33,1
69.00,87.31,1
59.00,86.88,1
67.00,85.78,1
93.00,84.46,1
55.00,83.21,1
42.00,81.53,1
42.00,79.04,1
58.00,76.06,1
65.00,73.12,1
44.00,70.38,1
77.00,67.88,1
55.00,65.83,1
51.00,64.05,1
71.00,62.48,1
70.00,61.39,1
82.00,60.96,1
45.00,60.93,1
77.00,60.96,1
51.00,61.02,1
52.00,60.97,1
67.00,60.74,1
41.00,60.44,1
71.00,60.02,1
62.00,59.75,1
73.00,59.79,1
42.00,59.91,1
