39.00,39.97,1
41.00,40.06,1
40.00,40.14,1
40.00,40.20,1
35.00,40.20,1
42.00,40.12,1
43.00,40.08,1
41.00,40.12,1
36.00,40.15,1
40.00,40.11,1
39.00,40.04,1
41.00,39.97,1
39.00,39.93,1
41.00,39.89,1
40.00,39.88,1
41.00,39.89,1
40.00,39.91,1
40.00,39.95,1
40.00,39.97,1
39.00,39.99,1
44.00,40.01,1
43.00,40.12,1
40.00,40.27,1
38.00,40.39,1
40.00,40.44,1
40.00,40.44,1
40.00,40.43,1
41.00,40.41,1
40.00,40.40,1
40.00,40.39,1
39.00,40.36,1
40.00,40.31,1
38.00,40.23,1
39.00,40.13,1
40.00,40.01,1
42.00,39.93,1
41.00,39.91,1
40.00,39.93,1
39.00,39.95,1
39.00,39.94,1
41.00,39.92,1
38.00,39.90,1
40.00,39.86,1
40.00,39.82,1
39.00,39.79,1
40.00,39.75,1
40.00,39.73,1
40.00,39.71,1
40.00,39.72,1
40.00,39.73,1
38.00,39.73,1
41.00,39.71,1
40.00,39.71,1
36.00,39.69,1
43.00,39.65,1
39.00,39.63,1
40.00,39.64,1
41.00,39.66,1
42.00,39.72,1
41.00,39.83,1
39.00,39.94,1
45.00,40.05,1
38.00,40.20,1
42.00,40.33,1
40.00,40.43,1
42.00,40.53,1
36.00,40.59,1
54.00,40.68,1
39.00,40.91,1
43.00,41.19,1
36.00,41.37,1
44.00,41.45,1
38.00,41.48,1
39.00,41.44,1
40.00,41.34,1
39.00,41.19,1
35.00,40.99,1
43.00,40.73,1
41.00,40.53,1
37.00,40.37,1
42.00,40.22,1
36.00,40.07,1
43.00,39.93,1
39.00,39.83,1
45.00,39.81,1
50.00,39.97,1
46.00,40.34,1
66.00,41.01,1
43.00,42.00,1
39.00,42.94,1
55.00,43.69,1
36.00,44.34,1
81.00,45.09,1
39.00,46.13,1
55.00,47.17,1
52.00,48.06,1
50.00,48.87,1
38.00,49.44,1
141.00,50.46,1
35.00,52.50,1
50.00,54.47,1
38.00,55.59,1
58.00,56.12,1
36.00,56.24,1
49.00,55.94,1
54.00,55.42,1
54.00,54.94,1
44.00,54.46,1
68.00,54.03,1
59.00,53.89,1
40.00,53.87,1
122.00,54.24,1
72.00,55.67,1
389.00,60.31,1
63.00,69.46,1
162.00,79.72,1
210.00,89.83,1
177.00,100.79,1
122.00,111.48,1
174.00,120.83,1
153.00,129.10,1
294.00,137.51,1
172.00,146.91,1
247.00,156.51,1
237.00,166.12,1
324.00,176.57,1
215.00,187.79,1
188.00,197.90,1
72.00,204.51,1
160.00,206.81,1
85.00,205.64,1
75.00,201.28,1
50.00,193.65,1
73.00,183.43,1
83.00,171.91,1
123.00,160.45,1
72.00,149.73,1
93.00,139.61,1
231.00,131.34,1
164.00,126.70,1
141.00,124.76,1
172.00,124.27,1
230.00,125.72,1
230.00,129.82,1
179.00,135.82,1
208.00,142.47,1
75.00,148.34,1
460.00,154.68,1
723.00,168.58,1
1023.00,197.89,1
1023.00,245.22,1
1023.00,306.87,1
164.00,370.47,1
978.00,425.80,1
108.00,472.18,1
1023.00,510.14,1
788.00,546.43,1
1023.00,585.86,1
282.00,622.21,1
328.00,645.08,1
134.00,650.12,1
382.00,640.64,1
170.00,621.11,1
1023.00,600.09,1
350.00,585.46,1
868.00,576.45,1
1023.00,576.31,1
282.00,583.59,1
359.00,585.94,1
1023.00,585.07,1
994.00,593.13,1
1023.00,613.00,1
157.00,634.23,1
140.00,641.62,1
1023.00,638.02,1
1023.00,640.67,1
392.00,650.25,1
647.00,656.30,1
571.00,657.87,1
650.00,657.47,1
244.00,652.90,1
70.00,637.85,1
613.00,613.67,1
394.00,588.87,1
248.00,564.20,1
1004.00,542.46,1
323.00,529.37,1
229.00,517.46,1
499.00,501.88,1
411.00,486.97,1
82.00,471.14,1
132.00,449.41,1
613.00,425.93,1
425.00,408.77,1
65.00,394.85,1
62.00,376.30,1
856.00,358.39,1
339.00,350.39,1
320.00,348.09,1
100.00,343.75,1
410.00,336.77,1
394.00,331.18,1
320.00,328.52,1
180.00,325.67,1
101.00,319.19,1
216.00,308.70,1
688.00,300.61,1
386.00,300.93,1
673.00,308.81,1
103.00,319.72,1
466.00,328.57,1
597.00,337.92,1
200.00,349.22,1
552.00,359.07,1
97.00,366.24,1
389.00,368.93,1
778.00,372.46,1
450.00,382.75,1
480.00,395.72,1
144.00,405.34,1
112.00,406.39,1
132.00,397.90,1
97.00,382.26,1
1023.00,368.89,1
151.00,365.65,1
177.00,363.51,1
182.00,355.53,1
192.00,343.72,1
442.00,331.72,1
166.00,321.90,1
325.00,312.87,1
127.00,303.46,1
159.00,292.40,1
140.00,279.13,1
159.00,264.73,1
134.00,249.92,1
272.00,236.18,1
55.00,223.99,1
273.00,212.72,1
385.00,205.27,1
455.00,205.20,1
742.00,215.30,1
680.00,237.47,1
682.00,269.62,1
151.00,303.27,1
382.00,330.11,1
624.00,352.31,1
632.00,376.33,1
720.00,403.75,1
431.00,431.89,1
163.00,453.38,1
1023.00,469.45,1
388.00,487.63,1
854.00,507.23,1
295.00,525.12,1
118.00,534.23,1
240.00,529.94,1
108.00,515.01,1
168.00,491.86,1
62.00,462.11,1
218.00,428.49,1
612.00,397.94,1
143.00,374.68,1
143.00,353.22,1
278.00,331.05,1
582.00,313.85,1
272.00,304.62,1
736.00,302.95,1
323.00,308.77,1
124.00,315.43,1
134.00,315.88,1
136.00,310.13,1
48.00,299.27,1
86.00,283.79,1
263.00,266.60,1
971.00,257.81,1
226.00,262.64,1
550.00,273.94,1
598.00,289.46,1
421.00,309.64,1
490.00,330.71,1
131.00,348.44,1
589.00,361.46,1
59.00,370.70,1
549.00,375.80,1
440.00,380.45,1
114.00,384.16,1
206.00,381.35,1
104.00,371.79,1
297.00,358.09,1
551.00,346.16,1
262.00,339.40,1
124.00,332.96,1
205.00,322.91,1
106.00,309.89,1
260.00,295.33,1
182.00,281.19,1
456.00,270.07,1
107.00,262.61,1
773.00,260.20,1
634.00,268.71,1
123.00,284.26,1
170.00,295.36,1
108.00,298.68,1
127.00,295.54,1
132.00,287.40,1
140.00,276.04,1
188.00,263.25,1
206.00,250.80,1
560.00,242.62,1
290.00,241.74,1
785.00,248.93,1
442.00,265.17,1
210.00,284.34,1
196.00,298.25,1
81.00,304.57,1
127.00,303.36,1
462.00,298.98,1
66.00,295.01,1
429.00,290.70,1
288.00,287.85,1
347.00,287.36,1
728.00,291.58,1
148.00,301.36,1
412.00,310.70,1
362.00,318.55,1
152.00,324.63,1
114.00,324.97,1
421.00,321.12,1
157.00,316.76,1
52.00,309.43,1
46.00,296.10,1
135.00,278.46,1
236.00,260.38,1
109.00,243.94,1
1023.00,235.65,1
172.00,240.91,1
579.00,253.10,1
248.00,267.05,1
218.00,279.51,1
59.00,285.87,1
134.00,285.14,1
1023.00,286.34,1
795.00,302.35,1
96.00,326.99,1
809.00,349.75,1
394.00,372.96,1
183.00,392.98,1
164.00,402.78,1
217.00,402.94,1
544.00,399.21,1
70.00,394.53,1
86.00,384.31,1
550.00,370.41,1
319.00,360.04,1
124.00,351.10,1
252.00,339.48,1
208.00,326.30,1
292.00,313.42,1
363.00,302.82,1
414.00,296.62,1
116.00,292.90,1
439.00,289.36,1
179.00,286.80,1
626.00,287.16,1
88.00,290.55,1
272.00,292.40,1
332.00,292.09,1
793.00,296.59,1
60.00,306.60,1
487.00,315.65,1
167.00,321.99,1
478.00,326.90,1
726.00,335.12,1
253.00,348.42,1
53.00,357.59,1
219.00,357.42,1
144.00,350.62,1
74.00,338.62,1
85.00,321.38,1
536.00,304.07,1
104.00,291.29,1
125.00,279.12,1
395.00,266.81,1
246.00,258.22,1
73.00,251.08,1
181.00,242.04,1
278.00,233.06,1
83.00,225.30,1
185.00,217.13,1
187.00,209.03,1
324.00,203.28,1
397.00,202.44,1
274.00,206.62,1
383.00,213.96,1
222.00,222.93,1
56.00,229.66,1
1023.00,238.41,1
208.00,256.29,1
367.00,276.37,1
90.00,291.01,1
58.00,297.50,1
183.00,295.71,1
78.00,288.70,1
107.00,277.51,1
245.00,264.22,1
162.00,251.65,1
400.00,241.79,1
190.00,235.86,1
597.00,234.95,1
155.00,239.20,1
312.00,244.63,1
82.00,247.77,1
319.00,248.52,1
82.00,247.48,1
377.00,245.61,1
74.00,243.59,1
100.00,239.15,1
91.00,230.86,1
237.00,221.20,1
40.00,211.53,1
46.00,200.17,1
64.00,186.53,1
195.00,173.03,1
115.00,161.76,1
311.00,153.92,1
200.00,150.64,1
139.00,150.21,1
252.00,150.97,1
73.00,152.47,1
156.00,153.14,1
359.00,154.74,1
448.00,161.79,1
106.00,173.10,1
127.00,182.48,1
162.00,187.87,1
220.00,191.30,1
128.00,193.61,1
139.00,194.04,1
215.00,193.06,1
70.00,191.21,1
130.00,187.47,1
449.00,184.88,1
139.00,186.47,1
289.00,189.93,1
460.00,196.05,1
213.00,206.00,1
301.00,216.56,1
588.00,229.09,1
92.00,244.00,1
205.00,255.33,1
219.00,261.42,1
786.00,269.23,1
456.00,284.90,1
141.00,302.68,1
349.00,315.14,1
76.00,321.75,1
90.00,320.94,1
77.00,312.40,1
440.00,301.23,1
54.00,291.12,1
542.00,282.84,1
250.00,278.66,1
226.00,276.79,1
168.00,273.40,1
94.00,267.21,1
196.00,258.21,1
152.00,248.09,1
276.00,238.60,1
147.00,230.54,1
84.00,222.18,1
219.00,212.89,1
189.00,204.66,1
375.00,199.71,1
143.00,198.30,1
46.00,196.52,1
92.00,191.33,1
114.00,183.92,1
58.00,175.32,1
211.00,166.62,1
420.00,161.96,1
202.00,163.45,1
224.00,167.90,1
378.00,174.24,1
333.00,184.13,1
220.00,196.08,1
342.00,207.91,1
103.00,218.34,1
68.00,224.10,1
279.00,225.35,1
50.00,224.43,1
62.00,219.97,1
304.00,213.24,1
683.00,212.28,1
101.00,219.13,1
202.00,226.07,1
260.00,230.19,1
916.00,239.20,1
205.00,257.11,1
51.00,273.62,1
206.00,281.33,1
126.00,282.73,1
70.00,278.77,1
181.00,270.25,1
549.00,262.95,1
497.00,263.49,1
440.00,271.65,1
494.00,284.37,1
96.00,297.25,1
986.00,311.02,1
64.00,328.89,1
252.00,342.88,1
354.00,349.80,1
136.00,352.58,1
218.00,349.99,1
245.00,343.21,1
149.00,333.82,1
43.00,320.44,1
179.00,303.08,1
121.00,284.18,1
73.00,264.51,1
215.00,244.81,1
63.00,226.39,1
80.00,208.41,1
388.00,192.91,1
187.00,183.41,1
485.00,180.44,1
454.00,185.52,1
166.00,196.10,1
318.00,206.78,1
238.00,216.66,1
432.00,227.12,1
45.00,237.06,1
162.00,242.45,1
310.00,244.16,1
703.00,249.68,1
320.00,262.50,1
410.00,278.04,1
130.00,291.15,1
266.00,299.19,1
329.00,303.62,1
238.00,306.54,1
181.00,306.74,1
351.00,304.63,1
257.00,302.37,1
135.00,298.92,1
319.00,293.41,1
186.00,287.44,1
136.00,280.23,1
39.00,269.55,1
150.00,255.53,1
52.00,239.68,1
46.00,222.16,1
690.00,208.40,1
122.00,203.91,1
327.00,204.17,1
202.00,205.71,1
202.00,207.81,1
291.00,209.95,1
265.00,213.33,1
222.00,217.49,1
132.00,220.40,1
750.00,225.57,1
352.00,238.45,1
262.00,254.65,1
94.00,266.53,1
431.00,274.04,1
392.00,281.85,1
86.00,289.23,1
156.00,291.20,1
120.00,287.22,1
198.00,279.60,1
210.00,270.54,1
81.00,260.46,1
60.00,247.76,1
420.00,235.06,1
151.00,226.35,1
224.00,220.08,1
204.00,214.67,1
65.00,209.21,1
185.00,202.44,1
179.00,195.67,1
399.00,191.87,1
66.00,191.29,1
148.00,190.14,1
109.00,186.84,1
77.00,181.79,1
176.00,175.58,1
142.00,169.76,1
198.00,165.17,1
357.00,163.63,1
595.00,169.63,1
303.00,183.92,1
298.00,201.12,1
224.00,216.84,1
125.00,228.80,1
169.00,235.61,1
184.00,238.29,1
177.00,238.35,1
1023.00,243.45,1
60.00,258.32,1
46.00,270.91,1
129.00,273.79,1
130.00,270.39,1
196.00,263.67,1
68.00,254.72,1
78.00,242.83,1
96.00,228.41,1
68.00,212.71,1
314.00,198.24,1
84.00,187.15,1
282.00,178.84,1
134.00,173.10,1
116.00,168.52,1
115.00,163.43,1
558.00,161.65,1
238.00,167.19,1
172.00,175.83,1
182.00,182.90,1
132.00,187.73,1
1023.00,197.34,1
361.00,219.24,1
80.00,243.84,1
310.00,261.29,1
62.00,272.18,1
385.00,278.16,1
93.00,281.15,1
155.00,280.05,1
157.00,274.52,1
220.00,266.93,1
152.00,258.47,1
111.00,248.72,1
127.00,237.18,1
178.00,225.02,1
294.00,214.76,1
47.00,206.59,1
184.00,198.27,1
139.00,189.98,1
205.00,182.90,1
57.00,176.48,1
400.00,171.72,1
304.00,172.02,1
241.00,176.91,1
116.00,182.24,1
138.00,185.32,1
125.00,185.82,1
328.00,185.97,1
199.00,188.03,1
247.00,191.40,1
119.00,194.35,1
193.00,195.77,1
106.00,195.41,1
165.00,193.37,1
313.00,191.62,1
242.00,192.51,1
361.00,196.37,1
311.00,203.37,1
147.00,211.30,1
156.00,216.63,1
184.00,218.84,1
70.00,218.18,1
502.00,217.29,1
76.00,218.96,1
282.00,220.72,1
346.00,222.91,1
181.00,226.77,1
47.00,228.40,1
92.00,225.10,1
136.00,218.15,1
830.00,215.56,1
107.00,222.24,1
176.00,230.07,1
381.00,235.33,1
162.00,240.65,1
149.00,243.76,1
152.00,243.13,1
127.00,239.39,1
71.00,232.55,1
136.00,222.96,1
108.00,212.00,1
132.00,200.63,1
187.00,189.98,1
216.00,181.57,1
51.00,174.73,1
74.00,166.97,1
328.00,159.91,1
48.00,155.73,1
54.00,151.35,1
374.00,147.41,1
157.00,147.51,1
48.00,148.81,1
189.00,148.53,1
163.00,148.28,1
399.00,150.75,1
143.00,156.79,1
277.00,164.15,1
239.00,172.08,1
548.00,183.20,1
211.00,198.41,1
268.00,213.66,1
413.00,227.77,1
140.00,241.18,1
170.00,250.50,1
225.00,255.11,1
201.00,256.96,1
59.00,255.49,1
96.00,249.31,1
117.00,239.40,1
220.00,228.44,1
466.00,221.02,1
82.00,218.31,1
168.00,215.62,1
61.00,210.39,1
306.00,204.38,1
779.00,205.15,1
443.00,218.04,1
302.00,236.96,1
130.00,253.22,1
98.00,262.61,1
230.00,265.57,1
142.00,264.80,1
93.00,260.48,1
81.00,251.96,1
180.00,240.71,1
85.00,228.52,1
101.00,215.42,1
263.00,202.87,1
511.00,196.08,1
153.00,196.42,1
361.00,199.97,1
374.00,206.39,1
100.00,214.50,1
341.00,221.13,1
148.00,226.54,1
46.00,228.76,1
190.00,226.44,1
187.00,222.23,1
95.00,217.11,1
133.00,210.23,1
417.00,204.48,1
226.00,203.26,1
76.00,203.43,1
47.00,200.32,1
42.00,193.04,1
119.00,183.19,1
334.00,174.73,1
110.00,169.99,1
198.00,166.99,1
86.00,164.08,1
62.00,159.99,1
142.00,154.48,1
37.00,148.33,1
252.00,142.62,1
157.00,139.34,1
548.00,141.51,1
141.00,150.12,1
69.00,159.15,1
111.00,163.94,1
127.00,165.61,1
95.00,165.18,1
101.00,162.83,1
167.00,159.47,1
190.00,156.81,1
646.00,159.53,1
405.00,171.88,1
194.00,189.25,1
569.00,207.47,1
431.00,229.08,1
180.00,251.26,1
144.00,267.54,1
68.00,275.42,1
102.00,275.48,1
138.00,269.73,1
147.00,260.69,1
79.00,249.40,1
41.00,235.38,1
160.00,219.53,1
172.00,204.63,1
427.00,194.25,1
364.00,191.52,1
178.00,194.19,1
46.00,196.12,1
242.00,195.30,1
176.00,194.05,1
119.00,192.58,1
105.00,189.35,1
275.00,185.62,1
44.00,182.42,1
191.00,178.52,1
158.00,174.48,1
109.00,170.73,1
118.00,166.31,1
49.00,160.70,1
162.00,154.21,1
218.00,149.07,1
232.00,147.12,1
193.00,148.06,1
142.00,150.17,1
347.00,153.64,1
79.00,158.78,1
73.00,162.21,1
52.00,161.71,1
556.00,162.05,1
469.00,170.53,1
454.00,187.50,1
246.00,207.70,1
439.00,227.65,1
89.00,245.32,1
248.00,257.71,1
599.00,268.40,1
153.00,280.89,1
258.00,290.69,1
187.00,295.60,1
67.00,295.30,1
379.00,291.08,1
127.00,286.11,1
209.00,279.83,1
85.00,270.96,1
85.00,259.08,1
147.00,244.77,1
265.00,231.10,1
336.00,221.48,1
274.00,216.88,1
286.00,215.92,1
168.00,216.46,1
98.00,215.66,1
336.00,213.68,1
73.00,212.08,1
42.00,208.14,1
231.00,201.45,1
152.00,195.13,1
889.00,195.76,1
411.00,209.22,1
202.00,228.39,1
134.00,243.21,1
102.00,251.14,1
71.00,252.25,1
138.00,247.90,1
106.00,240.15,1
300.00,231.69,1
277.00,225.72,1
123.00,221.80,1
147.00,217.05,1
150.00,210.93,1
563.00,207.64,1
179.00,210.36,1
127.00,214.12,1
401.00,216.80,1
46.00,219.73,1
100.00,219.58,1
195.00,215.84,1
95.00,210.72,1
412.00,206.45,1
376.00,207.14,1
281.00,212.87,1
889.00,225.36,1
414.00,248.02,1
297.00,273.82,1
207.00,294.42,1
142.00,307.33,1
461.00,314.79,1
72.00,319.41,1
45.00,317.66,1
288.00,309.44,1
476.00,302.03,1
236.00,298.65,1
308.00,296.60,1
215.00,294.04,1
426.00,292.00,1
544.00,294.17,1
299.00,301.11,1
68.00,306.43,1
161.00,305.19,1
117.00,298.31,1
157.00,287.81,1
391.00,277.10,1
745.00,273.70,1
368.00,280.59,1
132.00,289.87,1
343.00,295.40,1
83.00,297.29,1
624.00,298.26,1
251.00,302.25,1
947.00,312.37,1
81.00,328.09,1
316.00,340.97,1
81.00,346.06,1
187.00,344.03,1
628.00,340.03,1
219.00,339.48,1
318.00,339.28,1
315.00,337.57,1
127.00,334.02,1
64.00,325.52,1
282.00,312.76,1
308.00,300.48,1
128.00,289.68,1
450.00,280.29,1
633.00,277.56,1
550.00,285.13,1
606.00,300.97,1
184.00,319.16,1
383.00,333.65,1
144.00,342.60,1
158.00,344.89,1
327.00,341.68,1
304.00,337.15,1
151.00,331.51,1
221.00,323.10,1
405.00,314.23,1
406.00,309.01,1
53.00,305.33,1
102.00,297.42,1
89.00,284.40,1
306.00,269.91,1
840.00,262.81,1
161.00,266.45,1
259.00,272.17,1
57.00,273.61,1
734.00,274.80,1
299.00,281.73,1
287.00,291.13,1
89.00,296.58,1
577.00,299.51,1
56.00,302.58,1
124.00,301.61,1
463.00,297.21,1
111.00,293.63,1
287.00,289.23,1
136.00,283.11,1
102.00,274.51,1
420.00,265.16,1
505.00,261.31,1
469.00,265.55,1
96.00,272.73,1
128.00,275.64,1
111.00,272.46,1
109.00,264.82,1
187.00,254.49,1
641.00,247.56,1
179.00,247.67,1
352.00,250.74,1
262.00,254.25,1
145.00,256.95,1
295.00,257.50,1
579.00,260.25,1
76.00,266.37,1
389.00,271.47,1
252.00,275.50,1
57.00,277.27,1
201.00,274.08,1
639.00,271.67,1
517.00,277.58,1
227.00,288.65,1
221.00,297.35,1
48.00,300.00,1
319.00,297.31,1
208.00,292.78,1
580.00,290.55,1
1023.00,299.14,1
345.00,320.62,1
238.00,342.51,1
334.00,357.30,1
583.00,369.02,1
65.00,378.66,1
76.00,379.91,1
57.00,370.33,1
307.00,354.89,1
114.00,337.91,1
103.00,319.07,1
328.00,299.57,1
912.00,288.66,1
341.00,291.59,1
61.00,297.85,1
298.00,299.06,1
232.00,297.47,1
84.00,293.42,1
98.00,284.76,1
188.00,272.66,1
349.00,261.26,1
178.00,252.75,1
560.00,248.38,1
91.00,248.31,1
213.00,247.93,1
105.00,244.59,1
519.00,241.74,1
178.00,242.58,1
820.00,249.21,1
274.00,263.24,1
201.00,278.18,1
136.00,286.97,1
441.00,291.70,1
43.00,294.42,1
120.00,292.05,1
212.00,284.69,1
147.00,275.37,1
450.00,267.09,1
172.00,262.03,1
120.00,257.09,1
90.00,248.90,1
209.00,238.64,1
96.00,227.92,1
133.00,216.63,1
230.00,205.77,1
129.00,196.68,1
138.00,188.44,1
281.00,181.63,1
219.00,178.05,1
123.00,176.45,1
174.00,174.67,1
157.00,172.73,1
180.00,171.07,1
480.00,172.37,1
70.00,177.67,1
100.00,181.77,1
73.00,181.71,1
231.00,179.59,1
143.00,177.64,1
180.00,176.05,1
58.00,173.65,1
268.00,170.73,1
284.00,170.13,1
496.00,175.11,1
262.00,185.87,1
114.00,197.29,1
135.00,204.59,1
199.00,208.15,1
163.00,209.71,1
198.00,209.94,1
218.00,209.59,1
272.00,209.89,1
288.00,211.86,1
272.00,215.65,1
273.00,220.53,1
48.00,224.11,1
367.00,225.47,1
122.00,226.52,1
531.00,229.28,1
78.00,234.30,1
121.00,237.04,1
62.00,234.42,1
264.00,228.84,1
219.00,223.73,1
205.00,219.94,1
518.00,219.30,1
266.00,224.05,1
53.00,229.38,1
145.00,230.12,1
84.00,226.56,1
353.00,221.87,1
228.00,219.40,1
60.00,217.45,1
46.00,212.06,1
457.00,205.98,1
81.00,203.19,1
180.00,200.95,1
160.00,197.58,1
284.00,194.97,1
107.00,193.44,1
215.00,191.77,1
100.00,189.43,1
87.00,185.53,1
405.00,182.04,1
51.00,181.21,1
219.00,180.59,1
40.00,178.52,1
42.00,173.86,1
74.00,166.22,1
337.00,159.28,1
382.00,158.09,1
206.00,162.79,1
57.00,168.02,1
136.00,170.19,1
385.00,172.12,1
258.00,177.55,1
176.00,184.72,1
264.00,191.29,1
89.00,196.50,1
506.00,201.81,1
144.00,209.46,1
57.00,215.38,1
184.00,216.40,1
74.00,214.14,1
235.00,210.02,1
213.00,206.21,1
365.00,204.98,1
55.00,205.51,1
127.00,204.10,1
129.00,199.89,1
284.00,195.61,1
153.00,192.93,1
337.00,192.17,1
211.00,193.83,1
317.00,197.58,1
65.00,201.43,1
220.00,203.20,1
165.00,203.36,1
171.00,202.70,1
296.00,202.14,1
292.00,203.76,1
139.00,206.70,1
186.00,208.34,1
723.00,212.93,1
55.00,223.35,1
256.00,232.88,1
79.00,237.74,1
93.00,237.69,1
863.00,239.12,1
348.00,250.22,1
89.00,264.06,1
144.00,271.37,1
57.00,271.51,1
245.00,266.72,1
104.00,259.63,1
115.00,250.35,1
54.00,238.16,1
310.00,225.44,1
117.00,214.87,1
571.00,209.01,1
91.00,208.82,1
221.00,209.83,1
364.00,211.08,1
379.00,216.03,1
288.00,224.32,1
250.00,233.17,1
181.00,240.20,1
251.00,244.72,1
141.00,246.89,1
409.00,248.15,1
314.00,251.45,1
233.00,256.14,1
286.00,260.04,1
131.00,262.15,1
129.00,260.65,1
149.00,255.28,1
82.00,246.98,1
547.00,239.61,1
69.00,236.42,1
74.00,232.45,1
559.00,228.16,1
143.00,228.46,1
449.00,231.85,1
105.00,236.25,1
90.00,237.96,1
70.00,234.29,1
74.00,226.23,1
200.00,216.07,1
286.00,207.48,1
696.00,206.22,1
235.00,214.20,1
57.00,223.33,1
152.00,227.01,1
67.00,225.85,1
302.00,222.31,1
155.00,219.10,1
100.00,215.29,1
201.00,209.86,1
128.00,204.00,1
97.00,197.37,1
74.00,189.09,1
366.00,181.59,1
46.00,176.92,1
103.00,172.17,1
82.00,165.58,1
113.00,158.24,1
88.00,150.71,1
178.00,143.87,1
121.00,138.58,1
47.00,133.84,1
133.00,128.69,1
152.00,124.37,1
48.00,120.98,1
350.00,119.35,1
363.00,123.41,1
439.00,135.01,1
207.00,151.30,1
229.00,167.60,1
306.00,182.47,1
127.00,195.74,1
305.00,206.51,1
266.00,216.15,1
178.00,224.73,1
85.00,229.65,1
357.00,231.62,1
156.00,233.36,1
624.00,237.63,1
142.00,245.78,1
121.00,252.36,1
503.00,256.34,1
524.00,264.51,1
203.00,276.49,1
49.00,284.52,1
215.00,285.43,1
206.00,282.36,1
220.00,277.66,1
172.00,271.68,1
170.00,264.23,1
107.00,254.94,1
128.00,243.66,1
195.00,231.66,1
222.00,220.99,1
55.00,211.32,1
85.00,200.44,1
86.00,188.14,1
477.00,178.64,1
243.00,176.20,1
120.00,177.45,1
135.00,177.64,1
102.00,175.98,1
86.00,172.42,1
289.00,168.68,1
216.00,167.54,1
314.00,169.70,1
206.00,174.39,1
223.00,180.02,1
186.00,185.28,1
96.00,188.86,1
227.00,190.32,1
39.00,190.00,1
125.00,187.00,1
114.00,181.86,1
173.00,176.28,1
151.00,171.26,1
150.00,166.95,1
101.00,162.72,1
150.00,158.26,1
51.00,153.38,1
38.00,147.01,1
189.00,139.92,1
64.00,133.88,1
253.00,129.57,1
288.00,129.11,1
512.00,135.61,1
46.00,147.30,1
209.00,158.04,1
168.00,166.19,1
202.00,173.06,1
144.00,178.48,1
447.00,184.45,1
200.00,193.10,1
165.00,201.65,1
96.00,206.64,1
232.00,208.44,1
86.00,208.26,1
147.00,205.81,1
38.00,200.61,1
283.00,194.22,1
189.00,189.50,1
126.00,186.15,1
324.00,183.77,1
151.00,183.54,1
62.00,182.99,1
147.00,180.03,1
334.00,177.53,1
481.00,180.46,1
141.00,188.60,1
295.00,197.31,1
56.00,203.90,1
180.00,207.03,1
97.00,206.83,1
345.00,205.78,1
269.00,206.89,1
155.00,209.47,1
83.00,209.98,1
109.00,206.99,1
114.00,201.32,1
100.00,193.97,1
207.00,186.29,1
331.00,181.27,1
400.00,181.91,1
121.00,186.72,1
145.00,190.71,1
186.00,192.36,1
62.00,192.03,1
65.00,188.52,1
102.00,182.05,1
139.00,174.48,1
115.00,167.04,1
386.00,162.13,1
123.00,161.40,1
68.00,161.30,1
75.00,158.58,1
152.00,154.34,1
673.00,154.76,1
182.00,164.02,1
43.00,174.59,1
219.00,180.83,1
341.00,186.39,1
238.00,193.90,1
276.00,202.26,1
140.00,209.61,1
134.00,213.94,1
94.00,214.24,1
200.00,211.69,1
626.00,212.02,1
93.00,218.13,1
136.00,223.40,1
60.00,223.50,1
56.00,218.70,1
47.00,209.62,1
127.00,198.10,1
78.00,185.93,1
187.00,174.42,1
72.00,164.24,1
183.00,155.32,1
327.00,149.75,1
69.00,148.06,1
51.00,146.14,1
139.00,142.40,1
44.00,137.93,1
251.00,133.93,1
309.00,133.52,1
105.00,136.84,1
202.00,140.80,1
278.00,145.65,1
139.00,151.95,1
207.00,158.03,1
75.00,162.61,1
157.00,164.94,1
313.00,167.06,1
215.00,171.40,1
384.00,178.33,1
111.00,186.78,1
250.00,194.11,1
113.00,199.25,1
78.00,201.11,1
217.00,199.90,1
151.00,197.85,1
289.00,196.42,1
233.00,196.83,1
44.00,197.23,1
99.00,194.50,1
88.00,188.65,1
66.00,180.77,1
128.00,171.67,1
222.00,163.58,1
522.00,161.05,1
210.00,166.01,1
115.00,173.02,1
99.00,177.10,1
121.00,177.90,1
51.00,175.85,1
289.00,172.72,1
163.00,171.18,1
159.00,170.76,1
418.00,172.23,1
216.00,177.71,1
174.00,184.48,1
117.00,189.14,1
313.00,192.39,1
145.00,195.84,1
69.00,197.52,1
146.00,195.80,1
105.00,191.86,1
57.00,185.88,1
88.00,177.70,1
146.00,168.72,1
40.00,159.78,1
84.00,150.26,1
446.00,143.46,1
90.00,142.47,1
132.00,143.29,1
223.00,143.95,1
412.00,147.93,1
91.00,155.50,1
236.00,162.97,1
150.00,169.16,1
55.00,173.13,1
126.00,173.60,1
202.00,172.39,1
46.00,170.52,1
362.00,168.89,1
251.00,170.54,1
369.00,176.37,1
169.00,184.53,1
257.00,192.62,1
237.00,200.01,1
234.00,206.98,1
424.00,214.80,1
332.00,225.33,1
44.00,235.24,1
96.00,239.16,1
75.00,236.80,1
85.00,229.89,1
269.00,221.25,1
78.00,213.15,1
169.00,204.87,1
166.00,196.59,1
76.00,188.57,1
140.00,180.03,1
201.00,172.18,1
294.00,167.43,1
253.00,166.93,1
131.00,168.73,1
268.00,171.01,1
359.00,175.60,1
125.00,182.46,1
165.00,188.04,1
223.00,191.65,1
495.00,197.22,1
255.00,207.14,1
157.00,217.43,1
462.00,226.59,1
229.00,236.92,1
110.00,245.45,1
184.00,249.04,1
154.00,248.79,1
109.00,245.32,1
46.00,238.04,1
690.00,232.01,1
69.00,232.19,1
117.00,232.47,1
136.00,228.60,1
191.00,222.86,1
78.00,216.04,1
289.00,208.98,1
226.00,204.02,1
77.00,200.26,1
290.00,196.32,1
226.00,194.15,1
85.00,192.92,1
62.00,189.37,1
63.00,182.61,1
216.00,174.79,1
190.00,168.72,1
108.00,164.37,1
136.00,160.11,1
142.00,155.89,1
128.00,152.06,1
69.00,147.97,1
78.00,142.80,1
160.00,137.33,1
346.00,134.79,1
55.00,135.93,1
138.00,137.22,1
52.00,136.80,1
83.00,134.65,1
557.00,135.00,1
66.00,141.25,1
229.00,148.92,1
181.00,155.66,1
121.00,161.51,1
42.00,164.45,1
133.00,163.96,1
211.00,162.45,1
196.00,162.15,1
221.00,163.40,1
484.00,168.25,1
114.00,177.18,1
348.00,186.89,1
564.00,199.47,1
250.00,216.78,1
325.00,234.27,1
131.00,248.33,1
264.00,257.84,1
176.00,263.38,1
198.00,265.59,1
64.00,263.74,1
216.00,258.00,1
104.00,250.05,1
131.00,240.30,1
157.00,229.22,1
68.00,217.45,1
110.00,204.62,1
88.00,191.18,1
401.00,180.34,1
44.00,173.91,1
44.00,167.68,1
179.00,159.95,1
60.00,152.59,1
117.00,145.38,1
312.00,140.12,1
222.00,139.44,1
69.00,141.15,1
332.00,143.51,1
84.00,147.33,1
193.00,151.09,1
80.00,153.50,1
193.00,154.77,1
207.00,156.18,1
205.00,158.80,1
268.00,162.84,1
63.00,167.18,1
314.00,170.81,1
76.00,174.26,1
129.00,176.04,1
110.00,175.26,1
383.00,174.91,1
306.00,178.65,1
133.00,184.95,1
88.00,189.08,1
172.00,189.91,1
214.00,189.62,1
308.00,190.63,1
135.00,193.07,1
392.00,196.55,1
172.00,201.73,1
115.00,206.04,1
529.00,210.19,1
41.00,216.43,1
225.00,220.93,1
169.00,222.49,1
402.00,224.29,1
137.00,227.42,1
149.00,229.11,1
52.00,226.85,1
38.00,220.07,1
212.00,210.42,1
145.00,201.15,1
153.00,192.87,1
527.00,188.32,1
49.00,188.99,1
387.00,191.63,1
119.00,195.08,1
132.00,197.50,1
112.00,196.93,1
210.00,194.66,1
66.00,191.44,1
128.00,186.57,1
157.00,180.67,1
366.00,176.89,1
266.00,177.69,1
176.00,181.33,1
89.00,183.94,1
45.00,183.16,1
112.00,178.91,1
209.00,173.73,1
79.00,169.08,1
299.00,165.47,1
361.00,165.85,1
225.00,171.00,1
222.00,177.82,1
267.00,184.86,1
239.00,192.33,1
185.00,199.32,1
78.00,203.72,1
143.00,204.34,1
242.00,203.06,1
502.00,204.68,1
418.00,213.00,1
277.00,225.63,1
204.00,237.48,1
213.00,246.05,1
55.00,250.07,1
164.00,248.87,1
214.00,244.65,1
191.00,239.82,1
212.00,234.90,1
372.00,231.55,1
81.00,229.95,1
165.00,226.89,1
68.00,221.01,1
66.00,212.21,1
107.00,201.03,1
87.00,188.92,1
96.00,176.55,1
118.00,164.59,1
193.00,154.40,1
86.00,146.44,1
91.00,139.32,1
113.00,132.44,1
68.00,126.01,1
205.00,120.71,1
226.00,118.53,1
130.00,119.50,1
383.00,123.48,1
83.00,130.54,1
77.00,136.76,1
243.00,140.93,1
41.00,144.42,1
48.00,145.36,1
152.00,143.64,1
102.00,141.33,1
132.00,138.93,1
152.00,136.80,1
325.00,136.97,1
217.00,141.08,1
68.00,146.39,1
277.00,150.78,1
163.00,155.63,1
136.00,160.27,1
91.00,162.83,1
168.00,163.40,1
81.00,162.62,1
384.00,162.56,1
210.00,165.93,1
88.00,170.38,1
254.00,173.40,1
101.00,175.72,1
172.00,176.88,1
102.00,176.42,1
170.00,174.76,1
259.00,173.51,1
113.00,173.45,1
155.00,172.96,1
176.00,171.82,1
49.00,169.86,1
171.00,166.44,1
95.00,162.35,1
139.00,158.02,1
40.00,152.92,1
89.00,146.56,1
61.00,139.19,1
169.00,132.13,1
124.00,126.72,1
58.00,122.34,1
78.00,117.59,1
110.00,112.77,1
178.00,109.32,1
206.00,108.68,1
617.00,114.56,1
133.00,128.30,1
661.00,147.33,1
60.00,169.43,1
223.00,188.92,1
170.00,203.09,1
127.00,212.84,1
131.00,217.80,1
168.00,219.00,1
192.00,218.12,1
113.00,215.72,1
242.00,212.24,1
100.00,208.33,1
461.00,205.93,1
173.00,207.19,1
163.00,209.31,1
264.00,210.31,1
124.00,210.85,1
54.00,208.96,1
171.00,203.89,1
166.00,197.95,1
173.00,192.47,1
106.00,187.05,1
139.00,181.08,1
134.00,174.84,1
216.00,169.46,1
211.00,166.20,1
390.00,166.74,1
236.00,171.79,1
208.00,178.81,1
180.00,185.11,1
243.00,190.48,1
130.00,194.84,1
150.00,197.10,1
277.00,198.14,1
203.00,199.87,1
228.00,202.12,1
150.00,203.83,1
243.00,204.76,1
155.00,205.24,1
107.00,204.26,1
383.00,202.98,1
65.00,203.05,1
161.00,201.94,1
72.00,198.20,1
52.00,191.73,1
68.00,182.42,1
192.00,172.44,1
75.00,163.52,1
170.00,155.55,1
173.00,149.22,1
366.00,146.77,1
107.00,148.49,1
144.00,150.88,1
330.00,153.71,1
123.00,158.46,1
158.00,162.90,1
343.00,167.34,1
240.00,174.17,1
588.00,185.24,1
193.00,200.82,1
158.00,215.39,1
388.00,226.72,1
281.00,237.89,1
289.00,248.77,1
305.00,258.43,1
324.00,267.34,1
258.00,275.28,1
150.00,280.39,1
89.00,280.30,1
219.00,275.46,1
392.00,270.25,1
109.00,266.55,1
77.00,260.60,1
42.00,249.95,1
105.00,235.74,1
228.00,221.10,1
233.00,209.26,1
158.00,200.39,1
205.00,193.26,1
338.00,188.97,1
220.00,188.58,1
126.00,189.53,1
153.00,189.13,1
139.00,187.29,1
245.00,185.28,1
186.00,184.37,1
188.00,184.25,1
167.00,184.08,1
140.00,183.34,1
159.00,181.71,1
288.00,180.63,1
138.00,181.07,1
89.00,180.82,1
310.00,179.83,1
318.00,181.62,1
134.00,185.93,1
126.00,188.95,1
55.00,188.65,1
72.00,184.66,1
96.00,177.99,1
198.00,170.86,1
170.00,165.26,1
152.00,161.26,1
127.00,157.85,1
181.00,154.89,1
189.00,153.13,1
442.00,155.01,1
265.00,162.45,1
216.00,172.61,1
106.00,181.26,1
175.00,186.81,1
242.00,190.62,1
333.00,195.40,1
280.00,202.40,1
143.00,209.60,1
373.00,215.90,1
387.00,224.07,1
329.00,235.09,1
376.00,247.48,1
152.00,258.90,1
246.00,266.70,1
89.00,269.81,1
244.00,268.80,1
295.00,266.36,1
198.00,264.22,1
171.00,260.98,1
75.00,254.95,1
355.00,247.52,1
168.00,241.57,1
222.00,236.61,1
327.00,232.78,1
175.00,230.86,1
142.00,228.53,1
143.00,224.19,1
253.00,219.10,1
291.00,215.76,1
247.00,215.05,1
237.00,215.85,1
268.00,217.51,1
470.00,221.87,1
273.00,230.10,1
148.00,238.38,1
230.00,243.39,1
161.00,245.51,1
230.00,245.45,1
331.00,245.16,1
202.00,245.87,1
166.00,245.73,1
45.00,242.25,1
100.00,234.57,1
109.00,223.87,1
174.00,212.37,1
63.00,200.91,1
58.00,188.51,1
75.00,174.91,1
101.00,161.35,1
152.00,149.25,1
222.00,140.33,1
134.00,134.96,1
111.00,131.39,1
347.00,130.18,1
218.00,133.43,1
209.00,139.71,1
245.00,147.17,1
326.00,156.47,1
131.00,166.87,1
96.00,174.90,1
121.00,178.86,1
176.00,180.19,1
262.00,181.31,1
227.00,183.84,1
260.00,187.76,1
129.00,191.78,1
337.00,195.56,1
65.00,199.14,1
42.00,199.45,1
127.00,195.35,1
140.00,189.37,1
179.00,183.40,1
298.00,179.37,1
302.00,179.29,1
250.00,182.88,1
422.00,189.71,1
140.00,198.84,1
213.00,206.76,1
383.00,213.79,1
103.00,221.01,1
222.00,225.89,1
217.00,228.43,1
279.00,230.53,1
245.00,232.94,1
199.00,235.06,1
480.00,238.19,1
147.00,243.50,1
232.00,247.79,1
387.00,251.11,1
306.00,256.17,1
211.00,261.54,1
108.00,263.87,1
170.00,261.82,1
263.00,257.47,1
92.00,252.15,1
45.00,243.85,1
164.00,232.38,1
167.00,220.46,1
74.00,208.84,1
189.00,197.27,1
57.00,186.16,1
124.00,175.08,1
162.00,164.73,1
170.00,156.53,1
153.00,150.52,1
344.00,147.77,1
109.00,148.63,1
252.00,151.10,1
109.00,153.96,1
295.00,157.36,1
295.00,162.94,1
221.00,170.92,1
298.00,179.87,1
284.00,189.85,1
196.00,199.93,1
192.00,208.15,1
188.00,213.86,1
465.00,219.67,1
250.00,228.10,1
260.00,237.11,1
257.00,244.61,1
419.00,252.09,1
296.00,260.92,1
58.00,267.84,1
307.00,270.20,1
166.00,270.01,1
126.00,267.20,1
260.00,261.82,1
175.00,255.86,1
85.00,248.61,1
212.00,239.46,1
61.00,229.30,1
202.00,218.38,1
140.00,207.87,1
108.00,197.89,1
161.00,188.01,1
260.00,179.99,1
161.00,174.91,1
151.00,171.32,1
284.00,169.12,1
274.00,170.04,1
164.00,173.32,1
307.00,177.62,1
190.00,183.00,1
326.00,189.42,1
140.00,196.16,1
180.00,201.29,1
273.00,204.93,1
310.00,209.48,1
116.00,214.36,1
214.00,217.23,1
175.00,218.17,1
354.00,219.26,1
258.00,222.29,1
124.00,225.45,1
47.00,224.98,1
117.00,219.97,1
98.00,212.05,1
68.00,202.18,1
116.00,190.90,1
175.00,179.92,1
52.00,169.91,1
146.00,160.20,1
94.00,151.14,1
230.00,143.92,1
84.00,138.96,1
47.00,134.28,1
44.00,128.07,1
92.00,120.99,1
65.00,114.04,1
94.00,107.60,1
204.00,102.92,1
268.00,102.30,1
268.00,106.78,1
107.00,114.22,1
53.00,120.53,1
46.00,123.47,1
99.00,123.64,1
188.00,123.26,1
120.00,123.80,1
110.00,124.57,1
154.00,125.12,1
124.00,125.88,1
82.00,126.29,1
71.00,125.40,1
258.00,124.56,1
194.00,126.26,1
140.00,129.89,1
36.00,132.57,1
92.00,132.73,1
42.00,130.63,1
81.00,126.81,1
108.00,122.31,1
232.00,119.21,1
137.00,118.81,1
113.00,119.68,1
106.00,120.27,1
108.00,120.32,1
74.00,119.64,1
212.00,119.04,1
100.00,119.59,1
444.00,123.14,1
387.00,133.14,1
238.00,148.32,1
101.00,162.92,1
324.00,174.93,1
52.00,184.89,1
85.00,190.60,1
168.00,191.81,1
121.00,190.89,1
189.00,188.84,1
71.00,185.74,1
244.00,182.00,1
104.00,178.63,1
103.00,174.74,1
127.00,169.58,1
354.00,165.93,1
298.00,167.02,1
195.00,171.79,1
50.00,175.83,1
79.00,176.17,1
389.00,175.54,1
127.00,177.38,1
167.00,179.61,1
137.00,180.31,1
214.00,180.29,1
373.00,182.09,1
60.00,185.86,1
121.00,187.66,1
92.00,186.04,1
114.00,182.13,1
58.00,176.26,1
236.00,169.80,1
160.00,164.98,1
340.00,163.29,1
130.00,164.61,1
355.00,168.08,1
51.00,172.55,1
102.00,174.86,1
90.00,173.64,1
64.00,169.83,1
77.00,163.75,1
252.00,157.59,1
93.00,153.28,1
47.00,148.94,1
176.00,143.73,1
163.00,139.67,1
42.00,136.46,1
242.00,133.55,1
39.00,131.60,1
216.00,130.19,1
127.00,129.76,1
754.00,135.21,1
115.00,149.36,1
161.00,164.64,1
115.00,175.33,1
82.00,181.53,1
477.00,186.49,1
142.00,193.80,1
147.00,200.45,1
61.00,202.99,1
198.00,202.04,1
154.00,199.69,1
96.00,196.25,1
59.00,190.47,1
97.00,182.33,1
232.00,174.12,1
64.00,167.30,1
244.00,161.57,1
116.00,157.41,1
275.00,155.25,1
147.00,155.19,1
188.00,156.28,1
83.00,156.95,1
142.00,156.36,1
73.00,154.34,1
70.00,150.65,1
57.00,145.08,1
234.00,139.49,1
65.00,135.52,1
175.00,132.48,1
208.00,130.95,1
156.00,131.65,1
138.00,133.27,1
99.00,134.49,1
98.00,134.55,1
181.00,134.07,1
187.00,134.65,1
298.00,137.68,1
185.00,143.43,1
235.00,150.56,1
198.00,158.05,1
145.00,164.94,1
42.00,169.06,1
70.00,169.05,1
107.00,165.81,1
158.00,161.50,1
57.00,156.84,1
129.00,151.44,1
96.00,145.71,1
657.00,144.62,1
44.00,150.98,1
75.00,157.61,1
73.00,159.62,1
44.00,158.03,1
134.00,154.02,1
60.00,148.94,1
108.00,143.14,1
283.00,138.62,1
234.00,138.15,1
97.00,140.24,1
148.00,141.95,1
43.00,142.16,1
96.00,140.35,1
48.00,136.67,1
143.00,132.11,1
157.00,128.34,1
109.00,125.92,1
53.00,123.45,1
295.00,121.72,1
172.00,123.13,1
206.00,127.12,1
83.00,131.47,1
127.00,134.54,1
112.00,136.15,1
54.00,136.19,1
153.00,134.79,1
127.00,133.30,1
95.00,131.91,1
316.00,131.73,1
323.00,135.92,1
313.00,145.22,1
181.00,156.85,1
454.00,169.83,1
41.00,183.42,1
147.00,193.30,1
261.00,199.37,1
124.00,203.93,1
288.00,207.25,1
55.00,209.15,1
197.00,208.58,1
77.00,205.57,1
186.00,200.93,1
210.00,196.19,1
172.00,192.55,1
36.00,188.28,1
129.00,181.87,1
69.00,173.95,1
225.00,166.25,1
452.00,162.93,1
158.00,165.75,1
37.00,169.08,1
224.00,169.79,1
264.00,170.91,1
75.00,172.96,1
106.00,173.08,1
184.00,171.32,1
64.00,168.75,1
52.00,164.22,1
431.00,160.29,1
492.00,163.67,1
174.00,174.02,1
106.00,183.96,1
275.00,190.88,1
55.00,195.69,1
53.00,196.49,1
107.00,192.78,1
341.00,188.61,1
148.00,186.95,1
193.00,186.38,1
110.00,185.11,1
124.00,182.45,1
115.00,178.29,1
441.00,175.81,1
54.00,176.82,1
74.00,176.87,1
92.00,173.49,1
240.00,169.29,1
60.00,165.73,1
87.00,161.25,1
54.00,154.89,1
83.00,147.21,1
53.00,138.74,1
158.00,130.59,1
178.00,124.61,1
405.00,123.56,1
156.00,128.17,1
129.00,134.44,1
51.00,138.58,1
249.00,141.12,1
237.00,144.87,1
94.00,149.72,1
101.00,152.79,1
77.00,153.14,1
135.00,151.55,1
68.00,148.75,1
127.00,144.99,1
252.00,142.09,1
50.00,140.82,1
190.00,139.68,1
251.00,139.84,1
105.00,141.92,1
127.00,143.68,1
123.00,144.23,1
102.00,143.81,1
328.00,144.15,1
88.00,146.66,1
234.00,149.81,1
127.00,152.90,1
67.00,154.77,1
400.00,156.54,1
41.00,160.22,1
208.00,163.42,1
306.00,166.75,1
75.00,171.16,1
104.00,173.47,1
58.00,172.29,1
124.00,168.55,1
41.00,163.01,1
191.00,156.69,1
118.00,151.19,1
82.00,146.21,1
54.00,140.38,1
128.00,133.95,1
38.00,127.50,1
58.00,120.55,1
51.00,112.98,1
43.00,105.16,1
98.00,97.69,1
117.00,91.73,1
204.00,88.60,1
38.00,87.93,1
64.00,87.36,1
195.00,87.02,1
38.00,87.95,1
138.00,89.12,1
254.00,91.75,1
68.00,96.62,1
266.00,102.54,1
421.00,112.09,1
142.00,125.97,1
194.00,139.78,1
158.00,151.34,1
78.00,160.00,1
132.00,164.99,1
65.00,166.65,1
95.00,165.36,1
74.00,161.60,1
185.00,156.93,1
424.00,155.34,1
388.00,160.70,1
67.00,169.95,1
54.00,176.09,1
226.00,178.26,1
329.00,180.91,1
222.00,186.08,1
76.00,190.89,1
82.00,192.02,1
242.00,190.52,1
264.00,189.95,1
168.00,190.98,1
121.00,191.40,1
38.00,189.09,1
261.00,184.87,1
246.00,182.21,1
96.00,181.19,1
51.00,178.46,1
331.00,174.88,1
392.00,175.48,1
70.00,179.90,1
96.00,182.50,1
38.00,180.95,1
204.00,176.92,1
199.00,173.33,1
271.00,172.12,1
239.00,173.60,1
854.00,182.25,1
274.00,201.28,1
185.00,222.24,1
124.00,237.16,1
65.00,244.78,1
238.00,246.57,1
258.00,246.39,1
67.00,244.89,1
109.00,239.75,1
266.00,232.46,1
120.00,225.53,1
152.00,218.25,1
241.00,211.00,1
289.00,206.14,1
132.00,203.50,1
299.00,201.81,1
335.00,202.68,1
539.00,209.15,1
382.00,221.99,1
238.00,237.14,1
253.00,249.99,1
743.00,263.79,1
337.00,282.69,1
346.00,302.28,1
258.00,317.81,1
220.00,328.03,1
951.00,338.60,1
200.00,354.60,1
452.00,369.95,1
1023.00,386.98,1
327.00,410.54,1
111.00,429.62,1
155.00,435.78,1
43.00,429.87,1
104.00,414.02,1
529.00,394.75,1
439.00,380.28,1
381.00,371.46,1
108.00,363.29,1
53.00,350.44,1
958.00,338.78,1
138.00,336.10,1
230.00,335.06,1
148.00,329.33,1
68.00,319.00,1
361.00,305.89,1
148.00,293.57,1
173.00,281.35,1
226.00,268.71,1
146.00,256.59,1
228.00,245.06,1
171.00,234.58,1
118.00,224.55,1
168.00,214.25,1
85.00,203.80,1
36.00,192.23,1
126.00,179.43,1
299.00,168.62,1
78.00,161.46,1
65.00,154.98,1
74.00,147.26,1
290.00,140.67,1
127.00,137.47,1
164.00,136.36,1
285.00,137.11,1
132.00,140.32,1
60.00,143.14,1
268.00,144.85,1
374.00,149.38,1
160.00,157.62,1
244.00,166.44,1
74.00,173.61,1
102.00,177.40,1
92.00,177.47,1
255.00,176.12,1
96.00,175.05,1
200.00,173.78,1
590.00,176.05,1
200.00,185.04,1
63.00,194.50,1
243.00,199.96,1
52.00,202.46,1
106.00,201.36,1
156.00,197.37,1
46.00,191.65,1
427.00,186.55,1
387.00,187.10,1
190.00,192.81,1
310.00,199.68,1
86.00,205.71,1
123.00,208.50,1
140.00,207.59,1
275.00,205.63,1
142.00,204.21,1
589.00,205.88,1
235.00,213.18,1
159.00,221.76,1
62.00,226.06,1
228.00,226.09,1
39.00,223.21,1
41.00,216.54,1
127.00,206.38,1
34.00,194.57,1
209.00,182.50,1
163.00,172.37,1
142.00,164.57,1
65.00,157.42,1
94.00,149.81,1
42.00,141.50,1
70.00,132.54,1
236.00,124.81,1
243.00,121.32,1
167.00,122.01,1
106.00,124.16,1
140.00,125.98,1
169.00,127.79,1
170.00,130.30,1
239.00,134.10,1
233.00,139.83,1
194.00,147.01,1
510.00,156.95,1
164.00,170.72,1
68.00,183.03,1
589.00,193.68,1
113.00,206.58,1
158.00,217.60,1
357.00,225.26,1
143.00,232.02,1
300.00,237.29,1
428.00,243.12,1
69.00,249.67,1
304.00,253.57,1
50.00,254.17,1
61.00,250.01,1
103.00,240.84,1
220.00,229.91,1
60.00,218.96,1
250.00,208.27,1
84.00,198.58,1
73.00,188.69,1
228.00,178.73,1
186.00,171.15,1
107.00,165.58,1
129.00,160.25,1
127.00,154.95,1
116.00,149.94,1
341.00,146.97,1
168.00,147.84,1
323.00,151.90,1
293.00,159.17,1
143.00,168.15,1
123.00,175.20,1
150.00,179.23,1
40.00,180.18,1
302.00,179.32,1
120.00,179.07,1
268.00,179.66,1
91.00,180.34,1
149.00,179.84,1
82.00,177.39,1
79.00,172.92,1
70.00,166.31,1
322.00,160.26,1
163.00,157.64,1
115.00,156.77,1
522.00,158.49,1
161.00,165.51,1
222.00,174.24,1
62.00,180.63,1
193.00,183.96,1
123.00,185.12,1
247.00,185.55,1
173.00,186.28,1
241.00,187.56,1
99.00,188.57,1
340.00,189.54,1
92.00,191.21,1
208.00,192.21,1
282.00,193.14,1
82.00,194.52,1
74.00,193.39,1
260.00,190.20,1
212.00,188.15,1
193.00,187.62,1
51.00,186.37,1
127.00,182.74,1
201.00,178.11,1
152.00,174.34,1
119.00,170.87,1
216.00,167.59,1
151.00,165.37,1
55.00,162.95,1
375.00,160.98,1
53.00,161.26,1
265.00,162.31,1
73.00,163.17,1
282.00,164.15,1
101.00,165.58,1
151.00,166.44,1
194.00,166.53,1
174.00,166.98,1
74.00,166.90,1
382.00,167.14,1
383.00,171.97,1
140.00,180.63,1
89.00,187.44,1
213.00,190.77,1
334.00,194.01,1
173.00,198.77,1
52.00,201.86,1
155.00,201.12,1
231.00,198.81,1
242.00,197.59,1
410.00,199.44,1
82.00,203.74,1
94.00,205.78,1
112.00,203.66,1
53.00,198.37,1
70.00,190.20,1
271.00,181.53,1
246.00,176.05,1
112.00,173.29,1
45.00,169.73,1
189.00,164.62,1
91.00,159.54,1
217.00,155.26,1
154.00,152.50,1
103.00,150.56,1
43.00,147.43,1
201.00,143.39,1
238.00,141.24,1
53.00,140.98,1
109.00,139.86,1
143.00,137.81,1
103.00,135.81,1
52.00,133.11,1
90.00,129.11,1
35.00,124.01,1
87.00,118.06,1
146.00,112.58,1
189.00,109.39,1
194.00,109.32,1
127.00,111.47,1
84.00,113.82,1
87.00,115.00,1
61.00,114.70,1
153.00,113.67,1
39.00,112.49,1
358.00,112.75,1
452.00,119.22,1
154.00,131.94,1
91.00,144.30,1
133.00,152.79,1
577.00,161.89,1
87.00,174.89,1
142.00,186.36,1
70.00,192.57,1
110.00,194.12,1
111.00,192.18,1
158.00,188.41,1
184.00,184.37,1
54.00,179.99,1
60.00,173.59,1
84.00,165.15,1
41.00,155.48,1
118.00,145.32,1
68.00,135.65,1
70.00,126.48,1
74.00,117.67,1
141.00,110.05,1
162.00,104.90,1
180.00,102.85,1
41.00,102.54,1
75.00,101.70,1
57.00,99.75,1
151.00,97.78,1
86.00,96.73,1
154.00,96.67,1
947.00,104.70,1
304.00,126.75,1
74.00,152.77,1
133.00,172.27,1
115.00,185.15,1
153.00,193.11,1
57.00,196.68,1
135.00,196.23,1
87.00,192.85,1
145.00,187.67,1
67.00,181.18,1
191.00,174.13,1
39.00,167.05,1
307.00,160.91,1
64.00,156.84,1
65.00,152.69,1
72.00,146.65,1
104.00,139.81,1
39.00,132.62,1
49.00,124.69,1
48.00,116.05,1
57.00,107.33,1
138.00,99.62,1
199.00,94.88,1
77.00,93.21,1
168.00,93.17,1
90.00,94.21,1
72.00,95.37,1
77.00,95.66,1
71.00,95.18,1
48.00,93.86,1
231.00,93.04,1
127.00,94.61,1
137.00,97.80,1
216.00,102.09,1
111.00,107.61,1
246.00,113.90,1
54.00,120.35,1
79.00,124.84,1
140.00,127.02,1
129.00,128.49,1
59.00,129.14,1
72.00,127.99,1
123.00,125.55,1
714.00,128.10,1
175.00,140.12,1
306.00,156.07,1
73.00,170.14,1
86.00,179.64,1
110.00,183.79,1
360.00,186.38,1
269.00,191.28,1
101.00,196.96,1
293.00,201.08,1
123.00,204.25,1
219.00,206.17,1
334.00,208.21,1
140.00,211.37,1
323.00,214.54,1
263.00,218.54,1
72.00,221.96,1
304.00,223.04,1
45.00,222.47,1
393.00,221.19,1
38.00,220.08,1
41.00,216.17,1
55.00,207.48,1
265.00,197.42,1
176.00,189.55,1
161.00,183.73,1
127.00,178.40,1
86.00,172.60,1
60.00,165.46,1
38.00,156.53,1
44.00,146.07,1
53.00,134.78,1
63.00,123.52,1
282.00,114.71,1
192.00,111.02,1
168.00,111.47,1
192.00,114.12,1
234.00,118.88,1
295.00,126.48,1
168.00,136.31,1
192.00,146.08,1
148.00,154.46,1
313.00,162.35,1
129.00,170.45,1
191.00,177.26,1
138.00,181.91,1
172.00,184.72,1
410.00,188.12,1
194.00,194.32,1
57.00,199.67,1
113.00,200.62,1
65.00,197.61,1
430.00,194.35,1
122.00,194.09,1
315.00,195.64,1
119.00,197.56,1
180.00,198.54,1
148.00,197.90,1
174.00,196.22,1
187.00,194.10,1
95.00,191.38,1
157.00,187.38,1
49.00,181.92,1
87.00,174.60,1
406.00,168.46,1
402.00,169.06,1
90.00,174.68,1
301.00,180.48,1
434.00,188.22,1
232.00,199.50,1
62.00,209.41,1
132.00,214.01,1
45.00,213.48,1
235.00,209.79,1
201.00,205.96,1
80.00,202.17,1
69.00,196.14,1
77.00,187.54,1
57.00,177.12,1
86.00,165.66,1
127.00,154.39,1
38.00,143.86,1
109.00,133.66,1
94.00,124.39,1
101.00,116.52,1
205.00,110.83,1
79.00,107.71,1
136.00,105.90,1
127.00,104.97,1
150.00,105.26,1
285.00,107.87,1
40.00,112.57,1
275.00,117.72,1
56.00,123.09,1
129.00,127.36,1
69.00,129.56,1
202.00,130.82,1
79.00,132.01,1
131.00,132.62,1
36.00,131.80,1
130.00,129.56,1
179.00,127.50,1
115.00,126.72,1
72.00,125.91,1
136.00,124.39,1
158.00,123.28,1
240.00,124.06,1
67.00,126.37,1
77.00,127.68,1
232.00,128.20,1
65.00,129.36,1
146.00,130.16,1
40.00,129.74,1
64.00,127.53,1
63.00,123.52,1
143.00,119.12,1
203.00,116.42,1
346.00,117.95,1
58.00,123.15,1
97.00,127.65,1
255.00,131.04,1
126.00,135.37,1
85.00,139.07,1
323.00,142.40,1
41.00,146.64,1
48.00,148.74,1
649.00,151.92,1
178.00,162.04,1
201.00,174.37,1
70.00,183.33,1
134.00,187.94,1
388.00,191.22,1
60.00,195.42,1
89.00,197.04,1
176.00,195.17,1
98.00,191.73,1
230.00,187.73,1
352.00,186.00,1
111.00,187.19,1
167.00,188.03,1
108.00,187.00,1
178.00,184.68,1
123.00,181.66,1
122.00,177.85,1
118.00,173.09,1
76.00,167.30,1
187.00,161.13,1
64.00,155.36,1
595.00,153.43,1
84.00,157.95,1
264.00,164.65,1
181.00,170.86,1
77.00,175.74,1
188.00,177.94,1
263.00,179.65,1
48.00,181.31,1
169.00,180.92,1
99.00,178.67,1
42.00,174.42,1
132.00,168.02,1
192.00,161.71,1
132.00,156.94,1
256.00,154.03,1
81.00,152.71,1
51.00,150.53,1
414.00,148.83,1
117.00,150.86,1
204.00,154.50,1
190.00,158.07,1
176.00,161.85,1
70.00,164.41,1
198.00,165.17,1
92.00,164.89,1
132.00,163.46,1
189.00,161.47,1
211.00,160.58,1
91.00,160.41,1
75.00,158.83,1
89.00,155.10,1
43.00,149.55,1
48.00,142.21,1
254.00,135.18,1
38.00,130.30,1
170.00,126.41,1
162.00,123.74,1
180.00,123.21,1
44.00,123.42,1
92.00,122.49,1
309.00,122.17,1
98.00,124.60,1
63.00,127.02,1
103.00,127.32,1
148.00,126.78,1
169.00,126.87,1
445.00,130.48,1
187.00,139.26,1
151.00,149.37,1
60.00,156.62,1
156.00,160.46,1
227.00,163.03,1
63.00,165.14,1
78.00,164.83,1
134.00,162.05,1
80.00,158.06,1
320.00,154.88,1
36.00,153.61,1
117.00,151.76,1
100.00,148.39,1
210.00,145.27,1
143.00,143.59,1
45.00,142.04,1
54.00,138.49,1
76.00,133.09,1
130.00,127.34,1
151.00,122.80,1
87.00,119.59,1
136.00,117.01,1
59.00,114.63,1
128.00,112.18,1
86.00,109.93,1
104.00,107.92,1
112.00,106.18,1
126.00,105.10,1
182.00,105.35,1
194.00,107.72,1
219.00,112.50,1
120.00,118.66,1
198.00,124.85,1
157.00,130.99,1
165.00,136.94,1
49.00,141.35,1
298.00,144.67,1
96.00,148.54,1
97.00,151.41,1
62.00,151.44,1
328.00,151.00,1
90.00,152.36,1
140.00,153.71,1
154.00,153.98,1
65.00,153.32,1
91.00,150.80,1
79.00,146.58,1
299.00,143.06,1
220.00,143.13,1
132.00,145.68,1
54.00,147.25,1
259.00,147.67,1
86.00,148.56,1
262.00,150.05,1
215.00,153.09,1
164.00,157.42,1
179.00,161.48,1
96.00,164.33,1
47.00,164.50,1
160.00,162.05,1
101.00,158.70,1
91.00,154.66,1
42.00,149.14,1
70.00,142.02,1
94.00,134.18,1
86.00,126.62,1
67.00,119.45,1
39.00,112.20,1
137.00,105.31,1
130.00,100.25,1
137.00,97.53,1
53.00,96.02,1
150.00,94.95,1
172.00,95.36,1
89.00,97.34,1
88.00,99.24,1
408.00,103.00,1
192.00,111.53,1
165.00,122.23,1
105.00,131.50,1
125.00,138.33,1
144.00,143.07,1
96.00,146.16,1
146.00,147.65,1
265.00,149.30,1
58.00,151.67,1
120.00,152.57,1
138.00,151.83,1
160.00,150.84,1
129.00,149.95,1
204.00,149.46,1
216.00,150.36,1
192.00,152.93,1
399.00,158.11,1
65.00,165.53,1
101.00,170.90,1
41.00,171.89,1
69.00,169.06,1
75.00,163.38,1
38.00,155.75,1
279.00,148.35,1
122.00,143.79,1
127.00,140.94,1
141.00,138.38,1
388.00,138.45,1
72.00,142.07,1
126.00,145.56,1
41.00,146.44,1
73.00,144.60,1
188.00,141.53,1
335.00,141.04,1
127.00,144.15,1
285.00,148.96,1
225.00,155.33,1
146.00,162.32,1
82.00,167.22,1
336.00,170.76,1
67.00,174.60,1
128.00,176.69,1
74.00,175.71,1
126.00,172.45,1
95.00,167.75,1
43.00,161.60,1
140.00,154.20,1
66.00,146.70,1
198.00,140.04,1
167.00,135.53,1
42.00,132.38,1
57.00,128.15,1
304.00,124.50,1
64.00,123.63,1
101.00,123.27,1
166.00,122.51,1
49.00,121.85,1
203.00,121.19,1
180.00,121.93,1
125.00,124.14,1
66.00,125.81,1
191.00,126.62,1
83.00,127.43,1
198.00,128.43,1
89.00,129.65,1
201.00,131.05,1
98.00,132.66,1
111.00,133.69,1
250.00,134.77,1
145.00,137.38,1
212.00,141.06,1
60.00,144.39,1
225.00,146.75,1
111.00,148.82,1
92.00,149.93,1
182.00,149.75,1
276.00,150.72,1
70.00,153.11,1
60.00,153.80,1
53.00,151.24,1
202.00,147.36,1
212.00,145.07,1
169.00,145.10,1
150.00,146.13,1
195.00,147.58,1
62.00,148.77,1
220.00,149.21,1
69.00,149.33,1
150.00,148.68,1
150.00,147.57,1
183.00,147.07,1
50.00,146.51,1
192.00,145.16,1
65.00,143.45,1
238.00,142.04,1
50.00,141.16,1
113.00,139.55,1
185.00,137.52,1
82.00,136.11,1
71.00,134.00,1
36.00,130.11,1
212.00,125.79,1
45.00,122.52,1
154.00,119.76,1
72.00,117.22,1
124.00,114.89,1
195.00,113.59,1
40.00,113.42,1
182.00,113.32,1
227.00,114.71,1
134.00,118.33,1
99.00,122.08,1
78.00,124.28,1
162.00,125.28,1
208.00,126.93,1
162.00,130.10,1
148.00,133.82,1
328.00,138.73,1
96.00,145.30,1
266.00,151.97,1
76.00,157.84,1
164.00,161.89,1
171.00,164.36,1
106.00,165.85,1
218.00,166.47,1
152.00,167.17,1
76.00,167.11,1
227.00,165.94,1
63.00,164.47,1
84.00,161.54,1
97.00,156.66,1
195.00,151.68,1
47.00,147.29,1
95.00,142.26,1
127.00,136.74,1
130.00,131.97,1
168.00,128.58,1
169.00,127.02,1
190.00,127.38,1
211.00,129.71,1
66.00,132.81,1
144.00,134.79,1
147.00,135.99,1
214.00,137.79,1
174.00,140.78,1
91.00,143.80,1
135.00,145.40,1
219.00,146.61,1
77.00,148.06,1
127.00,148.40,1
66.00,147.03,1
199.00,144.92,1
140.00,143.53,1
56.00,142.14,1
74.00,139.08,1
42.00,134.17,1
138.00,128.45,1
192.00,124.07,1
94.00,121.74,1
49.00,119.49,1
67.00,115.97,1
178.00,112.44,1
43.00,109.91,1
135.00,107.64,1
241.00,106.95,1
133.00,109.11,1
72.00,111.93,1
139.00,113.81,1
154.00,115.65,1
190.00,118.49,1
57.00,121.63,1
158.00,123.80,1
284.00,126.80,1
180.00,132.38,1
190.00,139.12,1
51.00,144.69,1
77.00,147.19,1
236.00,147.86,1
166.00,149.40,1
92.00,151.09,1
113.00,151.20,1
301.00,151.39,1
256.00,154.59,1
41.00,158.98,1
82.00,160.50,1
93.00,158.77,1
135.00,155.54,1
45.00,151.29,1
106.00,145.80,1
60.00,139.42,1
253.00,133.92,1
139.00,131.16,1
224.00,130.96,1
82.00,132.02,1
112.00,132.60,1
91.00,131.93,1
220.00,131.31,1
133.00,132.00,1
139.00,133.32,1
277.00,135.64,1
202.00,140.33,1
108.00,145.79,1
109.00,149.45,1
135.00,151.09,1
93.00,151.23,1
108.00,149.87,1
86.00,147.14,1
207.00,144.22,1
250.00,143.46,1
122.00,145.00,1
127.00,146.51,1
112.00,146.83,1
105.00,145.98,1
80.00,143.83,1
35.00,139.89,1
93.00,134.26,1
164.00,128.73,1
39.00,124.08,1
37.00,118.74,1
73.00,112.29,1
178.00,106.66,1
78.00,103.06,1
159.00,100.99,1
166.00,100.73,1
224.00,103.15,1
185.00,108.21,1
167.00,114.76,1
74.00,120.86,1
480.00,128.08,1
172.00,139.30,1
95.00,150.85,1
135.00,158.73,1
260.00,164.63,1
193.00,170.71,1
102.00,175.86,1
48.00,177.63,1
39.00,174.97,1
140.00,169.35,1
233.00,164.05,1
123.00,160.63,1
74.00,157.29,1
81.00,152.46,1
68.00,146.23,1
127.00,139.48,1
127.00,133.46,1
175.00,129.06,1
235.00,127.36,1
80.00,127.85,1
104.00,128.12,1
178.00,127.94,1
135.00,128.49,1
99.00,129.18,1
186.00,129.73,1
336.00,132.53,1
66.00,137.97,1
99.00,142.23,1
104.00,143.81,1
239.00,144.76,1
255.00,147.62,1
50.00,151.51,1
130.00,153.45,1
80.00,153.06,1
85.00,150.80,1
83.00,146.84,1
164.00,142.40,1
62.00,138.22,1
52.00,133.29,1
66.00,127.04,1
82.00,120.30,1
151.00,114.34,1
250.00,111.28,1
59.00,111.16,1
127.00,111.49,1
108.00,111.53,1
45.00,111.08,1
109.00,109.59,1
194.00,108.63,1
127.00,109.46,1
134.00,111.29,1
210.00,114.01,1
112.00,117.82,1
224.00,122.27,1
218.00,128.05,1
54.00,134.11,1
89.00,137.70,1
178.00,139.28,1
140.00,140.70,1
105.00,141.79,1
201.00,142.48,1
115.00,143.44,1
124.00,144.01,1
53.00,143.11,1
109.00,140.49,1
83.00,136.74,1
105.00,132.52,1
81.00,128.02,1
146.00,123.78,1
199.00,121.19,1
191.00,121.30,1
88.00,122.92,1
281.00,125.44,1
105.00,129.44,1
202.00,133.93,1
186.00,138.67,1
48.00,142.83,1
40.00,143.92,1
220.00,142.86,1
77.00,141.93,1
237.00,141.58,1
80.00,141.86,1
70.00,141.24,1
94.00,138.69,1
125.00,135.33,1
93.00,131.92,1
131.00,128.61,1
121.00,125.78,1
83.00,123.24,1
109.00,120.50,1
85.00,117.63,1
66.00,114.40,1
175.00,111.41,1
113.00,109.81,1
102.00,109.13,1
82.00,108.29,1
68.00,106.84,1
60.00,104.50,1
224.00,102.67,1
102.00,102.92,1
210.00,104.97,1
52.00,107.82,1
65.00,109.55,1
178.00,110.21,1
78.00,111.20,1
110.00,111.94,1
140.00,112.42,1
77.00,112.93,1
68.00,112.58,1
281.00,112.68,1
57.00,114.72,1
54.00,116.20,1
91.00,115.58,1
128.00,114.29,1
180.00,113.89,1
60.00,114.35,1
99.00,114.21,1
127.00,113.51,1
99.00,112.96,1
165.00,112.86,1
121.00,113.59,1
86.00,114.47,1
85.00,114.46,1
61.00,113.30,1
174.00,111.82,1
114.00,111.32,1
123.00,111.60,1
69.00,111.66,1
250.00,112.25,1
198.00,115.31,1
253.00,121.27,1
81.00,128.29,1
326.00,135.50,1
145.00,143.75,1
143.00,151.54,1
280.00,158.33,1
44.00,164.42,1
57.00,167.10,1
204.00,166.60,1
368.00,167.60,1
228.00,172.51,1
43.00,177.70,1
112.00,179.27,1
90.00,177.50,1
369.00,175.75,1
151.00,176.70,1
128.00,178.18,1
122.00,177.80,1
46.00,175.08,1
50.00,169.44,1
153.00,162.04,1
104.00,154.86,1
179.00,148.74,1
177.00,144.46,1
55.00,141.29,1
82.00,137.26,1
104.00,132.34,1
108.00,127.52,1
44.00,122.63,1
230.00,118.39,1
88.00,116.13,1
49.00,114.34,1
66.00,111.27,1
134.00,107.86,1
76.00,105.09,1
153.00,103.14,1
143.00,102.60,1
102.00,103.25,1
97.00,104.01,1
128.00,104.65,1
104.00,105.46,1
54.00,105.81,1
83.00,105.00,1
197.00,104.36,1
44.00,104.74,1
87.00,104.63,1
313.00,105.47,1
183.00,110.01,1
187.00,116.96,1
131.00,124.07,1
80.00,129.75,1
71.00,132.76,1
168.00,133.86,1
131.00,134.72,1
316.00,137.07,1
71.00,141.20,1
58.00,143.93,1
84.00,143.51,1
166.00,141.68,1
104.00,139.91,1
113.00,137.96,1
167.00,136.02,1
219.00,135.58,1
46.00,136.14,1
152.00,135.90,1
92.00,134.87,1
127.00,133.46,1
79.00,131.48,1
203.00,129.67,1
332.00,130.77,1
100.00,135.28,1
44.00,138.99,1
95.00,139.51,1
83.00,137.89,1
58.00,134.74,1
108.00,130.43,1
184.00,126.63,1
45.00,123.85,1
127.00,120.97,1
106.00,118.12,1
60.00,115.35,1
133.00,112.40,1
41.00,109.47,1
68.00,105.97,1
413.00,104.67,1
213.00,109.33,1
118.00,117.14,1
71.00,123.49,1
54.00,126.81,1
184.00,128.15,1
126.00,129.47,1
153.00,131.05,1
65.00,132.04,1
96.00,131.53,1
128.00,129.99,1
77.00,128.07,1
86.00,125.42,1
172.00,122.74,1
130.00,121.28,1
193.00,121.32,1
189.00,123.19,1
92.00,126.02,1
509.00,131.28,1
111.00,140.99,1
76.00,150.37,1
125.00,155.76,1
41.00,157.73,1
47.00,156.08,1
127.00,151.83,1
138.00,147.21,1
368.00,145.19,1
278.00,148.40,1
40.00,153.90,1
36.00,156.25,1
136.00,154.92,1
105.00,152.19,1
105.00,148.82,1
101.00,144.77,1
55.00,139.88,1
186.00,134.82,1
240.00,132.03,1
334.00,133.84,1
164.00,139.65,1
111.00,145.84,1
147.00,150.11,1
39.00,152.08,1
212.00,152.15,1
91.00,151.75,1
43.00,150.03,1
82.00,145.88,1
37.00,139.92,1
75.00,132.64,1
48.00,124.65,1
141.00,117.03,1
40.00,110.43,1
120.00,104.58,1
92.00,99.75,1
160.00,96.63,1
40.00,94.81,1
78.00,92.92,1
70.00,90.60,1
149.00,88.88,1
158.00,88.99,1
254.00,92.12,1
104.00,97.84,1
136.00,103.90,1
150.00,109.42,1
168.00,114.99,1
117.00,120.41,1
204.00,125.56,1
79.00,130.31,1
79.00,133.25,1
206.00,134.72,1
224.00,137.30,1
188.00,141.69,1
131.00,146.39,1
66.00,149.39,1
63.00,149.42,1
64.00,146.59,1
49.00,141.57,1
128.00,135.45,1
67.00,129.40,1
47.00,123.06,1
70.00,116.08,1
47.00,108.87,1
45.00,101.49,1
112.00,94.58,1
44.00,88.80,1
285.00,85.49,1
182.00,86.74,1
189.00,91.72,1
98.00,97.93,1
105.00,103.46,1
148.00,108.02,1
218.00,113.04,1
32.00,118.21,1
69.00,121.12,1
87.00,121.44,1
172.00,121.10,1
163.00,121.75,1
180.00,123.82,1
102.00,126.46,1
128.00,128.52,1
96.00,129.58,1
124.00,129.76,1
170.00,129.86,1
136.00,130.60,1
130.00,131.58,1
91.00,132.00,1
127.00,131.59,1
185.00,131.30,1
144.00,132.04,1
129.00,133.22,1
257.00,135.15,1
171.00,138.90,1
179.00,143.58,1
62.00,147.29,1
322.00,150.40,1
381.00,156.77,1
175.00,166.86,1
89.00,175.79,1
112.00,180.60,1
44.00,181.23,1
64.00,177.86,1
84.00,171.51,1
189.00,164.50,1
125.00,158.59,1
48.00,152.87,1
81.00,145.96,1
54.00,138.07,1
166.00,130.43,1
99.00,124.32,1
79.00,119.23,1
110.00,114.45,1
60.00,110.00,1
71.00,105.47,1
37.00,100.51,1
47.00,94.98,1
104.00,89.59,1
151.00,85.88,1
108.00,84.49,1
112.00,84.60,1
211.00,86.37,1
58.00,89.78,1
200.00,93.77,1
112.00,98.41,1
44.00,102.56,1
80.00,104.63,1
237.00,106.39,1
169.00,110.23,1
222.00,116.09,1
37.00,122.08,1
122.00,126.05,1
71.00,127.80,1
68.00,127.64,1
181.00,126.50,1
103.00,125.86,1
164.00,125.77,1
139.00,126.25,1
90.00,126.85,1
110.00,126.65,1
45.00,125.25,1
75.00,122.28,1
56.00,118.06,1
122.00,113.50,1
85.00,109.47,1
168.00,106.59,1
221.00,106.17,1
108.00,108.27,1
123.00,110.92,1
101.00,113.03,1
117.00,114.54,1
121.00,115.68,1
43.00,116.03,1
67.00,114.72,1
210.00,113.13,1
215.00,113.99,1
46.00,116.55,1
103.00,118.03,1
264.00,119.51,1
127.00,122.96,1
148.00,127.02,1
264.00,131.59,1
75.00,136.93,1
47.00,140.27,1
64.00,140.07,1
62.00,137.24,1
134.00,133.20,1
81.00,129.12,1
71.00,124.78,1
87.00,119.92,1
174.00,115.72,1
50.00,112.72,1
53.00,109.41,1
185.00,106.08,1
119.00,104.53,1
103.00,104.24,1
72.00,103.85,1
44.00,102.52,1
118.00,100.41,1
157.00,99.10,1
37.00,98.70,1
131.00,98.13,1
161.00,98.25,1
154.00,100.11,1
44.00,102.46,1
97.00,103.65,1
74.00,103.71,1
198.00,103.98,1
94.00,105.41,1
52.00,106.63,1
50.00,106.07,1
290.00,105.79,1
103.00,108.15,1
65.00,111.02,1
77.00,112.08,1
107.00,111.87,1
59.00,110.91,1
44.00,108.72,1
63.00,105.19,1
78.00,101.07,1
53.00,96.84,1
63.00,92.46,1
98.00,88.36,1
123.00,85.49,1
38.00,83.65,1
82.00,81.80,1
181.00,80.86,1
110.00,82.04,1
201.00,85.19,1
229.00,90.88,1
129.00,98.75,1
228.00,107.38,1
52.00,115.65,1
158.00,122.16,1
156.00,127.40,1
45.00,131.42,1
84.00,132.85,1
76.00,131.92,1
161.00,130.12,1
166.00,129.11,1
133.00,129.26,1
186.00,130.21,1
114.00,131.75,1
46.00,132.36,1
233.00,132.08,1
104.00,132.59,1
51.00,132.66,1
148.00,131.24,1
62.00,129.20,1
48.00,126.03,1
94.00,121.50,1
74.00,116.61,1
107.00,111.92,1
80.00,107.69,1
65.00,103.66,1
68.00,99.46,1
76.00,95.27,1
80.00,91.41,1
201.00,89.07,1
133.00,89.43,1
61.00,91.13,1
120.00,92.50,1
71.00,93.56,1
183.00,94.96,1
143.00,97.69,1
276.00,102.71,1
47.00,109.29,1
85.00,114.44,1
45.00,116.71,1
51.00,116.41,1
86.00,114.25,1
334.00,113.44,1
52.00,115.76,1
108.00,118.22,1
155.00,119.67,1
102.00,121.11,1
82.00,121.85,1
56.00,121.03,1
121.00,118.99,1
155.00,117.25,1
44.00,115.98,1
62.00,113.70,1
42.00,109.95,1
57.00,105.13,1
135.00,100.39,1
126.00,97.22,1
107.00,95.67,1
115.00,95.09,1
101.00,95.13,1
98.00,95.44,1
174.00,96.42,1
224.00,99.52,1
214.00,105.47,1
98.00,112.70,1
36.00,118.15,1
103.00,120.65,1
84.00,121.27,1
97.00,120.77,1
46.00,119.07,1
86.00,116.12,1
48.00,112.24,1
53.00,107.51,1
42.00,101.99,1
85.00,96.25,1
132.00,91.55,1
89.00,88.57,1
66.00,86.49,1
158.00,85.17,1
116.00,85.47,1
94.00,86.86,1
58.00,88.04,1
60.00,88.26,1
51.00,87.39,1
337.00,87.99,1
93.00,92.29,1
47.00,97.21,1
156.00,100.57,1
43.00,103.13,1
114.00,104.59,1
103.00,105.34,1
95.00,105.86,1
194.00,106.78,1
69.00,108.51,1
264.00,111.16,1
62.00,114.94,1
114.00,118.15,1
112.00,120.02,1
45.00,120.61,1
104.00,119.62,1
207.00,118.72,1
115.00,119.33,1
48.00,119.86,1
157.00,119.35,1
78.00,118.66,1
56.00,117.24,1
170.00,115.27,1
131.00,114.32,1
427.00,116.89,1
258.00,125.30,1
85.00,136.03,1
156.00,144.51,1
165.00,150.83,1
127.00,155.70,1
74.00,158.32,1
172.00,158.75,1
127.00,158.34,1
298.00,158.78,1
185.00,161.36,1
215.00,165.30,1
102.00,168.75,1
100.00,170.10,1
146.00,169.20,1
114.00,167.10,1
368.00,166.12,1
103.00,167.75,1
86.00,168.90,1
294.00,168.89,1
306.00,171.39,1
127.00,176.18,1
50.00,179.04,1
136.00,178.29,1
116.00,175.46,1
83.00,171.24,1
53.00,165.15,1
38.00,156.94,1
141.00,147.72,1
184.00,140.00,1
147.00,134.92,1
127.00,131.60,1
60.00,128.54,1
147.00,125.22,1
122.00,122.49,1
221.00,121.44,1
245.00,123.31,1
39.00,126.86,1
330.00,130.78,1
114.00,136.15,1
180.00,141.83,1
163.00,146.73,1
152.00,151.04,1
108.00,154.07,1
222.00,156.14,1
48.00,157.52,1
95.00,156.76,1
64.00,153.50,1
148.00,149.00,1
108.00,144.53,1
114.00,140.30,1
374.00,138.34,1
103.00,140.24,1
58.00,142.32,1
289.00,143.39,1
109.00,145.63,1
121.00,147.72,1
72.00,147.89,1
88.00,146.04,1
437.00,145.47,1
48.00,148.58,1
210.00,152.18,1
270.00,155.99,1
114.00,160.89,1
63.00,163.92,1
90.00,163.51,1
121.00,160.78,1
361.00,159.13,1
221.00,161.45,1
155.00,165.79,1
85.00,168.69,1
103.00,168.84,1
70.00,166.34,1
772.00,167.37,1
99.00,176.74,1
279.00,188.35,1
127.00,197.42,1
93.00,202.95,1
40.00,203.31,1
63.00,198.70,1
247.00,192.03,1
146.00,186.42,1
383.00,183.62,1
212.00,184.70,1
95.00,186.87,1
75.00,186.29,1
60.00,182.16,1
58.00,175.12,1
332.00,168.17,1
293.00,165.77,1
317.00,168.73,1
92.00,173.83,1
334.00,178.87,1
53.00,183.50,1
135.00,185.71,1
131.00,184.96,1
137.00,182.68,1
157.00,179.55,1
145.00,176.15,1
66.00,171.99,1
159.00,166.75,1
52.00,160.83,1
180.00,154.67,1
238.00,150.25,1
103.00,148.22,1
94.00,146.23,1
44.00,142.66,1
177.00,138.20,1
119.00,134.51,1
158.00,132.00,1
55.00,129.78,1
38.00,126.31,1
110.00,121.48,1
311.00,118.50,1
54.00,118.83,1
105.00,119.49,1
70.00,118.79,1
71.00,116.93,1
156.00,114.69,1
197.00,113.99,1
260.00,116.39,1
203.00,121.96,1
45.00,128.05,1
129.00,131.93,1
76.00,133.64,1
115.00,133.78,1
154.00,133.27,1
111.00,132.89,1
47.00,131.70,1
154.00,129.41,1
38.00,126.62,1
38.00,122.54,1
119.00,117.32,1
49.00,112.15,1
167.00,107.69,1
236.00,105.86,1
261.00,108.44,1
90.00,113.87,1
126.00,118.92,1
58.00,122.14,1
180.00,124.01,1
38.00,125.11,1
130.00,124.98,1
81.00,123.87,1
154.00,122.62,1
71.00,121.42,1
167.00,120.31,1
178.00,120.31,1
204.00,122.35,1
246.00,126.75,1
112.00,132.59,1
87.00,137.24,1
81.00,139.23,1
171.00,139.59,1
128.00,139.80,1
59.00,139.35,1
111.00,137.34,1
158.00,134.89,1
36.00,132.40,1
48.00,128.41,1
45.00,122.57,1
101.00,116.03,1
59.00,109.75,1
118.00,104.14,1
92.00,99.63,1
177.00,96.88,1
217.00,97.09,1
170.00,100.53,1
81.00,105.11,1
136.00,108.98,1
94.00,112.01,1
95.00,114.07,1
51.00,114.62,1
181.00,114.36,1
79.00,114.46,1
81.00,114.21,1
278.00,114.55,1
94.00,117.08,1
109.00,119.89,1
226.00,122.51,1
140.00,126.26,1
38.00,129.43,1
50.00,129.76,1
196.00,128.46,1
114.00,127.83,1
162.00,127.97,1
141.00,128.63,1
107.00,129.44,1
116.00,129.66,1
74.00,128.96,1
258.00,128.48,1
228.00,130.68,1
106.00,134.82,1
81.00,137.81,1
75.00,138.37,1
113.00,137.05,1
201.00,135.67,1
48.00,134.79,1
131.00,133.19,1
354.00,133.07,1
52.00,135.94,1
98.00,138.22,1
199.00,139.09,1
124.00,140.28,1
162.00,141.58,1
101.00,142.42,1
150.00,142.61,1
150.00,142.59,1
53.00,142.02,1
68.00,139.56,1
72.00,135.23,1
126.00,130.26,1
128.00,125.90,1
86.00,122.30,1
210.00,119.74,1
233.00,119.96,1
53.00,122.20,1
51.00,123.08,1
66.00,121.51,1
156.00,119.11,1
124.00,117.50,1
175.00,117.16,1
88.00,117.69,1
231.00,119.00,1
242.00,122.62,1
64.00,127.75,1
106.00,131.36,1
264.00,134.22,1
366.00,140.26,1
121.00,149.44,1
121.00,157.50,1
119.00,162.40,1
137.00,164.85,1
456.00,168.28,1
91.00,174.74,1
127.00,180.19,1
37.00,181.53,1
99.00,179.04,1
176.00,174.64,1
54.00,169.70,1
70.00,163.26,1
75.00,155.21,1
36.00,146.08,1
132.00,136.59,1
139.00,128.50,1
73.00,122.10,1
127.00,116.60,1
217.00,113.05,1
223.00,113.10,1
69.00,115.49,1
166.00,117.84,1
170.00,120.45,1
112.00,123.57,1
200.00,126.76,1
170.00,130.63,1
50.00,134.12,1
212.00,136.33,1
87.00,138.13,1
171.00,139.54,1
131.00,140.63,1
212.00,142.13,1
68.00,143.72,1
168.00,144.44,1
148.00,144.77,1
196.00,145.70,1
56.00,146.51,1
145.00,146.02,1
311.00,146.26,1
44.00,148.30,1
175.00,149.69,1
56.00,149.51,1
53.00,147.23,1
79.00,142.60,1
50.00,136.52,1
210.00,130.60,1
60.00,126.17,1
72.00,121.95,1
54.00,116.85,1
250.00,112.66,1
272.00,112.67,1
88.00,116.22,1
179.00,120.25,1
113.00,123.96,1
138.00,127.17,1
88.00,129.35,1
151.00,130.57,1
82.00,131.08,1
215.00,131.51,1
94.00,132.51,1
139.00,133.36,1
98.00,133.49,1
113.00,132.87,1
65.00,131.23,1
56.00,128.10,1
42.00,123.28,1
71.00,117.28,1
207.00,112.08,1
94.00,109.21,1
49.00,107.08,1
49.00,103.89,1
114.00,100.18,1
257.00,98.47,1
43.00,99.50,1
79.00,100.48,1
110.00,100.47,1
39.00,99.95,1
227.00,99.67,1
50.00,100.65,1
97.00,101.57,1
110.00,101.83,1
223.00,103.15,1
160.00,106.66,1
170.00,111.71,1
116.00,116.94,1
84.00,121.07,1
77.00,123.19,1
135.00,123.80,1
90.00,123.78,1
201.00,123.93,1
232.00,125.93,1
88.00,129.54,1
277.00,133.65,1
180.00,139.14,1
36.00,144.27,1
79.00,146.14,1
92.00,145.08,1
54.00,142.11,1
76.00,137.42,1
90.00,131.76,1
116.00,126.18,1
132.00,121.53,1
110.00,118.02,1
138.00,115.50,1
67.00,113.51,1
72.00,111.10,1
218.00,109.13,1
176.00,109.70,1
197.00,112.85,1
50.00,116.63,1
185.00,119.62,1
58.00,121.89,1
58.00,122.56,1
48.00,120.85,1
186.00,118.35,1
171.00,117.43,1
201.00,118.86,1
118.00,121.71,1
50.00,123.88,1
155.00,124.52,1
130.00,124.93,1
102.00,125.39,1
171.00,125.77,1
83.00,126.25,1
196.00,126.85,1
263.00,129.24,1
93.00,133.53,1
87.00,136.81,1
36.00,137.25,1
46.00,134.74,1
81.00,130.11,1
71.00,124.60,1
196.00,119.75,1
117.00,116.91,1
36.00,114.73,1
159.00,112.15,1
255.00,111.51,1
48.00,113.27,1
281.00,116.11,1
155.00,120.77,1
47.00,125.59,1
143.00,128.33,1
76.00,129.55,1
92.00,129.39,1
46.00,127.49,1
159.00,124.68,1
37.00,121.73,1
110.00,118.31,1
119.00,114.90,1
127.00,112.43,1
215.00,111.71,1
44.00,112.45,1
124.00,112.83,1
42.00,112.14,1
66.00,110.14,1
45.00,106.78,1
96.00,102.77,1
125.00,99.33,1
191.00,97.87,1
212.00,99.49,1
86.00,103.24,1
39.00,106.17,1
65.00,106.79,1
132.00,106.20,1
150.00,106.21,1
56.00,106.74,1
182.00,107.28,1
53.00,108.06,1
306.00,110.00,1
341.00,116.27,1
186.00,126.95,1
53.00,137.20,1
161.00,144.16,1
96.00,148.57,1
100.00,150.74,1
48.00,150.22,1
71.00,147.05,1
211.00,143.09,1
92.00,140.19,1
47.00,137.00,1
102.00,132.42,1
68.00,127.18,1
49.00,121.36,1
35.00,114.57,1
52.00,107.00,1
110.00,99.77,1
186.00,94.76,1
139.00,93.01,1
70.00,93.02,1
154.00,93.54,1
192.00,95.57,1
231.00,100.33,1
211.00,107.79,1
139.00,116.49,1
82.00,123.97,1
64.00,128.57,1
61.00,130.03,1
197.00,129.99,1
109.00,130.32,1
133.00,130.80,1
205.00,131.63,1
231.00,134.31,1
231.00,139.33,1
118.00,145.25,1
90.00,149.55,1
130.00,151.43,1
50.00,151.13,1
73.00,148.39,1
76.00,143.65,1
69.00,137.71,1
115.00,131.35,1
275.00,126.92,1
152.00,126.16,1
213.00,127.97,1
99.00,130.70,1
100.00,132.68,1
190.00,133.84,1
87.00,134.98,1
149.00,135.62,1
62.00,135.31,1
109.00,133.75,1
443.00,134.13,1
151.00,139.53,1
140.00,146.34,1
193.00,151.84,1
116.00,156.29,1
138.00,159.16,1
80.00,159.98,1
163.00,159.08,1
137.00,157.63,1
134.00,156.03,1
79.00,153.65,1
54.00,149.60,1
82.00,143.82,1
38.00,136.78,1
71.00,128.78,1
107.00,120.81,1
145.00,114.32,1
148.00,110.11,1
165.00,108.30,1
43.00,107.65,1
200.00,107.33,1
107.00,108.08,1
36.00,108.80,1
362.00,110.23,1
271.00,116.20,1
614.00,129.44,1
283.00,149.88,1
214.00,172.08,1
189.00,190.69,1
130.00,204.49,1
127.00,212.93,1
78.00,216.14,1
463.00,217.61,1
86.00,220.58,1
163.00,222.14,1
73.00,219.99,1
112.00,214.52,1
105.00,206.58,1
202.00,198.05,1
113.00,190.16,1
166.00,182.79,1
171.00,176.23,1
85.00,170.32,1
100.00,163.83,1
37.00,156.14,1
177.00,148.03,1
46.00,140.58,1
306.00,135.02,1
335.00,134.53,1
136.00,138.96,1
48.00,143.15,1
206.00,145.21,1
123.00,146.80,1
158.00,148.19,1
172.00,149.40,1
83.00,150.21,1
109.00,149.56,1
278.00,148.91,1
148.00,150.21,1
264.00,153.18,1
102.00,156.80,1
76.00,158.86,1
50.00,157.63,1
241.00,154.92,1
65.00,152.66,1
170.00,150.37,1
83.00,147.69,1
164.00,144.90,1
103.00,142.24,1
50.00,138.99,1
82.00,134.29,1
90.00,128.79,1
164.00,123.86,1
72.00,120.07,1
41.00,116.11,1
141.00,111.68,1
201.00,108.94,1
172.00,109.15,1
138.00,111.37,1
102.00,113.92,1
151.00,116.16,1
118.00,118.34,1
207.00,121.00,1
495.00,127.48,1
41.00,138.43,1
110.00,147.85,1
94.00,153.04,1
127.00,155.43,1
127.00,156.04,1
37.00,154.81,1
82.00,151.07,1
107.00,145.78,1
156.00,140.67,1
70.00,136.18,1
114.00,131.66,1
67.00,126.87,1
58.00,121.56,1
68.00,115.57,1
81.00,109.45,1
150.00,104.32,1
210.00,101.89,1
53.00,101.84,1
61.00,101.55,1
127.00,100.47,1
145.00,100.14,1
108.00,100.91,1
63.00,101.67,1
202.00,102.49,1
69.00,104.15,1
40.00,105.10,1
57.00,104.07,1
128.00,102.15,1
66.00,100.45,1
131.00,99.07,1
126.00,98.51,1
101.00,98.83,1
312.00,101.11,1
101.00,106.39,1
164.00,112.50,1
44.00,117.33,1
83.00,119.87,1
190.00,121.14,1
43.00,122.28,1
249.00,123.44,1
107.00,125.61,1
65.00,127.46,1
160.00,127.93,1
86.00,127.95,1
130.00,127.55,1
59.00,126.39,1
122.00,124.38,1
95.00,122.02,1
256.00,120.89,1
72.00,121.66,1
220.00,123.35,1
162.00,126.11,1
96.00,129.34,1
39.00,130.74,1
184.00,130.45,1
80.00,129.94,1
115.00,129.05,1
110.00,127.57,1
284.00,127.35,1
81.00,129.22,1
162.00,131.41,1
111.00,133.00,1
343.00,135.81,1
191.00,141.67,1
98.00,148.26,1
110.00,152.49,1
90.00,153.99,1
109.00,153.34,1
59.00,150.80,1
102.00,146.61,1
69.00,141.32,1
105.00,135.49,1
80.00,129.56,1
114.00,123.89,1
133.00,119.13,1
163.00,116.07,1
34.00,113.99,1
73.00,111.15,1
275.00,109.08,1
160.00,110.36,1
37.00,112.92,1
144.00,114.26,1
100.00,115.01,1
46.00,114.99,1
34.00,113.05,1
252.00,110.86,1
362.00,113.00,1
176.00,120.43,1
103.00,128.86,1
79.00,134.82,1
110.00,137.90,1
170.00,139.56,1
207.00,141.64,1
55.00,143.82,1
92.00,144.11,1
59.00,142.04,1
61.00,137.97,1
123.00,132.84,1
114.00,128.03,1
121.00,124.04,1
96.00,120.65,1
35.00,116.95,1
249.00,113.71,1
164.00,113.28,1
151.00,115.21,1
115.00,117.67,1
88.00,119.53,1
36.00,119.69,1
164.00,118.54,1
265.00,118.92,1
273.00,123.34,1
114.00,130.27,1
144.00,136.56,1
386.00,143.33,1
165.00,152.69,1
76.00,161.30,1
74.00,165.70,1
67.00,165.93,1
119.00,163.34,1
158.00,159.79,1
242.00,157.40,1
80.00,156.34,1
147.00,154.91,1
132.00,152.88,1
39.00,150.01,1
46.00,144.98,1
50.00,137.85,1
43.00,129.38,1
81.00,120.47,1
96.00,112.19,1
66.00,105.00,1
132.00,99.04,1
54.00,94.40,1
89.00,90.48,1
85.00,87.13,1
106.00,84.72,1
136.00,83.67,1
98.00,84.06,1
310.00,86.88,1
97.00,92.91,1
94.00,99.35,1
150.00,104.56,1
207.00,110.04,1
93.00,115.99,1
174.00,121.37,1
71.00,125.68,1
95.00,128.20,1
155.00,129.31,1
216.00,131.01,1
54.00,133.26,1
67.00,133.78,1
108.00,132.20,1
70.00,129.56,1
206.00,127.02,1
151.00,126.14,1
74.00,126.11,1
157.00,125.69,1
396.00,127.72,1
48.00,133.32,1
41.00,137.56,1
140.00,138.44,1
100.00,138.00,1
172.00,137.33,1
56.00,136.40,1
48.00,133.94,1
78.00,129.56,1
83.00,124.31,1
43.00,118.59,1
156.00,113.01,1
129.00,109.03,1
37.00,106.14,1
84.00,102.80,1
297.00,101.02,1
391.00,105.25,1
121.00,114.96,1
60.00,124.28,1
214.00,130.99,1
225.00,137.66,1
57.00,144.13,1
56.00,147.53,1
43.00,146.95,1
172.00,144.23,1
39.00,140.90,1
342.00,138.61,1
184.00,139.78,1
204.00,143.67,1
218.00,148.56,1
94.00,153.44,1
56.00,155.85,1
78.00,154.87,1
42.00,151.09,1
270.00,146.77,1
110.00,144.36,1
114.00,142.75,1
49.00,139.98,1
49.00,135.41,1
131.00,129.75,1
104.00,124.59,1
143.00,120.54,1
242.00,118.69,1
280.00,120.84,1
123.00,126.18,1
59.00,130.91,1
49.00,132.56,1
125.00,131.72,1
40.00,129.53,1
74.00,125.88,1
124.00,121.51,1
85.00,117.53,1
109.00,113.95,1
110.00,110.88,1
114.00,108.53,1
66.00,106.51,1
77.00,104.11,1
255.00,102.76,1
56.00,103.66,1
96.00,104.74,1
127.00,105.20,1
47.00,105.34,1
72.00,104.39,1
86.00,102.50,1
109.00,100.58,1
151.00,99.56,1
58.00,99.37,1
263.00,100.33,1
110.00,103.50,1
233.00,108.38,1
74.00,113.90,1
186.00,119.01,1
178.00,124.12,1
118.00,129.36,1
59.00,132.98,1
109.00,134.18,1
117.00,133.88,1
152.00,133.32,1
49.00,132.37,1
108.00,130.22,1
140.00,127.62,1
36.00,124.93,1
115.00,121.46,1
58.00,117.47,1
46.00,112.85,1
96.00,107.63,1
167.00,103.46,1
127.00,101.48,1
420.00,103.60,1
132.00,110.94,1
140.00,119.68,1
129.00,126.83,1
324.00,134.05,1
75.00,142.15,1
146.00,148.73,1
39.00,152.14,1
89.00,152.29,1
82.00,149.82,1
84.00,145.74,1
72.00,140.49,1
134.00,134.84,1
102.00,129.74,1
111.00,125.28,1
178.00,121.91,1
83.00,119.87,1
36.00,117.50,1
43.00,113.43,1
60.00,108.07,1
38.00,102.08,1
147.00,96.49,1
76.00,92.43,1
59.00,89.25,1
84.00,86.18,1
41.00,83.22,1
86.00,80.29,1
235.00,79.13,1
93.00,81.00,1
160.00,84.55,1
143.00,89.04,1
104.00,94.06,1
111.00,98.59,1
172.00,102.88,1
96.00,107.30,1
296.00,112.57,1
137.00,119.67,1
160.00,127.14,1
130.00,133.46,1
50.00,137.73,1
37.00,138.62,1
98.00,136.52,1
40.00,132.64,1
142.00,127.95,1
112.00,123.76,1
94.00,120.29,1
83.00,116.84,1
84.00,113.19,1
101.00,109.59,1
73.00,106.19,1
81.00,102.81,1
67.00,99.33,1
137.00,96.31,1
51.00,94.08,1
117.00,92.21,1
87.00,90.82,1
90.00,89.91,1
82.00,89.13,1
174.00,89.13,1
110.00,90.66,1
88.00,92.81,1
166.00,95.12,1
90.00,97.95,1
117.00,100.70,1
161.00,103.46,1
424.00,109.33,1
165.00,119.88,1
97.00,130.97,1
193.00,139.62,1
90.00,146.30,1
110.00,150.54,1
41.00,151.67,1
233.00,151.03,1
88.00,150.47,1
167.00,149.83,1
63.00,148.40,1
89.00,145.56,1
65.00,141.11,1
86.00,135.59,1
110.00,129.78,1
71.00,124.18,1
100.00,118.74,1
40.00,113.24,1
56.00,107.25,1
123.00,101.42,1
214.00,97.94,1
64.00,97.13,1
179.00,97.60,1
52.00,98.65,1
95.00,99.31,1
192.00,100.12,1
285.00,103.74,1
80.00,110.02,1
186.00,116.37,1
142.00,122.25,1
198.00,128.22,1
44.00,133.32,1
223.00,137.00,1
41.00,139.66,1
99.00,140.38,1
61.00,138.75,1
91.00,135.50,1
149.00,131.77,1
45.00,128.16,1
208.00,124.88,1
47.00,122.46,1
138.00,120.21,1
63.00,117.71,1
144.00,115.29,1
67.00,113.09,1
126.00,111.02,1
72.00,109.01,1
74.00,106.71,1
74.00,103.86,1
172.00,101.51,1
211.00,101.60,1
62.00,103.74,1
62.00,105.21,1
77.00,105.02,1
114.00,104.12,1
157.00,103.83,1
63.00,104.24,1
157.00,104.74,1
181.00,106.28,1
113.00,109.18,1
64.00,111.67,1
78.00,112.49,1
119.00,112.20,1
61.00,111.39,1
78.00,109.71,1
168.00,108.00,1
102.00,107.38,1
126.00,107.48,1
184.00,108.45,1
74.00,110.30,1
179.00,112.28,1
81.00,114.31,1
38.00,115.21,1
71.00,113.98,1
186.00,112.30,1
101.00,111.81,1
196.00,112.57,1
162.00,114.84,1
231.00,118.96,1
550.00,127.84,1
92.00,142.11,1
99.00,155.15,1
298.00,164.76,1
87.00,173.07,1
262.00,179.74,1
77.00,184.53,1
131.00,186.61,1
94.00,185.61,1
106.00,182.23,1
77.00,176.81,1
85.00,169.70,1
71.00,161.34,1
106.00,152.38,1
82.00,143.54,1
52.00,134.74,1
264.00,127.31,1
94.00,123.02,1
128.00,120.49,1
217.00,119.27,1
152.00,120.31,1
48.00,121.83,1
71.00,121.60,1
92.00,119.72,1
76.00,117.08,1
60.00,113.72,1
189.00,110.59,1
151.00,109.44,1
152.00,110.25,1
116.00,111.95,1
183.00,114.22,1
68.00,116.71,1
184.00,118.90,1
117.00,121.21,1
70.00,122.99,1
158.00,123.71,1
170.00,124.76,1
42.00,125.90,1
140.00,125.85,1
128.00,125.38,1
66.00,124.70,1
115.00,123.16,1
43.00,120.70,1
81.00,117.17,1
40.00,112.64,1
136.00,107.92,1
130.00,104.42,1
83.00,102.26,1
98.00,100.49,1
206.00,99.84,1
68.00,100.82,1
75.00,101.67,1
81.00,101.42,1
148.00,101.06,1
102.00,101.41,1
275.00,103.52,1
175.00,108.53,1
42.00,114.26,1
78.00,117.62,1
274.00,120.19,1
84.00,124.03,1
222.00,128.33,1
81.00,132.39,1
83.00,134.97,1
58.00,134.97,1
72.00,132.76,1
122.00,129.38,1
87.00,125.86,1
36.00,121.76,1
170.00,117.33,1
74.00,113.80,1
96.00,110.78,1
87.00,107.73,1
55.00,104.54,1
57.00,100.74,1
94.00,96.69,1
46.00,92.82,1
92.00,89.11,1
119.00,86.23,1
36.00,84.21,1
43.00,81.83,1
226.00,80.18,1
55.00,80.85,1
115.00,82.40,1
124.00,84.23,1
101.00,86.67,1
214.00,90.13,1
135.00,95.25,1
127.00,101.03,1
122.00,106.30,1
371.00,112.93,1
44.00,121.72,1
132.00,129.26,1
66.00,133.79,1
69.00,135.58,1
147.00,135.35,1
95.00,134.48,1
72.00,132.74,1
40.00,129.33,1
109.00,124.60,1
40.00,119.35,1
89.00,113.71,1
306.00,110.03,1
139.00,110.54,1
74.00,112.71,1
49.00,113.40,1
56.00,112.06,1
182.00,110.18,1
39.00,108.90,1
304.00,109.00,1
125.00,111.87,1
198.00,116.59,1
147.00,121.86,1
159.00,127.23,1
264.00,133.14,1
142.00,140.10,1
299.00,147.76,1
46.00,155.20,1
165.00,160.31,1
139.00,163.14,1
287.00,165.93,1
70.00,169.04,1
36.00,169.63,1
199.00,167.29,1
111.00,164.48,1
158.00,161.69,1
124.00,158.78,1
107.00,155.55,1
51.00,151.14,1
144.00,145.71,1
38.00,139.87,1
82.00,133.29,1
91.00,126.30,1
126.00,120.04,1
184.00,115.68,1
34.00,112.90,1
90.00,109.90,1
83.00,106.42,1
84.00,103.08,1
112.00,100.12,1
141.00,98.29,1
309.00,99.45,1
251.00,105.41,1
49.00,113.55,1
104.00,119.73,1
105.00,123.46,1
244.00,126.81,1
251.00,132.15,1
120.00,139.00,1
164.00,145.02,1
238.00,150.47,1
93.00,155.70,1
124.00,159.04,1
112.00,160.07,1
324.00,161.12,1
102.00,163.73,1
82.00,165.33,1
55.00,163.71,1
174.00,160.09,1
46.00,155.75,1
208.00,151.22,1
42.00,146.94,1
150.00,142.48,1
70.00,137.78,1
234.00,133.99,1
137.00,132.25,1
112.00,131.68,1
119.00,130.86,1
133.00,129.91,1
54.00,128.51,1
50.00,125.59,1
117.00,121.46,1
98.00,117.45,1
93.00,113.88,1
68.00,110.31,1
162.00,107.18,1
98.00,105.32,1
72.00,103.98,1
45.00,101.88,1
202.00,99.94,1
40.00,99.21,1
43.00,98.06,1
198.00,96.62,1
127.00,97.03,1
48.00,98.27,1
70.00,98.38,1
332.00,99.53,1
103.00,104.02,1
108.00,109.33,1
49.00,112.79,1
141.00,114.55,1
40.00,115.15,1
204.00,115.31,1
56.00,115.79,1
173.00,116.36,1
80.00,116.94,1
121.00,117.26,1
128.00,117.35,1
81.00,117.32,1
95.00,116.59,1
57.00,114.89,1
130.00,112.60,1
127.00,110.80,1
148.00,110.18,1
198.00,111.21,1
41.00,113.16,1
170.00,114.62,1
46.00,115.47,1
150.00,115.69,1
131.00,115.98,1
43.00,116.12,1
48.00,114.56,1
136.00,111.85,1
116.00,109.70,1
82.00,108.16,1
150.00,106.97,1
194.00,107.30,1
76.00,109.09,1
283.00,112.05,1
140.00,117.07,1
200.00,123.35,1
180.00,129.99,1
71.00,135.96,1
143.00,139.82,1
40.00,141.40,1
154.00,141.03,1
57.00,139.42,1
56.00,136.24,1
61.00,131.24,1
43.00,124.89,1
108.00,118.03,1
112.00,111.99,1
248.00,108.49,1
224.00,109.14,1
38.00,112.10,1
234.00,115.06,1
58.00,118.17,1
53.00,119.96,1
133.00,119.79,1
103.00,119.18,1
115.00,118.54,1
184.00,118.39,1
96.00,119.17,1
78.00,119.57,1
125.00,119.04,1
354.00,120.37,1
210.00,126.00,1
87.00,133.21,1
115.00,138.42,1
118.00,141.38,1
94.00,142.63,1
157.00,142.68,1
110.00,142.29,1
56.00,140.86,1
152.00,138.21,1
284.00,136.96,1
97.00,138.24,1
80.00,139.25,1
59.00,138.03,1
51.00,134.56,1
39.00,129.13,1
301.00,124.30,1
123.00,122.86,1
38.00,122.55,1
88.00,120.63,1
88.00,117.68,1
80.00,114.39,1
80.00,110.82,1
115.00,107.38,1
89.00,104.52,1
120.00,102.30,1
62.00,100.46,1
129.00,98.83,1
62.00,97.47,1
97.00,96.12,1
81.00,94.69,1
75.00,93.23,1
288.00,93.34,1
81.00,96.43,1
124.00,100.34,1
106.00,103.59,1
69.00,105.98,1
38.00,106.61,1
49.00,105.17,1
97.00,102.53,1
150.00,100.38,1
38.00,99.03,1
77.00,97.23,1
143.00,95.41,1
86.00,94.59,1
38.00,93.75,1
91.00,92.10,1
88.00,90.34,1
43.00,88.58,1
301.00,88.24,1
167.00,91.77,1
87.00,97.37,1
91.00,101.98,1
80.00,104.99,1
69.00,106.45,1
132.00,106.94,1
103.00,107.38,1
66.00,107.50,1
102.00,106.82,1
127.00,106.06,1
160.00,106.26,1
122.00,107.60,1
61.00,108.90,1
107.00,109.18,1
43.00,108.41,1
236.00,107.79,1
168.00,109.39,1
52.00,112.15,1
173.00,114.22,1
188.00,116.86,1
55.00,119.99,1
227.00,122.73,1
302.00,127.48,1
64.00,134.27,1
86.00,139.25,1
45.00,140.73,1
163.00,140.02,1
81.00,138.60,1
112.00,136.53,1
83.00,133.65,1
243.00,131.35,1
57.00,130.45,1
36.00,128.70,1
101.00,125.04,1
98.00,120.88,1
52.00,116.61,1
141.00,112.34,1
39.00,108.47,1
101.00,104.58,1
111.00,101.08,1
187.00,99.29,1
67.00,99.23,1
240.00,100.53,1
64.00,103.26,1
161.00,106.28,1
136.00,109.39,1
176.00,113.17,1
82.00,117.01,1
122.00,119.87,1
101.00,121.61,1
67.00,122.14,1
38.00,120.74,1
74.00,117.44,1
69.00,113.16,1
109.00,108.81,1
83.00,104.97,1
105.00,101.72,1
120.00,99.31,1
81.00,97.71,1
76.00,96.22,1
264.00,96.01,1
99.00,98.52,1
58.00,101.46,1
104.00,102.98,1
175.00,104.38,1
75.00,106.36,1
203.00,108.71,1
157.00,112.17,1
40.00,115.70,1
98.00,117.33,1
88.00,117.37,1
190.00,117.35,1
83.00,118.01,1
183.00,119.06,1
271.00,121.87,1
144.00,127.20,1
94.00,132.44,1
156.00,136.08,1
36.00,137.99,1
192.00,138.34,1
148.00,138.73,1
146.00,139.68,1
58.00,139.90,1
42.00,137.96,1
71.00,133.70,1
72.00,128.13,1
128.00,122.51,1
36.00,117.19,1
60.00,111.42,1
120.00,105.63,1
39.00,100.55,1
103.00,95.85,1
70.00,91.71,1
179.00,89.02,1
166.00,88.92,1
85.00,90.84,1
132.00,93.16,1
185.00,96.25,1
52.00,99.99,1
74.00,102.53,1
256.00,104.84,1
55.00,108.42,1
203.00,112.26,1
193.00,116.89,1
218.00,123.23,1
162.00,130.51,1
210.00,137.96,1
77.00,144.50,1
82.00,148.36,1
99.00,149.16,1
150.00,148.37,1
90.00,146.91,1
184.00,145.18,1
102.00,143.69,1
165.00,142.38,1
57.00,140.72,1
59.00,137.60,1
44.00,132.48,1
64.00,125.95,1
80.00,118.91,1
48.00,111.87,1
148.00,105.50,1
78.00,100.66,1
45.00,96.55,1
162.00,92.96,1
129.00,91.28,1
196.00,92.09,1
123.00,94.99,1
54.00,98.17,1
99.00,100.07,1
87.00,101.00,1
321.00,103.29,1
274.00,109.96,1
275.00,120.83,1
222.00,133.77,1
159.00,146.45,1
83.00,156.39,1
50.00,161.86,1
39.00,162.43,1
130.00,159.63,1
80.00,155.34,1
124.00,150.36,1
43.00,144.66,1
259.00,139.42,1
74.00,136.10,1
163.00,133.79,1
61.00,131.42,1
110.00,128.53,1
135.00,125.52,1
78.00,122.87,1
148.00,120.42,1
143.00,118.84,1
203.00,118.98,1
36.00,120.00,1
127.00,120.13,1
54.00,119.10,1
136.00,117.42,1
84.00,115.66,1
142.00,114.18,1
166.00,113.71,1
167.00,114.91,1
109.00,117.05,1
52.00,118.42,1
204.00,119.00,1
205.00,121.00,1
84.00,124.31,1
88.00,126.52,1
50.00,126.56,1
110.00,124.90,1
72.00,122.31,1
150.00,119.64,1
76.00,117.36,1
103.00,115.09,1
134.00,113.00,1
54.00,111.19,1
76.00,108.75,1
78.00,105.64,1
47.00,102.10,1
145.00,98.65,1
128.00,96.61,1
101.00,96.02,1
116.00,96.10,1
56.00,96.19,1
133.00,96.07,1
93.00,96.23,1
123.00,96.83,1
226.00,98.75,1
103.00,102.54,1
146.00,106.83,1
186.00,111.35,1
89.00,116.12,1
121.00,119.91,1
72.00,122.15,1
92.00,122.76,1
63.00,121.79,1
151.00,120.07,1
171.00,119.23,1
145.00,119.92,1
203.00,121.99,1
57.00,124.57,1
92.00,125.77,1
86.00,125.21,1
100.00,123.65,1
116.00,121.69,1
235.00,120.89,1
276.00,123.40,1
129.00,128.81,1
75.00,133.70,1
192.00,136.88,1
45.00,138.93,1
223.00,140.07,1
237.00,142.33,1
140.00,146.26,1
106.00,149.56,1
162.00,151.35,1
88.00,151.99,1
46.00,150.64,1
109.00,146.97,1
161.00,142.83,1
37.00,138.83,1
176.00,134.59,1
360.00,133.11,1
170.00,136.41,1
66.00,140.77,1
154.00,143.19,1
62.00,143.90,1
85.00,142.66,1
98.00,139.72,1
85.00,135.89,1
102.00,131.54,1
262.00,128.45,1
70.00,127.60,1
159.00,127.38,1
182.00,127.72,1
148.00,129.31,1
186.00,131.72,1
65.00,134.04,1
96.00,134.77,1
91.00,133.74,1
43.00,131.14,1
264.00,128.48,1
186.00,128.48,1
84.00,130.21,1
58.00,130.62,1
114.00,129.21,1
74.00,126.82,1
48.00,123.37,1
75.00,118.68,1
176.00,114.29,1
193.00,112.31,1
182.00,113.27,1
138.00,115.99,1
62.00,118.53,1
84.00,119.39,1
78.00,118.65,1
104.00,116.99,1
136.00,115.36,1
213.00,115.17,1
44.00,116.24,1
108.00,116.59,1
176.00,116.61,1
46.00,116.95,1
163.00,116.90,1
185.00,117.62,1
93.00,119.46,1
112.00,120.91,1
157.00,121.93,1
74.00,122.80,1
136.00,123.05,1
104.00,122.89,1
222.00,123.38,1
318.00,126.90,1
146.00,133.68,1
79.00,140.10,1
64.00,143.36,1
131.00,143.91,1
79.00,142.93,1
82.00,140.53,1
59.00,136.54,1
85.00,131.35,1
73.00,125.55,1
56.00,119.35,1
95.00,113.01,1
62.00,107.01,1
89.00,101.46,1
231.00,97.78,1
37.00,96.61,1
71.00,95.63,1
412.00,96.61,1
41.00,101.97,1
378.00,109.88,1
146.00,120.02,1
146.00,130.54,1
187.00,139.38,1
227.00,147.66,1
74.00,154.97,1
73.00,159.10,1
160.00,160.13,1
194.00,160.46,1
190.00,161.52,1
154.00,163.01,1
132.00,163.95,1
224.00,164.56,1
128.00,165.43,1
116.00,165.54,1
97.00,163.94,1
261.00,162.02,1
170.00,161.74,1
112.00,162.08,1
260.00,162.39,1
61.00,162.98,1
121.00,162.21,1
42.00,159.09,1
55.00,153.56,1
104.00,146.41,1
70.00,138.86,1
199.00,132.20,1
89.00,127.37,1
190.00,124.16,1
125.00,122.55,1
148.00,122.12,1
86.00,121.95,1
46.00,120.82,1
117.00,118.40,1
164.00,116.33,1
203.00,116.27,1
182.00,118.62,1
99.00,121.99,1
348.00,126.54,1
343.00,135.26,1
98.00,146.75,1
125.00,156.12,1
159.00,162.23,1
309.00,167.72,1
60.00,173.27,1
133.00,176.39,1
95.00,176.39,1
204.00,174.92,1
441.00,175.81,1
69.00,180.29,1
144.00,183.72,1
44.00,183.55,1
73.00,179.79,1
90.00,173.30,1
50.00,165.13,1
76.00,155.65,1
44.00,145.32,1
148.00,135.26,1
85.00,126.66,1
232.00,120.47,1
510.00,120.51,1
171.00,128.29,1
44.00,137.41,1
124.00,142.97,1
270.00,147.12,1
191.00,152.49,1
44.00,157.28,1
121.00,159.04,1
126.00,158.52,1
128.00,157.03,1
301.00,156.35,1
99.00,157.51,1
41.00,157.66,1
76.00,154.65,1
46.00,149.23,1
107.00,142.46,1
40.00,135.10,1
95.00,127.35,1
44.00,119.52,1
117.00,112.09,1
97.00,105.84,1
121.00,101.15,1
44.00,97.41,1
48.00,93.48,1
91.00,89.29,1
73.00,85.67,1
117.00,83.00,1
94.00,81.55,1
128.00,81.32,1
71.00,81.93,1
41.00,82.26,1
93.00,81.82,1
239.00,82.64,1
128.00,86.30,1
127.00,91.39,1
169.00,96.80,1
98.00,102.36,1
123.00,107.23,1
221.00,112.06,1
286.00,119.04,1
52.00,127.39,1
85.00,133.42,1
114.00,136.39,1
147.00,137.93,1
71.00,138.51,1
66.00,137.27,1
127.00,134.51,1
152.00,131.87,1
44.00,129.43,1
252.00,127.36,1
121.00,127.12,1
42.00,127.17,1
114.00,125.64,1
87.00,123.27,1
37.00,120.07,1
136.00,116.13,1
51.00,112.26,1
113.00,108.51,1
64.00,104.90,1
90.00,101.41,1
207.00,99.14,1
95.00,99.11,1
122.00,100.10,1
259.00,102.51,1
467.00,110.14,1
196.00,123.75,1
193.00,138.73,1
60.00,150.81,1
56.00,158.03,1
162.00,161.07,1
61.00,161.69,1
170.00,160.55,1
118.00,158.67,1
43.00,155.69,1
87.00,150.67,1
136.00,144.80,1
71.00,139.10,1
130.00,133.54,1
152.00,128.89,1
58.00,125.16,1
197.00,122.03,1
62.00,119.87,1
54.00,117.36,1
78.00,113.63,1
133.00,109.86,1
271.00,108.45,1
210.00,111.08,1
38.00,115.42,1
175.00,118.70,1
75.00,121.11,1
202.00,123.28,1
288.00,127.24,1
162.00,133.80,1
51.00,139.84,1
152.00,143.21,1
41.00,144.31,1
217.00,144.10,1
110.00,144.01,1
100.00,143.62,1
125.00,142.17,1
223.00,141.11,1
48.00,140.76,1
50.00,138.88,1
58.00,134.57,1
70.00,128.75,1
44.00,122.07,1
65.00,114.79,1
118.00,107.87,1
83.00,102.22,1
143.00,98.08,1
149.00,96.00,1
169.00,96.30,1
37.00,97.69,1
161.00,98.85,1
83.00,100.12,1
112.00,101.40,1
164.00,102.92,1
86.00,105.03,1
62.00,106.44,1
64.00,106.25,1
170.00,105.56,1
127.00,105.95,1
46.00,106.62,1
128.00,106.47,1
80.00,106.00,1
41.00,104.84,1
99.00,102.64,1
63.00,100.07,1
82.00,97.34,1
110.00,94.84,1
79.00,92.94,1
44.00,91.01,1
114.00,88.85,1
131.00,87.61,1
104.00,87.74,1
51.00,88.17,1
112.00,88.20,1
202.00,89.25,1
116.00,92.31,1
138.00,96.32,1
127.00,100.47,1
174.00,104.99,1
179.00,110.35,1
58.00,115.66,1
54.00,118.73,1
138.00,119.63,1
61.00,119.59,1
51.00,118.15,1
168.00,115.89,1
109.00,114.43,1
83.00,113.43,1
100.00,112.01,1
125.00,110.61,1
63.00,109.29,1
109.00,107.65,1
55.00,105.63,1
41.00,102.74,1
62.00,98.79,1
119.00,94.86,1
215.00,93.01,1
142.00,94.27,1
221.00,98.05,1
239.00,104.50,1
47.00,112.13,1
204.00,118.65,1
99.00,124.27,1
51.00,128.16,1
118.00,129.49,1
59.00,129.07,1
79.00,127.06,1
93.00,123.89,1
169.00,120.97,1
93.00,119.10,1
140.00,117.82,1
107.00,116.93,1
119.00,116.29,1
121.00,115.82,1
207.00,116.33,1
253.00,119.38,1
78.00,124.29,1
150.00,128.52,1
85.00,131.32,1
142.00,132.92,1
148.00,134.01,1
124.00,135.05,1
150.00,135.89,1
124.00,136.56,1
185.00,137.38,1
42.00,137.88,1
74.00,136.56,1
56.00,133.08,1
69.00,128.15,1
97.00,122.56,1
75.00,117.06,1
197.00,112.67,1
51.00,109.91,1
265.00,108.84,1
217.00,111.05,1
251.00,116.98,1
50.00,123.98,1
90.00,128.84,1
157.00,131.49,1
94.00,133.26,1
79.00,133.69,1
158.00,133.00,1
182.00,132.85,1
119.00,133.64,1
60.00,133.79,1
147.00,132.66,1
93.00,131.09,1
46.00,128.70,1
110.00,125.04,1
150.00,121.56,1
57.00,118.76,1
98.00,115.69,1
97.00,112.43,1
209.00,110.37,1
124.00,110.44,1
53.00,111.06,1
128.00,110.81,1
84.00,110.20,1
178.00,110.02,1
169.00,111.28,1
40.00,113.15,1
127.00,113.93,1
122.00,114.19,1
86.00,114.39,1
219.00,115.01,1
82.00,116.70,1
142.00,118.46,1
274.00,121.18,1
280.00,127.28,1
306.00,137.11,1
197.00,149.06,1
73.00,159.61,1
62.00,165.71,1
64.00,167.01,1
283.00,166.38,1
62.00,166.12,1
168.00,165.18,1
88.00,163.02,1
55.00,159.27,1
116.00,153.75,1
98.00,147.66,1
111.00,141.65,1
57.00,135.51,1
219.00,130.03,1
59.00,126.16,1
128.00,122.90,1
79.00,119.61,1
79.00,116.16,1
41.00,111.99,1
133.00,107.55,1
118.00,104.14,1
83.00,101.84,1
108.00,99.96,1
150.00,98.94,1
84.00,98.97,1
193.00,99.93,1
45.00,101.63,1
260.00,104.06,1
136.00,108.24,1
57.00,112.72,1
83.00,115.15,1
113.00,115.96,1
231.00,117.19,1
306.00,121.51,1
126.00,128.79,1
260.00,136.82,1
99.00,144.54,1
97.00,150.23,1
55.00,152.47,1
58.00,151.34,1
48.00,147.31,1
285.00,143.00,1
74.00,140.72,1
52.00,138.35,1
92.00,134.19,1
65.00,129.05,1
152.00,123.97,1
84.00,119.75,1
126.00,116.27,1
96.00,113.36,1
212.00,111.78,1
138.00,112.36,1
152.00,114.40,1
99.00,116.63,1
136.00,118.49,1
132.00,120.14,1
61.00,121.23,1
184.00,121.66,1
68.00,122.07,1
40.00,121.32,1
117.00,118.88,1
75.00,115.97,1
91.00,112.88,1
82.00,109.60,1
36.00,105.88,1
76.00,101.44,1
64.00,96.79,1
286.00,94.12,1
229.00,96.15,1
136.00,101.85,1
130.00,108.04,1
126.00,113.49,1
122.00,118.03,1
45.00,121.01,1
186.00,122.56,1
111.00,124.06,1
184.00,125.99,1
182.00,128.76,1
67.00,131.70,1
280.00,134.50,1
72.00,137.98,1
160.00,140.88,1
141.00,142.84,1
90.00,143.99,1
65.00,143.29,1
117.00,140.81,1
49.00,137.13,1
124.00,132.60,1
74.00,127.84,1
154.00,123.51,1
88.00,120.03,1
166.00,117.51,1
369.00,118.26,1
123.00,123.40,1
77.00,128.95,1
61.00,131.72,1
39.00,131.45,1
69.00,128.63,1
92.00,124.44,1
153.00,120.50,1
101.00,117.65,1
132.00,115.62,1
150.00,114.52,1
189.00,115.02,1
242.00,117.95,1
88.00,122.57,1
163.00,126.83,1
58.00,129.78,1
284.00,132.38,1
144.00,136.34,1
195.00,141.19,1
83.00,145.31,1
133.00,147.70,1
81.00,148.20,1
127.00,147.16,1
95.00,145.05,1
206.00,142.98,1
139.00,142.01,1
104.00,141.44,1
103.00,140.05,1
119.00,137.91,1
80.00,135.20,1
61.00,131.46,1
69.00,126.50,1
64.00,120.71,1
98.00,114.75,1
113.00,109.51,1
149.00,105.80,1
196.00,104.50,1
138.00,105.66,1
121.00,107.95,1
109.00,110.15,1
95.00,111.77,1
69.00,112.35,1
110.00,111.91,1
156.00,111.54,1
118.00,112.05,1
148.00,113.19,1
63.00,114.25,1
122.00,114.55,1
240.00,115.53,1
160.00,118.73,1
89.00,122.61,1
202.00,125.96,1
268.00,130.63,1
50.00,136.35,1
126.00,140.27,1
142.00,142.28,1
150.00,143.73,1
170.00,145.14,1
108.00,146.36,1
106.00,146.51,1
165.00,145.79,1
124.00,145.05,1
64.00,143.64,1
68.00,140.43,1
296.00,137.45,1
91.00,136.84,1
186.00,137.37,1
72.00,137.65,1
174.00,137.48,1
46.00,136.65,1
102.00,134.53,1
193.00,132.14,1
108.00,130.90,1
127.00,130.05,1
154.00,129.38,1
88.00,128.91,1
148.00,128.24,1
117.00,127.64,1
117.00,127.09,1
176.00,126.82,1
134.00,127.40,1
78.00,127.95,1
174.00,127.96,1
45.00,127.64,1
171.00,126.77,1
106.00,125.99,1
50.00,124.80,1
77.00,122.12,1
296.00,120.17,1
314.00,122.91,1
81.00,129.26,1
192.00,135.34,1
176.00,140.78,1
74.00,145.37,1
47.00,147.10,1
72.00,145.49,1
122.00,142.05,1
41.00,137.69,1
123.00,132.50,1
152.00,127.81,1
130.00,124.64,1
257.00,123.66,1
97.00,124.97,1
240.00,127.54,1
81.00,130.73,1
58.00,132.64,1
84.00,132.00,1
259.00,131.15,1
76.00,131.77,1
65.00,131.82,1
147.00,130.38,1
120.00,128.94,1
120.00,127.77,1
146.00,126.84,1
44.00,125.71,1
148.00,123.84,1
152.00,122.40,1
105.00,121.86,1
93.00,121.18,1
155.00,120.35,1
265.00,121.27,1
72.00,124.23,1
42.00,126.09,1
58.00,125.09,1
60.00,122.01,1
128.00,118.14,1
147.00,115.12,1
103.00,113.37,1
121.00,112.21,1
111.00,111.39,1
96.00,110.71,1
252.00,111.15,1
252.00,114.86,1
141.00,121.31,1
97.00,127.44,1
66.00,131.18,1
105.00,132.46,1
112.00,132.22,1
59.00,130.88,1
140.00,128.59,1
79.00,126.05,1
257.00,124.54,1
101.00,125.03,1
85.00,125.76,1
56.00,124.83,1
95.00,122.40,1
72.00,119.13,1
153.00,115.94,1
140.00,113.97,1
44.00,112.64,1
67.00,110.34,1
174.00,107.85,1
37.00,106.13,1
190.00,104.93,1
58.00,104.49,1
114.00,104.17,1
79.00,103.49,1
64.00,102.33,1
106.00,100.65,1
146.00,99.53,1
210.00,100.44,1
209.00,104.22,1
103.00,109.72,1
54.00,114.14,1
236.00,117.43,1
36.00,120.70,1
60.00,122.22,1
124.00,121.66,1
45.00,120.11,1
155.00,118.01,1
38.00,115.75,1
102.00,112.94,1
130.00,110.15,1
53.00,107.81,1
165.00,105.79,1
99.00,104.74,1
95.00,104.28,1
83.00,103.54,1
201.00,103.38,1
228.00,105.76,1
171.00,110.95,1
214.00,117.72,1
206.00,125.65,1
66.00,133.25,1
120.00,138.40,1
76.00,140.91,1
196.00,142.01,1
139.00,143.17,1
135.00,144.35,1
122.00,144.85,1
47.00,143.96,1
352.00,143.21,1
135.00,145.27,1
80.00,147.84,1
41.00,147.65,1
44.00,144.27,1
47.00,138.41,1
59.00,131.01,1
42.00,122.75,1
110.00,114.49,1
49.00,107.00,1
152.00,100.74,1
212.00,97.36,1
127.00,97.39,1
69.00,98.62,1
163.00,99.83,1
73.00,101.32,1
96.00,102.45,1
119.00,103.10,1
413.00,106.34,1
40.00,113.43,1
184.00,120.69,1
74.00,126.19,1
75.00,129.56,1
144.00,130.84,1
101.00,131.31,1
47.00,130.57,1
156.00,128.57,1
76.00,126.39,1
122.00,124.10,1
41.00,121.24,1
62.00,117.23,1
79.00,112.33,1
134.00,107.81,1
60.00,104.17,1
66.00,100.61,1
40.00,96.48,1
66.00,91.89,1
118.00,87.76,1
127.00,85.28,1
107.00,84.55,1
38.00,84.34,1
125.00,83.93,1
159.00,84.56,1
100.00,86.75,1
161.00,89.86,1
134.00,93.85,1
67.00,97.88,1
161.00,101.26,1
184.00,105.22,1
99.00,109.94,1
67.00,113.60,1
214.00,116.33,1
48.00,119.04,1
112.00,120.66,1
70.00,120.73,1
70.00,119.44,1
53.00,116.68,1
53.00,112.60,1
45.00,107.47,1
273.00,103.45,1
129.00,102.92,1
99.00,104.32,1
99.00,105.47,1
76.00,105.93,1
93.00,105.62,1
80.00,104.71,1
140.00,103.81,1
131.00,103.76,1
197.00,105.23,1
368.00,110.29,1
130.00,119.29,1
136.00,128.49,1
200.00,136.22,1
58.00,142.49,1
241.00,147.15,1
127.00,151.34,1
242.00,155.62,1
146.00,159.99,1
53.00,162.87,1
85.00,162.45,1
174.00,160.03,1
45.00,156.84,1
100.00,152.25,1
201.00,147.40,1
87.00,143.71,1
44.00,139.62,1
266.00,135.54,1
68.00,133.28,1
45.00,130.86,1
171.00,127.40,1
184.00,125.28,1
196.00,125.58,1
56.00,126.88,1
203.00,127.90,1
50.00,128.68,1
240.00,129.50,1
250.00,132.28,1
181.00,137.61,1
320.00,144.85,1
164.00,153.69,1
80.00,161.35,1
119.00,165.49,1
172.00,167.21,1
251.00,168.89,1
258.00,172.27,1
156.00,176.78,1
96.00,179.86,1
103.00,180.00,1
64.00,177.14,1
176.00,172.46,1
120.00,167.63,1
73.00,162.45,1
75.00,155.96,1
51.00,148.14,1
64.00,139.31,1
214.00,131.23,1
80.00,125.49,1
143.00,121.24,1
102.00,117.87,1
86.00,115.00,1
98.00,112.09,1
110.00,109.41,1
362.00,109.37,1
86.00,113.32,1
59.00,117.49,1
101.00,119.29,1
122.00,119.88,1
64.00,119.74,1
203.00,119.42,1
53.00,119.56,1
199.00,119.90,1
126.00,120.97,1
65.00,122.05,1
111.00,121.87,1
216.00,121.86,1
194.00,123.91,1
138.00,127.52,1
90.00,130.68,1
133.00,132.49,1
254.00,134.54,1
179.00,138.42,1
158.00,143.15,1
206.00,147.81,1
122.00,152.18,1
106.00,155.07,1
68.00,155.43,1
86.00,153.28,1
164.00,149.94,1
81.00,146.52,1
101.00,142.62,1
47.00,137.67,1
352.00,133.88,1
97.00,133.61,1
66.00,134.04,1
62.00,132.33,1
46.00,128.59,1
41.00,123.11,1
93.00,116.70,1
52.00,110.26,1
91.00,104.10,1
127.00,98.96,1
172.00,96.04,1
97.00,95.35,1
362.00,97.69,1
150.00,104.23,1
112.00,112.15,1
218.00,119.36,1
62.00,125.94,1
111.00,130.52,1
64.00,132.55,1
60.00,132.20,1
80.00,129.76,1
108.00,126.33,1
138.00,123.13,1
36.00,120.10,1
124.00,116.59,1
57.00,112.88,1
46.00,108.68,1
142.00,104.30,1
39.00,100.58,1
46.00,96.61,1
152.00,92.75,1
84.00,90.33,1
109.00,89.05,1
185.00,89.15,1
52.00,90.66,1
39.00,91.52,1
230.00,92.12,1
141.00,94.84,1
111.00,98.93,1
160.00,103.10,1
147.00,107.63,1
105.00,112.14,1
127.00,115.86,1
62.00,118.33,1
118.00,119.36,1
67.00,119.19,1
59.00,117.69,1
128.00,115.25,1
36.00,112.49,1
75.00,108.94,1
54.00,104.61,1
69.00,99.95,1
51.00,95.11,1
65.00,90.24,1
54.00,85.49,1
54.00,80.93,1
85.00,76.83,1
78.00,73.67,1
97.00,71.63,1
93.00,70.74,1
77.00,70.69,1
106.00,71.24,1
180.00,73.19,1
195.00,77.71,1
128.00,84.33,1
124.00,91.32,1
116.00,97.68,1
135.00,103.34,1
135.00,108.54,1
153.00,113.52,1
124.00,118.23,1
118.00,122.18,1
83.00,124.79,1
94.00,125.78,1
40.00,124.93,1
79.00,122.21,1
40.00,118.09,1
45.00,112.72,1
95.00,106.77,1
38.00,100.97,1
103.00,95.49,1
86.00,90.89,1
60.00,87.16,1
93.00,83.92,1
67.00,81.27,1
124.00,79.48,1
81.00,78.76,1
162.00,79.34,1
126.00,81.56,1
146.00,85.18,1
185.00,90.15,1
235.00,97.17,1
159.00,105.99,1
161.00,115.12,1
159.00,123.55,1
126.00,130.86,1
93.00,136.25,1
73.00,139.00,1
67.00,139.01,1
115.00,137.04,1
85.00,134.16,1
88.00,130.61,1
38.00,126.04,1
49.00,120.16,1
98.00,113.65,1
55.00,107.42,1
61.00,101.36,1
60.00,95.36,1
96.00,89.93,1
79.00,85.57,1
113.00,82.47,1
81.00,80.58,1
175.00,80.21,1
137.00,81.98,1
232.00,86.28,1
116.00,92.61,1
163.00,99.55,1
146.00,106.40,1
136.00,112.96,1
131.00,118.76,1
104.00,123.38,1
117.00,126.57,1
99.00,128.41,1
96.00,128.96,1
115.00,128.46,1
90.00,127.27,1
130.00,125.67,1
83.00,123.87,1
107.00,121.74,1
61.00,119.05,1
40.00,115.26,1
110.00,110.63,1
39.00,105.93,1
66.00,100.94,1
76.00,95.85,1
63.00,91.14,1
91.00,86.97,1
111.00,83.87,1
110.00,82.25,1
114.00,81.99,1
126.00,82.93,1
143.00,85.11,1
122.00,88.39,1
