233.00,245.79,1
230.00,245.85,1
186.00,245.01,1
185.00,242.76,1
130.00,238.68,1
129.00,232.40,1
92.00,223.89,1
98.00,213.37,1
37.00,200.98,1
42.00,186.65,1
41.00,170.89,1
54.00,154.67,1
81.00,139.12,1
91.00,125.23,1
129.00,113.80,1
165.00,105.61,1
134.00,100.84,1
164.00,98.84,1
180.00,99.35,1
173.00,102.24,1
205.00,107.12,1
177.00,113.60,1
262.00,121.60,1
197.00,131.08,1
226.00,141.27,1
178.00,151.20,1
191.00,160.13,1
178.00,167.72,1
177.00,173.93,1
183.00,178.81,1
148.00,182.31,1
100.00,183.73,1
127.00,182.65,1
97.00,179.53,1
99.00,174.69,1
68.00,168.22,1
43.00,160.02,1
43.00,150.14,1
39.00,139.04,1
43.00,127.34,1
42.00,115.63,1
96.00,104.75,1
102.00,95.80,1
123.00,89.33,1
155.00,85.63,1
192.00,85.17,1
176.00,87.92,1
171.00,93.02,1
167.00,99.48,1
203.00,106.96,1
182.00,115.35,1
230.00,124.51,1
181.00,134.18,1
212.00,143.73,1
190.00,152.81,1
190.00,161.12,1
165.00,168.19,1
154.00,173.56,1
125.00,176.82,1
132.00,177.85,1
91.00,176.70,1
98.00,173.34,1
76.00,168.04,1
46.00,160.86,1
51.00,151.86,1
41.00,141.53,1
50.00,130.49,1
59.00,119.42,1
88.00,109.17,1
65.00,100.26,1
127.00,93.02,1
160.00,88.39,1
212.00,87.38,1
163.00,89.91,1
181.00,94.83,1
165.00,101.13,1
200.00,108.48,1
155.00,116.43,1
204.00,124.51,1
162.00,132.53,1
206.00,140.31,1
178.00,147.80,1
183.00,154.77,1
131.00,160.52,1
147.00,164.47,1
110.00,166.45,1
114.00,166.42,1
45.00,164.05,1
91.00,159.24,1
39.00,152.54,1
59.00,144.27,1
36.00,134.81,1
40.00,124.60,1
48.00,114.07,1
49.00,103.84,1
94.00,94.61,1
90.00,87.17,1
88.00,81.63,1
90.00,77.65,1
120.00,75.26,1
171.00,75.10,1
169.00,77.71,1
202.00,83.01,1
150.00,90.25,1
198.00,98.54,1
196.00,107.71,1
184.00,117.50,1
169.00,127.11,1
184.00,136.05,1
200.00,144.44,1
183.00,152.37,1
215.00,159.82,1
150.00,166.50,1
176.00,171.79,1
150.00,175.52,1
157.00,177.78,1
120.00,178.46,1
120.00,177.35,1
70.00,174.19,1
96.00,168.97,1
51.00,161.99,1
68.00,153.53,1
38.00,143.89,1
38.00,133.30,1
42.00,122.12,1
43.00,110.96,1
77.00,100.49,1
55.00,91.30,1
67.00,83.40,1
134.00,77.30,1
147.00,74.09,1
166.00,74.08,1
150.00,76.84,1
208.00,82.02,1
192.00,89.49,1
196.00,98.70,1
198.00,108.89,1
188.00,119.47,1
185.00,129.83,1
169.00,139.42,1
208.00,148.15,1
182.00,156.22,1
228.00,163.81,1
136.00,170.55,1
169.00,175.56,1
147.00,178.69,1
133.00,180.09,1
84.00,179.28,1
103.00,176.04,1
56.00,170.61,1
58.00,163.03,1
34.00,153.58,1
46.00,142.75,1
46.00,131.19,1
51.00,119.65,1
57.00,108.62,1
64.00,98.53,1
91.00,89.89,1
109.00,83.28,1
106.00,78.93,1
161.00,77.04,1
146.00,77.79,1
158.00,80.83,1
180.00,85.84,1
165.00,92.44,1
186.00,100.16,1
193.00,108.77,1
209.00,118.18,1
192.00,128.07,1
202.00,137.91,1
166.00,147.14,1
206.00,155.41,1
144.00,162.52,1
143.00,167.81,1
116.00,170.79,1
120.00,171.50,1
84.00,169.97,1
108.00,166.47,1
81.00,161.45,1
100.00,155.33,1
45.00,148.22,1
41.00,139.83,1
42.00,130.25,1
54.00,120.14,1
64.00,110.25,1
58.00,101.06,1
102.00,93.07,1
141.00,87.26,1
127.00,84.17,1
127.00,83.35,1
148.00,84.35,1
199.00,87.45,1
164.00,92.79,1
200.00,99.83,1
182.00,108.06,1
178.00,116.87,1
192.00,125.76,1
169.00,134.40,1
196.00,142.51,1
178.00,150.08,1
194.00,157.04,1
166.00,163.19,1
165.00,168.18,1
120.00,171.50,1
129.00,172.77,1
94.00,171.91,1
103.00,169.05,1
56.00,164.23,1
85.00,157.58,1
45.00,149.56,1
47.00,140.37,1
38.00,130.19,1
45.00,119.55,1
85.00,109.26,1
51.00,100.02,1
79.00,91.89,1
128.00,85.48,1
134.00,81.66,1
137.00,80.48,1
161.00,81.63,1
188.00,85.14,1
161.00,90.77,1
192.00,97.85,1
193.00,106.11,1
162.00,114.99,1
193.00,123.79,1
195.00,132.53,1
214.00,141.37,1
158.00,149.87,1
220.00,157.56,1
166.00,164.52,1
188.00,170.49,1
158.00,175.17,1
140.00,178.26,1
103.00,179.17,1
109.00,177.68,1
62.00,173.82,1
80.00,167.71,1
40.00,159.70,1
47.00,150.01,1
52.00,139.24,1
50.00,128.11,1
55.00,117.12,1
54.00,106.66,1
68.00,97.09,1
80.00,88.84,1
132.00,82.60,1
111.00,78.89,1
158.00,77.69,1
208.00,79.49,1
166.00,84.35,1
202.00,91.40,1
178.00,99.89,1
167.00,109.04,1
182.00,118.15,1
170.00,126.96,1
238.00,135.76,1
165.00,144.67,1
214.00,153.11,1
177.00,160.84,1
167.00,167.47,1
133.00,172.29,1
126.00,174.87,1
72.00,174.83,1
110.00,172.18,1
63.00,167.42,1
91.00,160.94,1
45.00,153.11,1
54.00,144.03,1
39.00,133.96,1
39.00,123.25,1
44.00,112.37,1
48.00,101.83,1
66.00,92.16,1
109.00,84.15,1
88.00,78.35,1
94.00,74.48,1
144.00,72.56,1
163.00,73.22,1
154.00,76.45,1
207.00,81.99,1
190.00,89.76,1
186.00,99.09,1
185.00,109.10,1
165.00,119.06,1
201.00,128.61,1
128.00,137.37,1
213.00,145.02,1
142.00,151.79,1
173.00,157.46,1
162.00,161.92,1
140.00,165.23,1
103.00,166.77,1
125.00,166.32,1
90.00,164.14,1
95.00,160.37,1
61.00,155.04,1
83.00,148.32,1
43.00,140.55,1
42.00,131.76,1
42.00,122.11,1
70.00,112.35,1
71.00,103.31,1
68.00,95.34,1
76.00,88.47,1
101.00,82.98,1
125.00,79.41,1
135.00,78.08,1
199.00,79.39,1
165.00,83.54,1
179.00,89.83,1
187.00,97.49,1
158.00,105.99,1
164.00,114.46,1
214.00,122.90,1
153.00,131.41,1
200.00,139.49,1
154.00,146.86,1
205.00,153.50,1
158.00,159.44,1
187.00,164.53,1
128.00,168.41,1
126.00,170.48,1
62.00,170.02,1
98.00,166.90,1
63.00,161.65,1
48.00,154.51,1
38.00,145.58,1
43.00,135.35,1
46.00,124.48,1
53.00,113.66,1
91.00,103.69,1
98.00,95.44,1
128.00,89.46,1
125.00,85.94,1
135.00,84.70,1
155.00,85.53,1
189.00,88.58,1
212.00,94.18,1
215.00,102.20,1
186.00,111.78,1
199.00,121.88,1
170.00,131.76,1
207.00,141.09,1
148.00,149.57,1
168.00,156.62,1
154.00,162.04,1
133.00,165.84,1
96.00,167.51,1
109.00,166.78,1
61.00,163.80,1
73.00,158.63,1
38.00,151.45,1
43.00,142.58,1
48.00,132.54,1
44.00,122.06,1
40.00,111.48,1
43.00,101.14,1
62.00,91.49,1
95.00,83.30,1
85.00,77.10,1
108.00,72.92,1
117.00,70.80,1
175.00,71.11,1
162.00,74.18,1
210.00,79.92,1
174.00,87.94,1
174.00,97.16,1
234.00,107.23,1
179.00,118.14,1
198.00,129.04,1
171.00,139.24,1
215.00,148.62,1
163.00,157.16,1
159.00,164.24,1
139.00,169.30,1
129.00,172.21,1
88.00,172.72,1
111.00,170.78,1
41.00,166.54,1
78.00,160.06,1
39.00,151.79,1
38.00,142.03,1
34.00,131.15,1
74.00,120.03,1
57.00,109.58,1
72.00,100.16,1
107.00,92.24,1
67.00,86.09,1
135.00,81.69,1
143.00,79.62,1
122.00,79.90,1
192.00,82.27,1
194.00,87.14,1
161.00,94.06,1
171.00,101.91,1
172.00,110.10,1
192.00,118.51,1
171.00,127.01,1
202.00,135.37,1
165.00,143.35,1
211.00,150.83,1
164.00,157.74,1
177.00,163.69,1
107.00,167.97,1
117.00,169.85,1
96.00,169.29,1
113.00,166.77,1
54.00,162.39,1
64.00,156.07,1
48.00,147.99,1
42.00,138.63,1
42.00,128.36,1
41.00,117.68,1
41.00,107.05,1
50.00,96.87,1
74.00,87.70,1
74.00,80.09,1
140.00,74.64,1
128.00,72.02,1
156.00,72.23,1
163.00,74.97,1
211.00,80.34,1
164.00,87.95,1
212.00,97.02,1
187.00,107.16,1
216.00,117.93,1
181.00,128.82,1
196.00,139.23,1
170.00,148.67,1
218.00,157.17,1
188.00,164.99,1
194.00,171.99,1
170.00,177.79,1
174.00,182.16,1
135.00,184.86,1
109.00,185.38,1
89.00,183.29,1
106.00,178.88,1
66.00,172.64,1
73.00,164.76,1
40.00,155.41,1
52.00,144.86,1
36.00,133.53,1
56.00,121.98,1
58.00,110.87,1
85.00,100.89,1
89.00,92.59,1
137.00,86.52,1
121.00,83.04,1
116.00,81.75,1
153.00,82.26,1
185.00,84.93,1
186.00,90.06,1
186.00,97.12,1
176.00,105.32,1
208.00,114.24,1
209.00,123.85,1
171.00,133.66,1
204.00,142.92,1
143.00,151.20,1
209.00,158.27,1
159.00,164.36,1
186.00,169.45,1
143.00,173.28,1
153.00,175.63,1
98.00,176.12,1
118.00,174.51,1
72.00,170.86,1
76.00,165.22,1
49.00,157.70,1
68.00,148.77,1
40.00,138.91,1
48.00,128.42,1
48.00,117.72,1
54.00,107.33,1
69.00,97.73,1
119.00,89.78,1
106.00,84.18,1
113.00,80.82,1
134.00,79.47,1
158.00,80.28,1
194.00,83.56,1
182.00,89.34,1
179.00,96.86,1
168.00,105.22,1
212.00,114.14,1
164.00,123.38,1
218.00,132.59,1
184.00,141.69,1
235.00,150.71,1
178.00,159.45,1
192.00,167.29,1
149.00,173.59,1
153.00,177.96,1
112.00,180.10,1
147.00,180.10,1
66.00,178.06,1
115.00,173.86,1
62.00,167.90,1
92.00,160.56,1
43.00,152.07,1
38.00,142.39,1
38.00,131.64,1
49.00,120.48,1
65.00,109.66,1
66.00,99.84,1
70.00,91.28,1
74.00,84.08,1
124.00,78.65,1
148.00,75.80,1
153.00,75.90,1
187.00,78.76,1
176.00,84.15,1
220.00,91.71,1
188.00,101.08,1
163.00,111.13,1
200.00,120.98,1
193.00,130.72,1
201.00,140.29,1
183.00,149.35,1
234.00,157.92,1
178.00,166.07,1
186.00,173.18,1
168.00,178.80,1
178.00,182.95,1
120.00,185.36,1
126.00,185.54,1
89.00,183.35,1
109.00,179.04,1
73.00,172.97,1
57.00,165.22,1
44.00,155.79,1
42.00,145.03,1
38.00,133.44,1
45.00,121.59,1
58.00,110.11,1
56.00,99.54,1
83.00,90.31,1
68.00,82.70,1
91.00,76.74,1
98.00,72.57,1
141.00,70.53,1
162.00,71.14,1
148.00,74.31,1
199.00,79.71,1
204.00,87.36,1
211.00,97.11,1
213.00,108.23,1
192.00,119.95,1
199.00,131.47,1
164.00,142.11,1
223.00,151.70,1
178.00,160.48,1
223.00,168.48,1
149.00,175.38,1
166.00,180.50,1
120.00,183.40,1
126.00,183.94,1
79.00,182.01,1
120.00,177.86,1
77.00,172.06,1
56.00,164.71,1
47.00,155.65,1
42.00,145.19,1
51.00,133.94,1
41.00,122.50,1
63.00,111.37,1
79.00,101.26,1
82.00,92.73,1
135.00,86.31,1
119.00,82.51,1
162.00,81.33,1
139.00,82.55,1
186.00,85.93,1
248.00,91.96,1
195.00,100.72,1
222.00,111.16,1
191.00,122.27,1
207.00,133.37,1
170.00,143.79,1
215.00,153.26,1
169.00,161.75,1
220.00,169.24,1
168.00,175.76,1
182.00,181.00,1
125.00,184.43,1
152.00,185.78,1
109.00,185.12,1
102.00,182.41,1
72.00,177.47,1
127.00,170.92,1
54.00,163.42,1
68.00,154.80,1
44.00,145.04,1
40.00,134.46,1
81.00,123.66,1
46.00,113.42,1
66.00,103.86,1
84.00,95.33,1
92.00,88.39,1
72.00,83.00,1
137.00,79.25,1
165.00,77.99,1
174.00,79.73,1
196.00,84.28,1
198.00,91.29,1
201.00,100.13,1
204.00,110.20,1
204.00,120.96,1
189.00,131.75,1
189.00,141.97,1
233.00,151.67,1
197.00,161.06,1
201.00,169.71,1
162.00,176.96,1
197.00,182.60,1
135.00,186.55,1
143.00,188.43,1
90.00,187.87,1
118.00,184.83,1
67.00,179.67,1
79.00,172.53,1
44.00,163.58,1
50.00,153.16,1
36.00,141.68,1
43.00,129.62,1
42.00,117.52,1
61.00,106.00,1
71.00,95.68,1
57.00,86.83,1
106.00,79.63,1
127.00,74.81,1
142.00,72.84,1
160.00,73.67,1
178.00,77.17,1
205.00,83.26,1
181.00,91.49,1
180.00,100.91,1
227.00,111.06,1
189.00,121.90,1
216.00,132.91,1
144.00,143.20,1
228.00,152.33,1
214.00,160.97,1
188.00,169.19,1
160.00,176.04,1
149.00,180.85,1
105.00,183.20,1
126.00,182.94,1
95.00,180.38,1
115.00,176.04,1
79.00,170.28,1
63.00,163.02,1
41.00,154.15,1
52.00,143.95,1
42.00,132.99,1
49.00,121.80,1
64.00,110.96,1
55.00,100.98,1
90.00,92.23,1
133.00,85.57,1
127.00,81.66,1
146.00,80.38,1
152.00,81.50,1
211.00,85.12,1
209.00,91.50,1
193.00,100.16,1
217.00,110.15,1
220.00,121.09,1
225.00,132.67,1
146.00,143.84,1
209.00,153.57,1
191.00,162.13,1
243.00,170.16,1
216.00,178.03,1
214.00,185.48,1
164.00,191.69,1
142.00,195.70,1
138.00,197.10,1
101.00,195.92,1
93.00,192.10,1
127.00,186.25,1
55.00,178.96,1
45.00,169.82,1
48.00,158.85,1
52.00,146.87,1
42.00,134.50,1
70.00,122.35,1
84.00,111.26,1
80.00,101.79,1
134.00,94.35,1
140.00,89.60,1
128.00,87.51,1
191.00,87.90,1
189.00,91.11,1
218.00,97.02,1
173.00,104.91,1
194.00,113.71,1
234.00,123.21,1
179.00,133.29,1
222.00,143.29,1
220.00,153.11,1
240.00,162.96,1
220.00,172.68,1
208.00,181.69,1
168.00,189.18,1
162.00,194.46,1
121.00,197.09,1
138.00,197.05,1
113.00,194.70,1
102.00,190.34,1
83.00,184.03,1
66.00,175.92,1
57.00,166.20,1
46.00,155.16,1
52.00,143.33,1
49.00,131.23,1
48.00,119.32,1
37.00,107.84,1
68.00,97.12,1
96.00,88.00,1
128.00,81.36,1
170.00,77.93,1
159.00,77.91,1
218.00,81.16,1
198.00,87.50,1
214.00,96.23,1
196.00,106.47,1
196.00,117.35,1
246.00,128.62,1
192.00,140.20,1
220.00,151.38,1
203.00,161.78,1
229.00,171.39,1
198.00,180.13,1
244.00,188.00,1
191.00,195.01,1
182.00,200.57,1
140.00,203.92,1
143.00,204.73,1
118.00,203.06,1
136.00,199.32,1
98.00,193.94,1
70.00,186.74,1
56.00,177.52,1
42.00,166.49,1
34.00,154.01,1
39.00,140.65,1
50.00,127.20,1
57.00,114.39,1
76.00,102.86,1
87.00,93.13,1
104.00,85.59,1
137.00,80.59,1
134.00,78.35,1
204.00,79.08,1
207.00,83.18,1
200.00,90.35,1
192.00,99.41,1
190.00,109.42,1
227.00,120.03,1
186.00,130.99,1
253.00,142.02,1
196.00,153.07,1
211.00,163.48,1
198.00,172.73,1
194.00,180.67,1
172.00,187.00,1
164.00,191.42,1
125.00,193.61,1
127.00,193.32,1
91.00,190.56,1
111.00,185.63,1
67.00,178.89,1
68.00,170.43,1
57.00,160.49,1
56.00,149.57,1
40.00,138.05,1
46.00,126.24,1
58.00,114.67,1
39.00,103.74,1
109.00,94.02,1
123.00,86.67,1
141.00,82.31,1
165.00,80.97,1
175.00,82.59,1
203.00,87.01,1
220.00,94.11,1
212.00,103.44,1
210.00,114.15,1
217.00,125.52,1
221.00,137.16,1
193.00,148.51,1
246.00,159.29,1
206.00,169.57,1
258.00,179.34,1
193.00,188.40,1
195.00,195.99,1
146.00,201.30,1
171.00,204.13,1
116.00,204.51,1
152.00,202.62,1
99.00,198.75,1
92.00,192.91,1
76.00,185.07,1
47.00,175.40,1
61.00,164.17,1
46.00,152.01,1
38.00,139.34,1
39.00,126.43,1
40.00,113.74,1
64.00,101.86,1
78.00,91.50,1
92.00,83.18,1
137.00,77.41,1
156.00,74.78,1
171.00,75.41,1
171.00,78.92,1
173.00,84.63,1
225.00,92.32,1
235.00,102.24,1
201.00,113.80,1
229.00,126.00,1
198.00,138.20,1
222.00,149.91,1
200.00,160.80,1
244.00,170.91,1
222.00,180.47,1
203.00,189.12,1
175.00,196.09,1
148.00,200.71,1
133.00,202.53,1
134.00,201.75,1
110.00,198.67,1
119.00,193.65,1
76.00,186.92,1
94.00,178.67,1
36.00,168.98,1
43.00,157.77,1
44.00,145.36,1
48.00,132.62,1
45.00,120.09,1
100.00,108.56,1
94.00,99.01,1
130.00,91.96,1
147.00,87.70,1
203.00,86.74,1
188.00,89.27,1
209.00,94.73,1
209.00,102.46,1
216.00,111.90,1
215.00,122.45,1
185.00,133.28,1
232.00,143.86,1
195.00,154.12,1
283.00,164.31,1
203.00,174.58,1
215.00,184.08,1
158.00,191.75,1
179.00,197.09,1
142.00,200.07,1
169.00,200.96,1
112.00,199.85,1
141.00,196.81,1
54.00,191.71,1
111.00,184.43,1
58.00,175.57,1
62.00,165.42,1
45.00,154.11,1
39.00,142.01,1
61.00,129.66,1
47.00,117.71,1
52.00,106.45,1
53.00,96.06,1
99.00,87.12,1
108.00,80.40,1
138.00,76.40,1
126.00,75.04,1
157.00,76.06,1
187.00,79.53,1
226.00,85.79,1
204.00,94.65,1
224.00,105.33,1
182.00,116.85,1
225.00,128.45,1
183.00,139.76,1
218.00,150.42,1
194.00,160.27,1
200.00,169.12,1
185.00,176.69,1
161.00,182.64,1
130.00,186.38,1
142.00,187.70,1
88.00,186.61,1
127.00,183.28,1
76.00,178.13,1
91.00,171.34,1
70.00,163.22,1
41.00,153.87,1
46.00,143.32,1
55.00,132.12,1
45.00,120.89,1
64.00,110.08,1
95.00,100.43,1
118.00,92.86,1
154.00,88.05,1
158.00,86.34,1
133.00,87.17,1
234.00,90.36,1
191.00,96.39,1
196.00,104.50,1
219.00,113.82,1
211.00,124.13,1
206.00,134.85,1
209.00,145.41,1
236.00,155.73,1
222.00,165.88,1
223.00,175.58,1
183.00,184.17,1
153.00,190.75,1
152.00,194.74,1
149.00,196.32,1
108.00,195.62,1
124.00,192.64,1
104.00,187.81,1
91.00,181.44,1
65.00,173.46,1
54.00,163.93,1
38.00,153.02,1
45.00,141.14,1
55.00,128.93,1
66.00,117.23,1
76.00,106.64,1
84.00,97.56,1
107.00,90.33,1
134.00,85.42,1
134.00,83.06,1
186.00,83.41,1
168.00,86.50,1
184.00,91.82,1
204.00,98.94,1
215.00,107.78,1
216.00,117.95,1
215.00,128.93,1
233.00,140.27,1
179.00,151.37,1
245.00,161.70,1
207.00,171.46,1
187.00,180.19,1
184.00,187.20,1
153.00,192.18,1
138.00,194.80,1
144.00,195.09,1
127.00,193.43,1
100.00,189.90,1
69.00,184.19,1
78.00,176.38,1
42.00,166.78,1
39.00,155.63,1
43.00,143.34,1
41.00,130.62,1
56.00,118.15,1
56.00,106.50,1
97.00,96.31,1
109.00,88.36,1
140.00,83.16,1
162.00,81.02,1
174.00,81.99,1
208.00,85.95,1
182.00,92.49,1
231.00,101.02,1
226.00,111.35,1
203.00,122.83,1
222.00,134.55,1
200.00,146.01,1
228.00,156.91,1
195.00,167.04,1
193.00,175.91,1
188.00,183.19,1
190.00,188.94,1
175.00,193.21,1
173.00,195.97,1
135.00,197.00,1
128.00,196.01,1
116.00,192.97,1
120.00,188.23,1
66.00,181.88,1
75.00,173.76,1
56.00,164.11,1
39.00,153.18,1
36.00,141.23,1
43.00,128.77,1
39.00,116.37,1
91.00,104.86,1
67.00,95.03,1
86.00,86.98,1
118.00,80.96,1
142.00,77.53,1
139.00,76.84,1
184.00,78.76,1
199.00,83.43,1
222.00,90.85,1
233.00,100.70,1
188.00,112.15,1
246.00,124.23,1
203.00,136.60,1
262.00,149.03,1
197.00,161.20,1
216.00,172.32,1
182.00,181.78,1
188.00,189.31,1
143.00,194.57,1
139.00,197.22,1
139.00,197.34,1
102.00,195.20,1
99.00,190.77,1
120.00,184.57,1
70.00,177.13,1
71.00,168.34,1
37.00,158.15,1
45.00,146.77,1
43.00,134.67,1
50.00,122.51,1
58.00,110.88,1
39.00,100.08,1
101.00,90.52,1
104.00,83.11,1
120.00,78.28,1
169.00,76.31,1
155.00,77.36,1
204.00,81.23,1
187.00,87.73,1
171.00,95.98,1
221.00,105.28,1
180.00,115.47,1
222.00,126.05,1
172.00,136.52,1
265.00,146.83,1
180.00,157.11,1
202.00,166.56,1
137.00,174.18,1
166.00,179.51,1
124.00,182.52,1
130.00,183.25,1
94.00,181.67,1
94.00,177.85,1
54.00,171.81,1
52.00,163.63,1
51.00,153.76,1
40.00,142.79,1
36.00,131.12,1
44.00,119.22,1
75.00,107.88,1
64.00,97.83,1
102.00,89.49,1
97.00,83.20,1
131.00,79.20,1
172.00,77.96,1
167.00,79.74,1
163.00,84.00,1
181.00,90.06,1
170.00,97.44,1
192.00,105.72,1
189.00,114.66,1
227.00,124.24,1
180.00,134.21,1
212.00,143.96,1
150.00,152.84,1
204.00,160.45,1
153.00,166.81,1
162.00,171.69,1
108.00,174.55,1
143.00,175.28,1
115.00,174.25,1
138.00,171.94,1
74.00,168.34,1
98.00,163.23,1
63.00,156.70,1
40.00,148.71,1
39.00,139.25,1
44.00,128.81,1
42.00,118.00,1
38.00,107.26,1
63.00,97.05,1
69.00,88.01,1
83.00,80.57,1
109.00,75.10,1
127.00,72.00,1
132.00,71.34,1
153.00,72.97,1
193.00,77.02,1
174.00,83.44,1
189.00,91.57,1
179.00,100.79,1
180.00,110.47,1
192.00,120.22,1
168.00,129.73,1
215.00,138.80,1
189.00,147.61,1
178.00,155.80,1
155.00,162.67,1
178.00,168.01,1
103.00,171.59,1
121.00,172.79,1
77.00,171.46,1
115.00,167.98,1
50.00,162.69,1
52.00,155.48,1
43.00,146.43,1
38.00,136.16,1
36.00,125.14,1
40.00,113.86,1
51.00,102.89,1
53.00,92.77,1
141.00,84.48,1
114.00,79.14,1
159.00,76.83,1
144.00,77.33,1
166.00,80.23,1
195.00,85.34,1
172.00,92.40,1
168.00,100.58,1
185.00,109.19,1
166.00,117.96,1
204.00,126.69,1
165.00,135.23,1
224.00,143.52,1
197.00,151.76,1
163.00,159.47,1
133.00,165.48,1
141.00,169.29,1
123.00,171.05,1
117.00,170.89,1
100.00,168.91,1
154.00,165.70,1
83.00,161.83,1
80.00,156.85,1
35.00,150.16,1
45.00,141.69,1
52.00,132.05,1
49.00,121.99,1
60.00,112.05,1
73.00,102.78,1
100.00,94.87,1
113.00,88.91,1
133.00,85.21,1
142.00,83.90,1
127.00,84.60,1
134.00,86.71,1
172.00,90.16,1
182.00,95.24,1
175.00,101.81,1
155.00,109.12,1
185.00,116.62,1
172.00,124.23,1
210.00,132.02,1
194.00,140.09,1
211.00,148.28,1
150.00,155.94,1
161.00,162.15,1
120.00,166.40,1
144.00,168.62,1
97.00,168.91,1
122.00,167.35,1
69.00,164.02,1
88.00,158.96,1
42.00,152.19,1
43.00,143.79,1
39.00,134.02,1
40.00,123.49,1
49.00,112.80,1
57.00,102.57,1
70.00,93.33,1
98.00,85.66,1
105.00,80.06,1
89.00,76.43,1
146.00,74.70,1
155.00,75.36,1
141.00,78.31,1
198.00,83.19,1
184.00,90.11,1
188.00,98.61,1
195.00,108.03,1
205.00,118.08,1
219.00,128.64,1
174.00,139.17,1
217.00,149.05,1
162.00,157.99,1
208.00,165.75,1
168.00,172.33,1
161.00,177.47,1
128.00,180.63,1
132.00,181.56,1
104.00,180.36,1
111.00,177.23,1
85.00,172.38,1
96.00,166.12,1
45.00,158.55,1
39.00,149.43,1
39.00,138.90,1
41.00,127.62,1
51.00,116.26,1
40.00,105.31,1
62.00,95.09,1
69.00,86.11,1
110.00,78.99,1
76.00,73.99,1
90.00,70.65,1
141.00,69.07,1
148.00,69.86,1
188.00,73.31,1
167.00,79.20,1
192.00,86.96,1
180.00,96.04,1
220.00,106.15,1
198.00,117.07,1
160.00,127.93,1
206.00,137.94,1
157.00,147.00,1
240.00,155.32,1
150.00,163.00,1
187.00,169.46,1
143.00,174.28,1
135.00,177.22,1
99.00,177.83,1
143.00,176.34,1
108.00,173.45,1
116.00,169.44,1
60.00,164.11,1
64.00,157.12,1
44.00,148.54,1
62.00,138.89,1
40.00,128.65,1
72.00,118.40,1
46.00,108.59,1
50.00,99.31,1
72.00,90.77,1
137.00,84.03,1
121.00,80.00,1
142.00,78.60,1
155.00,79.55,1
151.00,82.62,1
179.00,87.47,1
200.00,94.11,1
183.00,102.32,1
168.00,111.24,1
192.00,120.22,1
159.00,128.95,1
214.00,137.30,1
164.00,145.32,1
190.00,152.66,1
163.00,159.04,1
184.00,164.41,1
123.00,168.46,1
146.00,170.72,1
58.00,170.69,1
114.00,168.12,1
66.00,163.50,1
102.00,157.46,1
55.00,150.35,1
82.00,142.42,1
36.00,133.78,1
37.00,124.37,1
45.00,114.40,1
51.00,104.50,1
63.00,95.26,1
62.00,87.07,1
66.00,80.05,1
82.00,74.35,1
135.00,70.58,1
135.00,69.40,1
150.00,70.80,1
150.00,74.36,1
166.00,79.72,1
174.00,86.58,1
169.00,94.57,1
183.00,103.29,1
229.00,112.81,1
161.00,122.93,1
201.00,132.78,1
181.00,142.04,1
200.00,150.68,1
146.00,158.28,1
160.00,164.21,1
94.00,167.93,1
139.00,169.22,1
125.00,168.72,1
127.00,167.03,1
71.00,163.94,1
94.00,159.16,1
53.00,152.81,1
43.00,144.93,1
44.00,135.67,1
56.00,125.64,1
38.00,115.45,1
71.00,105.57,1
81.00,96.73,1
96.00,89.53,1
118.00,84.35,1
158.00,81.71,1
164.00,81.97,1
215.00,85.28,1
191.00,91.49,1
184.00,99.67,1
194.00,108.87,1
162.00,118.33,1
217.00,127.70,1
159.00,136.85,1
205.00,145.40,1
155.00,153.08,1
162.00,159.44,1
109.00,163.85,1
126.00,165.96,1
66.00,165.55,1
93.00,162.65,1
60.00,157.63,1
48.00,150.71,1
46.00,142.11,1
41.00,132.35,1
45.00,121.95,1
48.00,111.50,1
84.00,101.73,1
76.00,93.36,1
104.00,86.72,1
139.00,82.32,1
138.00,80.56,1
177.00,81.47,1
168.00,84.92,1
172.00,90.44,1
189.00,97.44,1
193.00,105.67,1
207.00,114.94,1
152.00,124.45,1
232.00,133.70,1
112.00,142.32,1
205.00,149.63,1
140.00,155.71,1
183.00,160.70,1
96.00,164.15,1
119.00,165.43,1
94.00,164.49,1
86.00,161.57,1
69.00,156.78,1
84.00,150.51,1
44.00,143.09,1
53.00,134.58,1
36.00,125.21,1
59.00,115.47,1
50.00,105.93,1
48.00,96.89,1
50.00,88.43,1
63.00,80.82,1
92.00,74.59,1
127.00,70.49,1
168.00,69.30,1
138.00,71.11,1
161.00,75.13,1
184.00,81.03,1
200.00,88.87,1
197.00,98.34,1
198.00,108.81,1
146.00,119.27,1
237.00,129.30,1
163.00,139.11,1
212.00,148.37,1
154.00,156.63,1
179.00,163.51,1
151.00,168.81,1
142.00,172.38,1
74.00,173.62,1
105.00,172.07,1
71.00,168.14,1
97.00,162.45,1
43.00,155.30,1
73.00,146.84,1
38.00,137.40,1
38.00,127.23,1
55.00,116.71,1
53.00,106.52,1
74.00,97.19,1
60.00,89.04,1
78.00,82.15,1
142.00,77.16,1
137.00,74.93,1
129.00,75.28,1
158.00,77.62,1
176.00,81.99,1
179.00,88.29,1
177.00,96.07,1
190.00,104.79,1
153.00,113.82,1
198.00,122.66,1
142.00,131.04,1
205.00,138.76,1
181.00,146.09,1
199.00,153.15,1
160.00,159.56,1
156.00,164.74,1
135.00,168.25,1
129.00,169.94,1
93.00,169.59,1
78.00,166.96,1
74.00,162.11,1
73.00,155.50,1
40.00,147.49,1
39.00,138.14,1
44.00,127.77,1
49.00,117.12,1
56.00,106.79,1
69.00,97.30,1
80.00,89.14,1
119.00,82.86,1
115.00,78.93,1
129.00,77.32,1
148.00,77.83,1
158.00,80.45,1
159.00,84.97,1
177.00,90.98,1
187.00,98.33,1
184.00,106.72,1
164.00,115.53,1
175.00,124.08,1
206.00,132.44,1
152.00,140.53,1
181.00,147.75,1
158.00,153.91,1
190.00,159.17,1
121.00,163.36,1
122.00,165.72,1
96.00,165.81,1
108.00,163.85,1
70.00,160.12,1
62.00,154.51,1
45.00,147.12,1
43.00,138.26,1
54.00,128.50,1
39.00,118.39,1
40.00,108.22,1
67.00,98.46,1
49.00,89.64,1
110.00,82.24,1
103.00,76.97,1
112.00,73.94,1
141.00,73.07,1
169.00,74.62,1
180.00,78.81,1
157.00,85.03,1
194.00,92.65,1
205.00,101.60,1
190.00,111.61,1
153.00,121.64,1
198.00,130.98,1
143.00,139.46,1
208.00,147.02,1
186.00,154.06,1
196.00,160.73,1
147.00,166.47,1
155.00,170.65,1
113.00,172.89,1
119.00,173.02,1
79.00,170.93,1
84.00,166.68,1
49.00,160.41,1
65.00,152.39,1
40.00,143.05,1
38.00,132.73,1
41.00,121.79,1
57.00,110.90,1
39.00,100.57,1
76.00,91.13,1
59.00,83.02,1
91.00,76.47,1
127.00,72.01,1
134.00,70.18,1
168.00,71.12,1
180.00,74.89,1
150.00,80.87,1
203.00,88.36,1
204.00,97.43,1
196.00,107.77,1
202.00,118.65,1
180.00,129.44,1
203.00,139.68,1
154.00,148.96,1
211.00,157.05,1
167.00,164.15,1
179.00,170.10,1
136.00,174.46,1
145.00,176.91,1
139.00,177.60,1
110.00,176.67,1
89.00,173.83,1
109.00,169.22,1
50.00,163.09,1
55.00,155.23,1
44.00,145.83,1
39.00,135.38,1
48.00,124.37,1
41.00,113.35,1
52.00,102.71,1
73.00,93.04,1
91.00,84.99,1
49.00,78.58,1
115.00,73.62,1
109.00,70.64,1
138.00,69.92,1
148.00,71.47,1
170.00,75.27,1
193.00,81.30,1
191.00,89.35,1
167.00,98.65,1
186.00,108.33,1
188.00,118.10,1
186.00,127.79,1
173.00,136.99,1
226.00,145.72,1
170.00,154.09,1
206.00,161.74,1
185.00,168.55,1
157.00,174.21,1
136.00,178.00,1
150.00,179.80,1
127.00,179.87,1
114.00,178.27,1
86.00,174.78,1
97.00,169.48,1
40.00,162.50,1
50.00,153.72,1
38.00,143.42,1
45.00,132.27,1
59.00,120.97,1
59.00,110.22,1
62.00,100.37,1
79.00,91.74,1
85.00,84.67,1
112.00,79.49,1
119.00,76.49,1
161.00,75.91,1
162.00,77.98,1
211.00,82.73,1
194.00,90.03,1
198.00,99.20,1
187.00,109.35,1
186.00,119.72,1
215.00,130.03,1
148.00,139.90,1
214.00,148.76,1
203.00,157.02,1
183.00,164.74,1
141.00,171.03,1
125.00,175.02,1
76.00,176.11,1
110.00,174.29,1
72.00,170.18,1
98.00,164.34,1
46.00,157.08,1
56.00,148.41,1
80.00,138.90,1
38.00,129.16,1
52.00,119.21,1
41.00,109.22,1
63.00,99.66,1
76.00,91.11,1
86.00,84.08,1
120.00,79.01,1
139.00,76.41,1
160.00,76.52,1
171.00,79.26,1
200.00,84.51,1
167.00,91.81,1
198.00,100.39,1
187.00,109.80,1
208.00,119.77,1
204.00,130.07,1
146.00,139.90,1
253.00,148.94,1
175.00,157.72,1
216.00,165.94,1
138.00,172.86,1
141.00,177.64,1
122.00,179.89,1
138.00,179.99,1
101.00,178.25,1
120.00,174.83,1
62.00,169.80,1
86.00,163.11,1
56.00,155.03,1
48.00,145.78,1
47.00,135.57,1
48.00,124.91,1
69.00,114.43,1
56.00,104.67,1
63.00,95.82,1
72.00,88.03,1
102.00,81.75,1
104.00,77.42,1
148.00,75.35,1
152.00,75.88,1
150.00,78.77,1
184.00,83.61,1
172.00,90.27,1
169.00,98.12,1
211.00,106.79,1
186.00,116.27,1
207.00,126.17,1
179.00,135.96,1
207.00,145.29,1
156.00,153.77,1
202.00,161.09,1
127.00,167.01,1
154.00,171.02,1
110.00,172.92,1
133.00,172.86,1
108.00,171.08,1
104.00,167.80,1
89.00,163.10,1
70.00,157.06,1
43.00,149.52,1
38.00,140.48,1
44.00,130.31,1
43.00,119.68,1
44.00,109.08,1
70.00,99.08,1
91.00,90.47,1
70.00,83.60,1
101.00,78.36,1
118.00,75.02,1
137.00,73.92,1
162.00,75.25,1
173.00,79.00,1
188.00,84.97,1
188.00,92.78,1
203.00,101.99,1
161.00,111.84,1
191.00,121.54,1
215.00,131.15,1
148.00,140.48,1
217.00,148.95,1
168.00,156.65,1
222.00,163.74,1
168.00,170.15,1
165.00,175.38,1
128.00,178.73,1
126.00,179.86,1
90.00,178.67,1
81.00,175.05,1
56.00,169.01,1
71.00,161.04,1
45.00,151.66,1
52.00,141.30,1
42.00,130.31,1
48.00,119.19,1
69.00,108.51,1
55.00,98.80,1
87.00,90.35,1
127.00,83.89,1
127.00,80.07,1
129.00,78.73,1
149.00,79.51,1
156.00,82.28,1
180.00,87.01,1
185.00,93.55,1
178.00,101.48,1
192.00,110.25,1
201.00,119.58,1
185.00,129.15,1
214.00,138.65,1
171.00,147.76,1
213.00,156.15,1
161.00,163.63,1
190.00,169.89,1
144.00,174.70,1
155.00,177.82,1
100.00,178.90,1
122.00,177.73,1
86.00,174.51,1
97.00,169.55,1
50.00,162.88,1
67.00,154.61,1
55.00,145.19,1
37.00,134.96,1
52.00,124.22,1
60.00,113.62,1
68.00,103.80,1
72.00,95.12,1
77.00,87.76,1
99.00,81.96,1
145.00,78.32,1
138.00,77.31,1
143.00,78.63,1
190.00,82.09,1
195.00,87.94,1
206.00,96.00,1
207.00,105.66,1
188.00,116.17,1
195.00,126.76,1
182.00,136.89,1
209.00,146.40,1
165.00,155.11,1
226.00,162.93,1
166.00,169.96,1
169.00,175.69,1
128.00,179.44,1
137.00,181.01,1
98.00,180.37,1
115.00,177.59,1
74.00,172.94,1
98.00,166.69,1
56.00,159.10,1
78.00,150.46,1
39.00,141.00,1
41.00,130.80,1
40.00,120.06,1
55.00,109.38,1
77.00,99.52,1
67.00,91.02,1
103.00,84.15,1
95.00,79.19,1
127.00,76.28,1
180.00,75.96,1
171.00,78.65,1
188.00,83.97,1
190.00,91.35,1
174.00,100.09,1
198.00,109.50,1
196.00,119.36,1
209.00,129.54,1
183.00,139.59,1
204.00,149.05,1
143.00,157.38,1
200.00,164.21,1
159.00,169.77,1
157.00,173.97,1
89.00,176.05,1
106.00,175.46,1
79.00,172.34,1
91.00,167.20,1
54.00,160.38,1
77.00,152.17,1
38.00,142.92,1
42.00,132.79,1
43.00,122.06,1
64.00,111.46,1
56.00,101.59,1
58.00,92.66,1
89.00,84.97,1
76.00,78.92,1
131.00,74.79,1
167.00,73.34,1
179.00,75.18,1
185.00,79.98,1
180.00,87.03,1
199.00,95.67,1
201.00,105.52,1
179.00,115.97,1
195.00,126.32,1
178.00,136.18,1
207.00,145.44,1
170.00,153.97,1
211.00,161.62,1
180.00,168.48,1
153.00,174.10,1
119.00,177.62,1
126.00,178.71,1
108.00,177.57,1
116.00,174.63,1
60.00,169.93,1
75.00,163.32,1
38.00,154.96,1
40.00,145.08,1
40.00,134.08,1
51.00,122.72,1
43.00,111.56,1
42.00,100.87,1
46.00,90.85,1
108.00,82.23,1
87.00,75.84,1
145.00,72.00,1
131.00,70.89,1
149.00,72.33,1
172.00,75.98,1
177.00,81.78,1
198.00,89.50,1
198.00,98.78,1
198.00,109.13,1
181.00,119.80,1
204.00,130.25,1
168.00,140.14,1
206.00,149.19,1
187.00,157.46,1
216.00,165.13,1
166.00,171.98,1
169.00,177.44,1
157.00,181.18,1
125.00,183.07,1
85.00,182.52,1
124.00,179.55,1
73.00,174.73,1
127.00,168.59,1
52.00,161.45,1
46.00,152.99,1
43.00,143.05,1
48.00,132.27,1
40.00,121.17,1
42.00,110.13,1
52.00,99.56,1
89.00,90.17,1
95.00,82.74,1
99.00,77.48,1
120.00,74.34,1
126.00,73.34,1
155.00,74.50,1
195.00,78.16,1
158.00,84.18,1
202.00,91.85,1
206.00,101.00,1
181.00,111.21,1
208.00,121.70,1
182.00,132.07,1
223.00,142.16,1
193.00,151.90,1
238.00,161.30,1
162.00,169.97,1
165.00,176.95,1
150.00,181.69,1
127.00,184.18,1
92.00,184.04,1
101.00,181.27,1
54.00,176.07,1
80.00,168.70,1
56.00,159.74,1
46.00,149.63,1
44.00,138.61,1
48.00,127.13,1
56.00,115.83,1
56.00,105.20,1
82.00,95.71,1
87.00,87.87,1
109.00,82.04,1
126.00,78.46,1
143.00,77.36,1
161.00,78.72,1
180.00,82.46,1
210.00,88.61,1
196.00,96.96,1
180.00,106.54,1
210.00,116.63,1
191.00,126.98,1
220.00,137.36,1
166.00,147.29,1
218.00,156.32,1
175.00,164.45,1
211.00,171.62,1
155.00,177.62,1
154.00,181.88,1
138.00,184.08,1
123.00,184.23,1
96.00,182.23,1
121.00,178.28,1
84.00,172.89,1
85.00,166.15,1
38.00,157.96,1
39.00,148.16,1
48.00,137.14,1
38.00,125.65,1
58.00,114.28,1
56.00,103.60,1
83.00,94.14,1
99.00,86.50,1
103.00,81.01,1
123.00,77.69,1
136.00,76.62,1
159.00,77.88,1
178.00,81.47,1
208.00,87.46,1
204.00,95.70,1
222.00,105.71,1
208.00,116.89,1
183.00,128.32,1
212.00,139.25,1
186.00,149.51,1
213.00,158.94,1
175.00,167.36,1
218.00,174.68,1
137.00,180.65,1
197.00,184.90,1
110.00,187.30,1
116.00,187.32,1
99.00,184.82,1
88.00,180.14,1
74.00,173.52,1
112.00,165.65,1
36.00,156.95,1
41.00,146.97,1
40.00,135.85,1
45.00,124.29,1
55.00,112.92,1
55.00,102.28,1
63.00,92.71,1
98.00,84.67,1
118.00,78.87,1
100.00,75.45,1
141.00,74.15,1
186.00,75.38,1
160.00,79.45,1
215.00,85.85,1
214.00,94.50,1
193.00,104.86,1
194.00,115.86,1
194.00,126.78,1
208.00,137.41,1
161.00,147.33,1
226.00,156.24,1
154.00,164.19,1
202.00,170.89,1
160.00,176.26,1
167.00,180.21,1
139.00,182.48,1
121.00,182.84,1
80.00,180.86,1
99.00,176.51,1
63.00,170.18,1
86.00,162.33,1
48.00,153.34,1
42.00,143.26,1
37.00,132.24,1
48.00,120.86,1
75.00,109.94,1
73.00,100.24,1
49.00,91.79,1
79.00,84.40,1
127.00,78.76,1
116.00,75.59,1
167.00,75.02,1
164.00,77.16,1
207.00,82.08,1
196.00,89.51,1
177.00,98.62,1
205.00,108.56,1
209.00,119.10,1
167.00,129.72,1
231.00,139.91,1
174.00,149.65,1
226.00,158.77,1
166.00,166.99,1
180.00,173.82,1
115.00,178.56,1
139.00,180.78,1
110.00,180.64,1
96.00,178.34,1
82.00,173.89,1
106.00,167.79,1
62.00,160.54,1
63.00,152.16,1
48.00,142.73,1
52.00,132.56,1
40.00,122.03,1
61.00,111.58,1
66.00,101.83,1
66.00,93.19,1
96.00,85.98,1
110.00,80.70,1
157.00,77.96,1
186.00,78.34,1
193.00,82.01,1
179.00,88.29,1
196.00,96.30,1
220.00,105.75,1
205.00,116.39,1
181.00,127.34,1
224.00,138.00,1
189.00,148.29,1
216.00,157.97,1
176.00,166.69,1
204.00,174.19,1
154.00,180.23,1
151.00,184.33,1
132.00,186.22,1
113.00,185.87,1
118.00,183.38,1
108.00,179.22,1
70.00,173.48,1
80.00,166.10,1
40.00,157.22,1
43.00,146.97,1
62.00,135.89,1
52.00,124.80,1
50.00,114.03,1
57.00,103.81,1
65.00,94.50,1
71.00,86.44,1
100.00,80.01,1
158.00,76.01,1
145.00,75.08,1
190.00,77.17,1
220.00,82.34,1
225.00,90.65,1
198.00,101.15,1
209.00,112.68,1
190.00,124.37,1
194.00,135.62,1
214.00,146.22,1
160.00,155.91,1
240.00,164.52,1
167.00,172.29,1
213.00,179.00,1
158.00,184.39,1
194.00,188.37,1
136.00,190.81,1
144.00,191.38,1
87.00,189.71,1
128.00,185.88,1
53.00,180.06,1
91.00,172.39,1
44.00,163.18,1
44.00,152.62,1
42.00,141.00,1
38.00,128.86,1
57.00,116.83,1
58.00,105.54,1
75.00,95.53,1
95.00,87.26,1
115.00,81.25,1
126.00,77.72,1
127.00,76.54,1
163.00,77.60,1
176.00,81.04,1
222.00,87.08,1
207.00,95.61,1
217.00,105.95,1
199.00,117.24,1
186.00,128.55,1
215.00,139.39,1
169.00,149.52,1
211.00,158.59,1
183.00,166.64,1
198.00,173.65,1
153.00,179.28,1
158.00,183.10,1
120.00,184.78,1
116.00,184.19,1
71.00,181.13,1
97.00,175.75,1
53.00,168.47,1
54.00,159.49,1
36.00,148.99,1
43.00,137.49,1
52.00,125.66,1
60.00,114.23,1
48.00,103.59,1
76.00,94.00,1
104.00,86.11,1
95.00,80.41,1
136.00,76.98,1
169.00,76.27,1
180.00,78.62,1
207.00,83.92,1
183.00,91.60,1
203.00,100.80,1
211.00,111.06,1
192.00,121.94,1
217.00,132.88,1
186.00,143.50,1
226.00,153.58,1
170.00,162.83,1
230.00,171.06,1
164.00,178.23,1
181.00,183.88,1
176.00,187.91,1
187.00,190.71,1
104.00,191.94,1
119.00,190.78,1
76.00,187.05,1
106.00,181.17,1
68.00,173.61,1
62.00,164.65,1
39.00,154.33,1
39.00,142.87,1
51.00,130.82,1
67.00,119.04,1
62.00,108.20,1
75.00,98.58,1
106.00,90.63,1
81.00,84.64,1
124.00,80.53,1
156.00,78.74,1
172.00,79.80,1
189.00,83.68,1
188.00,90.01,1
218.00,98.30,1
188.00,108.08,1
208.00,118.60,1
236.00,129.61,1
195.00,140.91,1
235.00,151.98,1
183.00,162.38,1
236.00,171.83,1
159.00,180.06,1
168.00,186.32,1
112.00,189.93,1
125.00,190.68,1
91.00,188.67,1
130.00,184.52,1
38.00,178.48,1
91.00,170.46,1
38.00,160.82,1
43.00,149.91,1
38.00,138.03,1
61.00,125.90,1
53.00,114.28,1
73.00,103.67,1
90.00,94.56,1
71.00,87.19,1
122.00,81.62,1
133.00,78.41,1
161.00,77.91,1
190.00,80.29,1
173.00,85.34,1
213.00,92.54,1
181.00,101.41,1
234.00,111.49,1
191.00,122.42,1
191.00,133.35,1
230.00,143.87,1
168.00,153.88,1
224.00,162.92,1
181.00,171.00,1
220.00,178.15,1
153.00,184.09,1
143.00,188.02,1
105.00,189.31,1
124.00,187.99,1
98.00,184.51,1
113.00,179.33,1
66.00,172.69,1
80.00,164.61,1
43.00,155.25,1
56.00,144.84,1
39.00,133.75,1
40.00,122.34,1
75.00,111.23,1
76.00,101.32,1
87.00,93.03,1
105.00,86.59,1
107.00,82.17,1
129.00,79.79,1
150.00,79.61,1
172.00,81.81,1
186.00,86.39,1
224.00,93.34,1
196.00,102.37,1
210.00,112.70,1
232.00,123.83,1
186.00,135.31,1
221.00,146.39,1
182.00,156.65,1
220.00,165.93,1
194.00,174.24,1
218.00,181.62,1
168.00,187.82,1
173.00,192.33,1
137.00,194.77,1
141.00,195.04,1
98.00,193.09,1
157.00,189.30,1
61.00,184.08,1
104.00,177.19,1
45.00,168.68,1
40.00,158.52,1
43.00,146.94,1
47.00,134.72,1
53.00,122.51,1
53.00,110.88,1
91.00,100.44,1
107.00,92.02,1
147.00,86.31,1
157.00,83.76,1
165.00,84.26,1
200.00,87.54,1
179.00,93.31,1
196.00,100.83,1
203.00,109.59,1
216.00,119.41,1
228.00,130.03,1
193.00,140.98,1
241.00,151.69,1
185.00,161.92,1
202.00,171.06,1
172.00,178.64,1
185.00,184.53,1
147.00,188.62,1
135.00,190.55,1
106.00,190.05,1
121.00,187.27,1
69.00,182.42,1
118.00,175.79,1
49.00,167.86,1
51.00,158.49,1
42.00,147.70,1
48.00,136.15,1
56.00,124.48,1
48.00,113.22,1
112.00,103.11,1
105.00,95.12,1
107.00,89.45,1
108.00,85.70,1
126.00,83.72,1
161.00,83.75,1
161.00,86.02,1
212.00,90.63,1
186.00,97.53,1
217.00,106.15,1
210.00,116.08,1
219.00,126.87,1
226.00,138.09,1
175.00,149.05,1
208.00,158.93,1
200.00,167.72,1
226.00,175.74,1
184.00,182.94,1
200.00,188.93,1
178.00,193.52,1
164.00,196.56,1
140.00,197.71,1
128.00,196.77,1
99.00,193.65,1
101.00,188.42,1
48.00,181.11,1
61.00,171.67,1
46.00,160.59,1
40.00,148.47,1
43.00,135.71,1
82.00,123.23,1
64.00,111.91,1
85.00,102.05,1
106.00,93.98,1
145.00,88.42,1
144.00,85.77,1
195.00,86.10,1
182.00,89.44,1
187.00,95.24,1
196.00,102.72,1
198.00,111.43,1
228.00,121.18,1
221.00,131.79,1
232.00,142.98,1
189.00,153.98,1
211.00,164.04,1
191.00,172.89,1
216.00,180.59,1
170.00,187.02,1
134.00,191.43,1
95.00,192.88,1
131.00,191.31,1
64.00,187.29,1
108.00,181.06,1
64.00,173.17,1
85.00,164.09,1
36.00,154.00,1
55.00,142.97,1
67.00,131.61,1
69.00,120.74,1
81.00,110.86,1
96.00,102.39,1
127.00,95.87,1
134.00,91.77,1
166.00,90.29,1
191.00,91.63,1
189.00,95.72,1
211.00,102.16,1
222.00,110.59,1
204.00,120.46,1
233.00,131.15,1
201.00,142.15,1
238.00,153.05,1
189.00,163.44,1
198.00,172.67,1
168.00,180.18,1
171.00,185.76,1
132.00,189.15,1
127.00,190.06,1
54.00,188.08,1
72.00,182.88,1
40.00,174.83,1
41.00,164.51,1
46.00,152.60,1
68.00,140.16,1
58.00,128.04,1
63.00,116.64,1
92.00,106.41,1
86.00,97.87,1
153.00,91.60,1
146.00,88.23,1
165.00,87.84,1
168.00,89.95,1
183.00,94.23,1
218.00,100.61,1
226.00,109.09,1
220.00,119.27,1
215.00,130.33,1
223.00,141.64,1
214.00,152.77,1
182.00,163.06,1
232.00,172.19,1
194.00,180.37,1
204.00,187.44,1
160.00,192.91,1
174.00,196.47,1
138.00,197.99,1
138.00,197.45,1
110.00,194.85,1
103.00,190.21,1
51.00,183.40,1
60.00,174.36,1
38.00,163.46,1
48.00,151.28,1
49.00,138.54,1
52.00,125.94,1
69.00,114.02,1
84.00,103.45,1
98.00,94.77,1
107.00,88.25,1
190.00,84.50,1
162.00,84.25,1
179.00,87.04,1
211.00,92.30,1
205.00,99.93,1
234.00,109.50,1
202.00,120.40,1
207.00,131.69,1
269.00,143.21,1
200.00,155.05,1
216.00,166.24,1
208.00,176.19,1
232.00,185.06,1
200.00,192.90,1
186.00,199.23,1
154.00,203.47,1
149.00,205.27,1
78.00,204.24,1
124.00,200.24,1
70.00,193.86,1
107.00,185.61,1
52.00,176.01,1
63.00,165.17,1
39.00,153.28,1
39.00,140.67,1
39.00,127.74,1
51.00,115.07,1
80.00,103.47,1
65.00,93.51,1
103.00,85.44,1
129.00,79.77,1
164.00,77.22,1
174.00,77.94,1
168.00,81.52,1
197.00,87.40,1
201.00,95.27,1
221.00,104.86,1
225.00,115.84,1
204.00,127.58,1
207.00,139.22,1
199.00,150.21,1
221.00,160.42,1
200.00,169.83,1
236.00,178.44,1
198.00,186.27,1
206.00,192.99,1
195.00,198.38,1
175.00,202.28,1
128.00,204.13,1
135.00,203.42,1
94.00,200.24,1
96.00,194.65,1
62.00,186.83,1
56.00,177.01,1
43.00,165.49,1
48.00,152.84,1
46.00,139.71,1
58.00,126.76,1
68.00,114.63,1
93.00,103.99,1
92.00,95.32,1
105.00,88.75,1
178.00,84.80,1
184.00,84.35,1
170.00,87.15,1
216.00,92.50,1
207.00,100.19,1
207.00,109.64,1
215.00,120.11,1
204.00,131.07,1
244.00,142.24,1
186.00,153.28,1
241.00,163.70,1
167.00,173.11,1
225.00,181.15,1
171.00,187.78,1
181.00,192.80,1
116.00,195.61,1
143.00,195.89,1
87.00,193.64,1
126.00,189.20,1
72.00,182.99,1
71.00,174.99,1
39.00,165.20,1
50.00,153.95,1
42.00,141.81,1
55.00,129.44,1
82.00,117.70,1
55.00,107.15,1
101.00,98.01,1
94.00,90.73,1
135.00,85.71,1
152.00,83.34,1
219.00,84.24,1
211.00,88.78,1
196.00,96.19,1
219.00,105.42,1
223.00,116.05,1
200.00,127.43,1
251.00,139.11,1
212.00,150.95,1
220.00,162.36,1
189.00,172.60,1
229.00,181.52,1
172.00,189.07,1
182.00,194.79,1
165.00,198.48,1
119.00,199.94,1
112.00,198.72,1
123.00,195.04,1
80.00,189.42,1
92.00,181.99,1
53.00,172.96,1
43.00,162.33,1
48.00,150.45,1
44.00,137.94,1
58.00,125.45,1
51.00,113.56,1
79.00,102.74,1
89.00,93.59,1
128.00,86.71,1
135.00,82.59,1
161.00,81.35,1
183.00,83.00,1
169.00,87.27,1
213.00,93.70,1
201.00,102.10,1
215.00,111.98,1
248.00,123.05,1
213.00,135.04,1
273.00,147.52,1
205.00,160.09,1
244.00,172.00,1
197.00,182.72,1
185.00,191.64,1
157.00,198.06,1
166.00,201.90,1
127.00,203.24,1
128.00,202.08,1
113.00,198.62,1
135.00,193.43,1
45.00,186.65,1
68.00,177.72,1
49.00,166.93,1
41.00,154.92,1
56.00,142.21,1
43.00,129.47,1
53.00,117.11,1
80.00,105.73,1
102.00,96.19,1
108.00,89.02,1
136.00,84.36,1
152.00,82.42,1
214.00,83.60,1
201.00,88.17,1
197.00,95.44,1
217.00,104.50,1
218.00,114.98,1
206.00,126.23,1
251.00,137.88,1
195.00,149.65,1
274.00,161.20,1
182.00,172.30,1
248.00,182.35,1
199.00,191.21,1
207.00,198.67,1
166.00,204.21,1
141.00,207.27,1
115.00,207.35,1
120.00,204.61,1
86.00,199.43,1
129.00,192.35,1
52.00,183.87,1
67.00,173.83,1
35.00,162.29,1
52.00,149.69,1
72.00,136.93,1
57.00,124.80,1
68.00,113.54,1
76.00,103.46,1
114.00,95.13,1
145.00,89.40,1
151.00,86.66,1
196.00,87.04,1
178.00,90.43,1
213.00,96.36,1
203.00,104.33,1
192.00,113.67,1
226.00,123.75,1
216.00,134.43,1
239.00,145.50,1
190.00,156.40,1
256.00,166.75,1
191.00,176.50,1
228.00,185.23,1
181.00,192.58,1
162.00,198.01,1
127.00,200.83,1
117.00,200.69,1
80.00,197.61,1
120.00,191.99,1
81.00,184.66,1
107.00,176.20,1
36.00,166.65,1
48.00,155.75,1
47.00,143.78,1
60.00,131.61,1
76.00,120.01,1
70.00,109.56,1
104.00,100.64,1
132.00,93.91,1
142.00,89.91,1
186.00,88.88,1
192.00,91.00,1
213.00,96.05,1
200.00,103.47,1
216.00,112.53,1
217.00,122.72,1
208.00,133.49,1
215.00,144.26,1
201.00,154.60,1
228.00,164.34,1
203.00,173.41,1
249.00,181.87,1
198.00,189.71,1
200.00,196.39,1
151.00,201.14,1
161.00,203.58,1
118.00,203.57,1
111.00,200.98,1
104.00,196.04,1
108.00,189.34,1
36.00,180.90,1
44.00,170.36,1
44.00,158.12,1
40.00,144.99,1
58.00,131.73,1
46.00,118.98,1
75.00,107.21,1
116.00,97.31,1
135.00,90.22,1
147.00,86.26,1
179.00,85.45,1
186.00,87.72,1
198.00,92.74,1
226.00,100.16,1
210.00,109.61,1
214.00,120.31,1
239.00,131.72,1
214.00,143.55,1
248.00,155.37,1
200.00,166.73,1
235.00,177.16,1
198.00,186.40,1
214.00,194.24,1
148.00,200.17,1
139.00,203.41,1
112.00,203.61,1
100.00,200.87,1
58.00,195.17,1
88.00,186.89,1
43.00,176.71,1
49.00,164.93,1
46.00,152.06,1
54.00,138.87,1
73.00,126.12,1
84.00,114.61,1
81.00,104.73,1
127.00,96.84,1
125.00,91.45,1
144.00,88.65,1
154.00,88.28,1
167.00,90.25,1
185.00,94.33,1
197.00,100.37,1
226.00,108.33,1
220.00,118.00,1
226.00,128.81,1
193.00,139.95,1
269.00,151.06,1
188.00,162.12,1
235.00,172.45,1
176.00,181.49,1
158.00,188.51,1
138.00,192.81,1
132.00,194.39,1
103.00,193.34,1
124.00,189.96,1
72.00,184.62,1
85.00,177.39,1
39.00,168.38,1
59.00,157.77,1
41.00,146.14,1
45.00,134.02,1
59.00,121.96,1
49.00,110.52,1
70.00,100.05,1
66.00,90.89,1
123.00,83.62,1
110.00,78.84,1
138.00,76.58,1
187.00,77.08,1
194.00,80.75,1
221.00,87.44,1
204.00,96.58,1
234.00,107.50,1
216.00,119.62,1
210.00,132.11,1
240.00,144.46,1
214.00,156.55,1
230.00,167.98,1
201.00,178.34,1
223.00,187.38,1
172.00,194.83,1
202.00,200.41,1
151.00,204.04,1
162.00,205.57,1
127.00,204.90,1
127.00,202.10,1
79.00,197.12,1
84.00,189.81,1
50.00,180.45,1
54.00,169.32,1
37.00,156.89,1
47.00,143.68,1
59.00,130.46,1
57.00,117.94,1
97.00,106.76,1
81.00,97.47,1
120.00,90.33,1
112.00,85.49,1
159.00,83.14,1
174.00,83.58,1
191.00,86.93,1
230.00,93.14,1
211.00,101.94,1
242.00,112.66,1
199.00,124.50,1
186.00,136.21,1
243.00,147.34,1
200.00,158.13,1
243.00,168.42,1
179.00,177.82,1
217.00,185.85,1
172.00,192.29,1
142.00,196.63,1
112.00,198.13,1
125.00,196.77,1
78.00,192.88,1
127.00,186.94,1
72.00,179.60,1
70.00,170.90,1
42.00,160.76,1
54.00,149.48,1
48.00,137.61,1
56.00,125.74,1
65.00,114.42,1
63.00,104.10,1
98.00,95.20,1
80.00,88.09,1
120.00,82.90,1
149.00,80.08,1
167.00,80.11,1
182.00,83.02,1
188.00,88.41,1
226.00,96.08,1
218.00,105.88,1
221.00,117.14,1
221.00,129.09,1
222.00,141.24,1
231.00,153.20,1
205.00,164.57,1
252.00,175.15,1
187.00,184.81,1
210.00,192.95,1
174.00,199.22,1
166.00,203.38,1
141.00,205.17,1
135.00,204.57,1
98.00,201.57,1
114.00,196.25,1
58.00,188.88,1
70.00,179.53,1
37.00,168.38,1
46.00,155.88,1
48.00,142.71,1
72.00,129.74,1
69.00,117.77,1
76.00,107.13,1
116.00,98.30,1
124.00,91.93,1
134.00,88.16,1
135.00,86.71,1
173.00,87.51,1
193.00,90.79,1
226.00,96.78,1
222.00,105.31,1
206.00,115.57,1
223.00,126.65,1
243.00,138.28,1
204.00,150.12,1
230.00,161.43,1
200.00,171.83,1
222.00,181.10,1
213.00,189.24,1
223.00,196.37,1
148.00,201.96,1
142.00,204.97,1
89.00,204.79,1
124.00,201.55,1
40.00,195.51,1
87.00,186.85,1
38.00,176.17,1
40.00,163.91,1
47.00,150.52,1
47.00,136.87,1
63.00,123.66,1
85.00,111.66,1
102.00,101.62,1
124.00,94.03,1
121.00,89.08,1
139.00,86.54,1
170.00,86.45,1
188.00,89.05,1
199.00,94.24,1
243.00,101.89,1
214.00,111.78,1
223.00,122.99,1
224.00,134.74,1
222.00,146.60,1
252.00,158.37,1
204.00,169.77,1
239.00,180.24,1
199.00,189.52,1
227.00,197.45,1
187.00,203.88,1
199.00,208.64,1
150.00,211.45,1
141.00,211.83,1
76.00,209.33,1
108.00,203.83,1
67.00,195.86,1
91.00,186.10,1
43.00,174.94,1
47.00,162.51,1
53.00,149.27,1
48.00,135.93,1
63.00,123.05,1
66.00,111.17,1
98.00,100.89,1
99.00,92.73,1
138.00,87.08,1
164.00,84.36,1
193.00,84.98,1
222.00,89.00,1
192.00,95.98,1
239.00,105.08,1
231.00,115.94,1
224.00,128.00,1
234.00,140.48,1
209.00,152.75,1
234.00,164.35,1
210.00,175.07,1
248.00,184.88,1
202.00,193.73,1
198.00,201.07,1
169.00,206.34,1
158.00,209.28,1
131.00,209.69,1
146.00,207.76,1
107.00,203.82,1
116.00,198.00,1
64.00,190.32,1
55.00,180.66,1
36.00,169.06,1
46.00,156.08,1
54.00,142.55,1
58.00,129.30,1
75.00,116.98,1
87.00,106.19,1
137.00,97.67,1
135.00,92.05,1
158.00,89.41,1
167.00,89.55,1
191.00,92.37,1
229.00,97.94,1
222.00,106.14,1
230.00,116.37,1
253.00,128.06,1
221.00,140.64,1
241.00,153.29,1
183.00,165.16,1
240.00,175.72,1
200.00,185.06,1
222.00,193.17,1
170.00,199.67,1
165.00,204.00,1
121.00,205.69,1
110.00,204.41,1
80.00,200.15,1
115.00,193.50,1
48.00,184.94,1
56.00,174.53,1
38.00,162.50,1
37.00,149.35,1
96.00,136.14,1
57.00,123.95,1
90.00,113.08,1
98.00,103.84,1
123.00,96.77,1
152.00,92.29,1
158.00,90.68,1
202.00,92.01,1
192.00,96.21,1
212.00,102.82,1
223.00,111.39,1
228.00,121.58,1
224.00,132.75,1
214.00,144.22,1
244.00,155.59,1
190.00,166.44,1
244.00,176.37,1
174.00,185.13,1
198.00,192.19,1
172.00,197.32,1
171.00,200.60,1
127.00,201.76,1
138.00,200.64,1
77.00,197.09,1
111.00,191.23,1
43.00,183.30,1
73.00,173.43,1
40.00,162.10,1
58.00,149.87,1
66.00,137.46,1
60.00,125.55,1
82.00,114.56,1
67.00,104.83,1
121.00,96.76,1
108.00,90.88,1
148.00,87.42,1
162.00,86.58,1
182.00,88.51,1
214.00,93.18,1
209.00,100.40,1
212.00,109.54,1
227.00,119.95,1
206.00,131.09,1
238.00,142.49,1
159.00,153.40,1
257.00,163.35,1
196.00,172.69,1
221.00,181.27,1
186.00,188.61,1
180.00,194.34,1
142.00,197.93,1
142.00,199.13,1
99.00,197.80,1
104.00,193.87,1
66.00,187.56,1
83.00,179.22,1
41.00,169.19,1
38.00,157.65,1
52.00,145.06,1
42.00,132.20,1
72.00,119.79,1
58.00,108.41,1
75.00,98.36,1
94.00,89.96,1
147.00,84.00,1
175.00,81.36,1
176.00,82.22,1
205.00,86.20,1
203.00,92.92,1
221.00,101.84,1
207.00,112.32,1
216.00,123.62,1
225.00,135.27,1
204.00,146.86,1
237.00,158.02,1
190.00,168.45,1
261.00,178.06,1
199.00,187.01,1
224.00,194.93,1
138.00,200.99,1
127.00,204.09,1
108.00,203.83,1
133.00,200.80,1
61.00,195.43,1
89.00,187.73,1
49.00,178.04,1
58.00,166.79,1
37.00,154.37,1
51.00,141.34,1
54.00,128.35,1
82.00,116.23,1
111.00,105.89,1
114.00,98.01,1
144.00,92.77,1
168.00,90.41,1
195.00,91.20,1
195.00,95.00,1
203.00,101.24,1
212.00,109.37,1
232.00,119.05,1
208.00,129.78,1
227.00,140.87,1
226.00,151.98,1
239.00,162.99,1
215.00,173.57,1
254.00,183.49,1
214.00,192.71,1
221.00,200.80,1
172.00,207.16,1
181.00,211.30,1
140.00,213.02,1
102.00,211.90,1
78.00,207.55,1
102.00,200.29,1
68.00,191.03,1
66.00,180.22,1
38.00,167.95,1
49.00,154.68,1
38.00,140.93,1
55.00,127.28,1
64.00,114.46,1
87.00,103.16,1
146.00,94.35,1
134.00,88.78,1
160.00,86.33,1
189.00,86.92,1
191.00,90.51,1
225.00,96.81,1
202.00,105.35,1
237.00,115.53,1
248.00,127.07,1
199.00,139.37,1
230.00,151.33,1
200.00,162.52,1
256.00,172.98,1
223.00,182.95,1
255.00,192.37,1
200.00,200.90,1
214.00,207.92,1
158.00,212.87,1
173.00,215.42,1
127.00,215.45,1
124.00,212.92,1
98.00,207.87,1
97.00,200.59,1
67.00,191.40,1
59.00,180.49,1
41.00,168.12,1
43.00,154.64,1
52.00,140.76,1
49.00,127.18,1
57.00,114.36,1
97.00,102.98,1
109.00,93.91,1
107.00,87.39,1
149.00,83.47,1
172.00,82.48,1
206.00,84.80,1
238.00,90.54,1
233.00,99.44,1
251.00,110.79,1
225.00,123.68,1
211.00,136.95,1
223.00,149.69,1
209.00,161.58,1
252.00,172.65,1
229.00,183.13,1
250.00,192.99,1
224.00,201.97,1
205.00,209.59,1
167.00,215.07,1
166.00,217.96,1
130.00,218.11,1
146.00,215.73,1
116.00,211.25,1
121.00,204.95,1
61.00,196.85,1
80.00,186.88,1
39.00,175.29,1
45.00,162.37,1
40.00,148.60,1
49.00,134.64,1
80.00,121.38,1
77.00,109.66,1
110.00,99.97,1
122.00,92.77,1
158.00,88.46,1
192.00,87.46,1
194.00,89.89,1
228.00,95.44,1
220.00,103.71,1
250.00,114.16,1
226.00,126.17,1
247.00,138.99,1
269.00,152.32,1
212.00,165.64,1
258.00,178.16,1
232.00,189.72,1
222.00,200.04,1
211.00,208.59,1
188.00,215.07,1
153.00,218.99,1
146.00,219.98,1
117.00,218.10,1
133.00,213.71,1
77.00,207.10,1
91.00,198.35,1
44.00,187.61,1
45.00,175.10,1
40.00,161.23,1
47.00,146.80,1
65.00,132.61,1
62.00,119.41,1
109.00,107.89,1
129.00,98.96,1
178.00,93.40,1
182.00,91.64,1
188.00,93.33,1
229.00,98.03,1
222.00,105.58,1
231.00,115.32,1
243.00,126.59,1
244.00,138.93,1
265.00,151.97,1
206.00,164.96,1
266.00,177.18,1
233.00,188.63,1
248.00,199.19,1
202.00,208.32,1
181.00,215.24,1
166.00,219.43,1
152.00,220.84,1
112.00,219.39,1
141.00,215.29,1
93.00,209.08,1
76.00,200.75,1
53.00,190.28,1
42.00,177.90,1
54.00,164.19,1
46.00,149.98,1
54.00,135.86,1
61.00,122.42,1
91.00,110.37,1
102.00,100.42,1
127.00,93.03,1
141.00,88.43,1
169.00,86.83,1
220.00,88.51,1
195.00,93.48,1
230.00,101.09,1
229.00,110.85,1
230.00,122.17,1
252.00,134.51,1
211.00,147.26,1
257.00,159.77,1
226.00,171.85,1
264.00,183.39,1
234.00,194.27,1
260.00,204.31,1
211.00,213.17,1
200.00,220.14,1
170.00,224.63,1
179.00,226.56,1
108.00,225.81,1
142.00,222.22,1
88.00,216.11,1
116.00,207.92,1
48.00,197.88,1
108.00,186.36,1
40.00,173.97,1
44.00,160.70,1
48.00,146.77,1
48.00,132.88,1
61.00,119.63,1
97.00,107.82,1
86.00,98.09,1
113.00,90.61,1
149.00,85.73,1
184.00,84.08,1
202.00,86.07,1
246.00,91.61,1
224.00,100.37,1
248.00,111.54,1
258.00,124.45,1
237.00,138.42,1
244.00,152.56,1
210.00,165.98,1
275.00,178.45,1
234.00,190.26,1
261.00,201.23,1
211.00,210.91,1
224.00,218.79,1
159.00,224.28,1
174.00,226.96,1
148.00,226.90,1
132.00,224.29,1
91.00,219.07,1
92.00,211.20,1
54.00,200.97,1
52.00,188.54,1
41.00,174.53,1
40.00,159.54,1
57.00,144.35,1
67.00,129.86,1
111.00,117.05,1
82.00,106.51,1
133.00,98.35,1
171.00,93.18,1
189.00,91.64,1
219.00,93.80,1
204.00,99.19,1
225.00,107.02,1
221.00,116.64,1
226.00,127.48,1
250.00,139.12,1
219.00,151.19,1
254.00,163.14,1
233.00,174.76,1
269.00,185.99,1
226.00,196.61,1
251.00,206.22,1
215.00,214.49,1
209.00,221.05,1
180.00,225.45,1
180.00,227.53,1
126.00,227.11,1
153.00,224.14,1
97.00,218.86,1
121.00,211.49,1
78.00,202.36,1
70.00,191.59,1
39.00,179.21,1
46.00,165.46,1
39.00,150.93,1
56.00,136.40,1
57.00,122.56,1
74.00,110.01,1
120.00,99.52,1
130.00,91.94,1
149.00,87.50,1
186.00,86.30,1
208.00,88.53,1
238.00,94.24,1
224.00,102.94,1
228.00,113.69,1
252.00,125.81,1
233.00,138.84,1
264.00,152.25,1
220.00,165.50,1
249.00,177.98,1
218.00,189.31,1
256.00,199.44,1
228.00,208.47,1
230.00,216.22,1
190.00,222.22,1
186.00,226.02,1
143.00,227.26,1
153.00,225.81,1
90.00,221.69,1
125.00,215.04,1
72.00,206.23,1
59.00,195.44,1
39.00,182.67,1
42.00,168.34,1
43.00,153.28,1
48.00,138.22,1
76.00,123.97,1
109.00,111.59,1
108.00,101.82,1
133.00,94.81,1
139.00,90.60,1
174.00,89.24,1
198.00,90.90,1
184.00,95.37,1
237.00,102.25,1
246.00,111.56,1
228.00,122.83,1
230.00,135.05,1
265.00,147.77,1
224.00,160.68,1
286.00,173.43,1
222.00,185.83,1
248.00,197.19,1
210.00,206.98,1
192.00,214.67,1
174.00,219.78,1
168.00,222.22,1
126.00,221.96,1
134.00,219.02,1
75.00,213.41,1
101.00,205.22,1
42.00,194.87,1
69.00,182.66,1
46.00,169.21,1
39.00,155.05,1
46.00,140.58,1
57.00,126.49,1
86.00,113.62,1
102.00,102.82,1
132.00,94.71,1
189.00,90.05,1
196.00,89.38,1
191.00,92.33,1
234.00,98.30,1
241.00,107.05,1
222.00,117.92,1
232.00,129.92,1
261.00,142.59,1
220.00,155.55,1
261.00,168.24,1
211.00,180.21,1
212.00,190.74,1
188.00,199.23,1
185.00,205.47,1
137.00,209.15,1
142.00,209.93,1
101.00,207.88,1
102.00,203.15,1
54.00,195.74,1
42.00,185.68,1
44.00,173.38,1
53.00,159.76,1
64.00,145.87,1
74.00,132.57,1
127.00,120.89,1
128.00,111.79,1
162.00,105.70,1
186.00,102.85,1
206.00,103.42,1
236.00,107.30,1
235.00,114.26,1
245.00,123.62,1
241.00,134.66,1
239.00,146.61,1
262.00,158.96,1
238.00,171.36,1
280.00,183.52,1
222.00,195.12,1
259.00,205.60,1
222.00,214.72,1
185.00,221.90,1
187.00,226.46,1
183.00,228.59,1
122.00,228.23,1
136.00,225.05,1
92.00,219.23,1
120.00,211.17,1
50.00,201.25,1
73.00,189.44,1
39.00,176.13,1
43.00,161.82,1
52.00,147.06,1
54.00,132.65,1
66.00,119.18,1
95.00,107.32,1
126.00,97.94,1
103.00,91.28,1
187.00,87.48,1
192.00,87.23,1
195.00,90.50,1
233.00,96.71,1
224.00,105.55,1
236.00,116.39,1
249.00,128.58,1
222.00,141.48,1
253.00,154.46,1
215.00,167.01,1
254.00,178.78,1
221.00,189.62,1
244.00,199.36,1
204.00,207.71,1
217.00,214.38,1
154.00,218.90,1
162.00,220.76,1
109.00,219.72,1
130.00,215.86,1
86.00,209.53,1
88.00,201.03,1
41.00,190.38,1
45.00,177.75,1
52.00,163.79,1
48.00,149.40,1
74.00,135.33,1
74.00,122.40,1
96.00,111.15,1
127.00,102.19,1
158.00,96.20,1
189.00,93.67,1
210.00,94.81,1
237.00,99.52,1
220.00,107.25,1
235.00,117.14,1
234.00,128.42,1
248.00,140.61,1
254.00,153.37,1
227.00,166.12,1
268.00,178.37,1
227.00,189.97,1
264.00,200.64,1
218.00,210.16,1
221.00,218.05,1
198.00,223.93,1
192.00,227.67,1
140.00,228.94,1
146.00,227.45,1
109.00,223.28,1
125.00,216.74,1
74.00,208.20,1
73.00,197.70,1
36.00,185.31,1
40.00,171.31,1
44.00,156.36,1
48.00,141.28,1
63.00,126.82,1
67.00,113.64,1
116.00,102.44,1
67.00,93.57,1
133.00,86.90,1
144.00,82.92,1
192.00,82.19,1
216.00,85.05,1
214.00,91.38,1
227.00,100.34,1
245.00,111.36,1
236.00,123.98,1
263.00,137.57,1
220.00,151.46,1
269.00,165.06,1
216.00,177.98,1
266.00,189.90,1
245.00,200.89,1
247.00,210.90,1
202.00,219.31,1
199.00,225.46,1
129.00,228.71,1
162.00,228.73,1
116.00,225.86,1
137.00,220.62,1
85.00,213.27,1
87.00,203.87,1
48.00,192.55,1
56.00,179.57,1
40.00,165.42,1
43.00,150.70,1
58.00,136.06,1
58.00,122.21,1
81.00,109.76,1
166.00,99.87,1
157.00,93.79,1
154.00,91.30,1
187.00,91.78,1
224.00,95.38,1
220.00,102.02,1
242.00,111.17,1
238.00,122.23,1
218.00,134.35,1
252.00,146.76,1
234.00,159.26,1
268.00,171.65,1
249.00,183.82,1
274.00,195.60,1
235.00,206.61,1
229.00,216.20,1
216.00,223.85,1
190.00,229.30,1
160.00,232.13,1
152.00,232.05,1
113.00,229.12,1
125.00,223.48,1
86.00,215.54,1
86.00,205.56,1
54.00,193.78,1
40.00,180.33,1
36.00,165.55,1
42.00,150.12,1
55.00,134.87,1
90.00,120.82,1
109.00,109.00,1
73.00,99.56,1
145.00,92.40,1
148.00,88.14,1
190.00,87.21,1
211.00,89.71,1
209.00,95.42,1
242.00,103.83,1
227.00,114.36,1
246.00,126.39,1
276.00,139.61,1
238.00,153.62,1
274.00,167.67,1
241.00,181.30,1
289.00,194.31,1
225.00,206.39,1
249.00,216.91,1
189.00,225.26,1
168.00,230.72,1
150.00,232.81,1
139.00,231.69,1
98.00,227.54,1
101.00,220.45,1
86.00,210.97,1
66.00,199.59,1
46.00,186.52,1
48.00,172.14,1
49.00,157.07,1
42.00,141.99,1
60.00,127.43,1
84.00,114.18,1
136.00,103.34,1
120.00,95.61,1
171.00,91.09,1
195.00,90.09,1
218.00,92.77,1
245.00,98.96,1
228.00,108.17,1
259.00,119.54,1
248.00,132.42,1
257.00,146.18,1
261.00,160.29,1
206.00,173.86,1
282.00,186.32,1
250.00,198.09,1
243.00,208.95,1
204.00,218.07,1
216.00,224.94,1
155.00,229.27,1
158.00,230.62,1
107.00,228.75,1
124.00,223.84,1
74.00,216.25,1
80.00,206.18,1
42.00,193.99,1
40.00,179.99,1
52.00,164.82,1
65.00,149.58,1
58.00,135.04,1
60.00,121.51,1
117.00,109.66,1
112.00,100.37,1
159.00,94.12,1
181.00,91.30,1
201.00,92.10,1
230.00,96.38,1
219.00,103.69,1
259.00,113.49,1
259.00,125.43,1
241.00,138.76,1
276.00,152.69,1
234.00,166.71,1
290.00,180.39,1
251.00,193.62,1
274.00,206.07,1
219.00,217.14,1
238.00,226.23,1
224.00,233.26,1
208.00,238.26,1
164.00,240.83,1
160.00,240.57,1
87.00,237.12,1
123.00,230.41,1
91.00,221.19,1
96.00,210.21,1
62.00,197.77,1
45.00,183.98,1
38.00,168.99,1
53.00,153.47,1
42.00,138.12,1
54.00,123.47,1
124.00,110.52,1
140.00,100.68,1
158.00,94.53,1
172.00,91.90,1
183.00,92.53,1
254.00,96.55,1
242.00,104.14,1
211.00,114.33,1
239.00,125.80,1
250.00,138.11,1
263.00,151.17,1
204.00,164.22,1
267.00,176.44,1
235.00,187.94,1
297.00,199.00,1
247.00,209.72,1
227.00,219.35,1
202.00,226.87,1
231.00,232.21,1
153.00,235.35,1
170.00,235.79,1
111.00,233.35,1
128.00,228.01,1
64.00,219.97,1
86.00,209.39,1
52.00,196.80,1
49.00,182.71,1
56.00,167.65,1
56.00,152.48,1
78.00,137.95,1
70.00,124.67,1
102.00,113.11,1
131.00,103.94,1
167.00,97.94,1
179.00,95.45,1
218.00,96.52,1
216.00,101.01,1
219.00,108.24,1
261.00,117.75,1
258.00,129.31,1
240.00,142.21,1
303.00,155.91,1
236.00,170.10,1
272.00,183.91,1
236.00,196.71,1
299.00,208.56,1
270.00,219.78,1
246.00,230.02,1
229.00,238.39,1
190.00,244.27,1
192.00,247.29,1
182.00,247.66,1
159.00,245.68,1
115.00,241.13,1
90.00,233.69,1
134.00,223.85,1
68.00,212.49,1
64.00,199.58,1
42.00,185.11,1
49.00,169.64,1
42.00,153.80,1
68.00,138.34,1
102.00,124.34,1
76.00,112.46,1
150.00,103.06,1
155.00,96.93,1
178.00,94.33,1
247.00,95.49,1
211.00,100.49,1
243.00,108.56,1
252.00,118.95,1
253.00,131.20,1
256.00,144.58,1
258.00,158.43,1
306.00,172.63,1
248.00,186.96,1
280.00,200.61,1
219.00,212.84,1
258.00,223.16,1
190.00,231.28,1
207.00,236.77,1
158.00,239.42,1
147.00,239.02,1
108.00,235.43,1
152.00,229.19,1
72.00,220.89,1
96.00,210.50,1
51.00,198.26,1
53.00,184.45,1
50.00,169.53,1
52.00,154.28,1
74.00,139.46,1
70.00,125.81,1
125.00,114.07,1
142.00,105.21,1
166.00,99.78,1
228.00,98.18,1
209.00,100.57,1
256.00,106.54,1
260.00,115.68,1
254.00,127.29,1
272.00,140.53,1
248.00,154.62,1
284.00,168.88,1
237.00,182.86,1
290.00,196.11,1
229.00,208.34,1
235.00,218.87,1
185.00,226.93,1
190.00,232.13,1
153.00,234.33,1
181.00,233.87,1
123.00,231.06,1
128.00,225.85,1
62.00,218.10,1
105.00,207.95,1
43.00,195.95,1
49.00,182.34,1
72.00,167.70,1
45.00,152.99,1
86.00,138.81,1
61.00,125.76,1
107.00,114.27,1
120.00,105.04,1
168.00,98.79,1
174.00,96.04,1
201.00,96.67,1
247.00,100.73,1
247.00,108.32,1
242.00,118.62,1
258.00,130.69,1
245.00,143.86,1
268.00,157.51,1
278.00,171.42,1
308.00,185.70,1
268.00,200.01,1
297.00,213.71,1
246.00,226.22,1
228.00,236.66,1
176.00,244.02,1
168.00,247.76,1
150.00,247.89,1
162.00,245.02,1
115.00,239.61,1
141.00,232.01,1
80.00,222.52,1
97.00,211.25,1
43.00,198.31,1
42.00,183.78,1
37.00,168.00,1
50.00,151.81,1
65.00,136.17,1
105.00,122.13,1
90.00,110.44,1
138.00,101.42,1
188.00,95.80,1
187.00,94.12,1
205.00,96.08,1
240.00,101.32,1
263.00,109.76,1
247.00,120.90,1
257.00,133.80,1
242.00,147.47,1
264.00,161.30,1
251.00,174.93,1
310.00,188.40,1
258.00,201.76,1
266.00,214.28,1
238.00,225.20,1
175.00,233.63,1
156.00,238.44,1
169.00,239.63,1
124.00,237.70,1
148.00,233.02,1
102.00,226.09,1
118.00,217.21,1
56.00,206.55,1
62.00,194.02,1
42.00,179.91,1
46.00,164.86,1
51.00,149.47,1
68.00,134.62,1
96.00,121.23,1
108.00,110.08,1
178.00,102.03,1
191.00,97.95,1
188.00,97.77,1
225.00,100.95,1
228.00,107.21,1
229.00,115.94,1
236.00,126.35,1
258.00,138.03,1
262.00,150.70,1
254.00,163.89,1
299.00,177.36,1
244.00,190.78,1
289.00,203.56,1
253.00,215.42,1
244.00,225.90,1
211.00,234.26,1
205.00,240.08,1
186.00,243.24,1
138.00,243.48,1
145.00,240.63,1
149.00,235.26,1
60.00,227.49,1
94.00,217.05,1
40.00,204.34,1
62.00,189.85,1
41.00,174.24,1
47.00,158.22,1
88.00,142.63,1
63.00,128.44,1
125.00,116.21,1
138.00,106.81,1
155.00,100.76,1
210.00,98.24,1
199.00,99.46,1
252.00,104.21,1
240.00,112.14,1
256.00,122.60,1
248.00,134.74,1
250.00,147.79,1
258.00,161.14,1
261.00,174.44,1
275.00,187.49,1
250.00,200.00,1
283.00,211.63,1
265.00,222.41,1
238.00,231.94,1
202.00,239.31,1
206.00,244.02,1
166.00,245.98,1
157.00,245.06,1
117.00,241.18,1
140.00,234.66,1
86.00,225.94,1
78.00,215.08,1
38.00,202.01,1
41.00,186.99,1
42.00,170.74,1
40.00,154.13,1
54.00,137.87,1
94.00,122.96,1
101.00,110.39,1
120.00,100.63,1
183.00,94.21,1
182.00,91.78,1
211.00,93.19,1
239.00,98.17,1
255.00,106.53,1
256.00,117.67,1
258.00,130.71,1
248.00,144.73,1
275.00,159.09,1
235.00,173.27,1
298.00,186.94,1
258.00,200.14,1
263.00,212.45,1
243.00,223.27,1
235.00,232.25,1
205.00,238.97,1
182.00,243.00,1
158.00,244.05,1
177.00,242.33,1
100.00,238.07,1
126.00,231.14,1
85.00,221.82,1
81.00,210.51,1
47.00,197.42,1
44.00,182.75,1
48.00,167.03,1
53.00,151.15,1
75.00,135.98,1
135.00,122.75,1
119.00,112.46,1
113.00,104.93,1
179.00,100.06,1
184.00,98.47,1
195.00,100.11,1
237.00,104.77,1
244.00,112.41,1
265.00,122.70,1
268.00,135.08,1
244.00,148.66,1
276.00,162.62,1
248.00,176.46,1
309.00,190.09,1
250.00,203.40,1
274.00,215.74,1
210.00,226.31,1
225.00,234.47,1
181.00,239.84,1
166.00,242.21,1
145.00,241.44,1
157.00,237.88,1
93.00,231.89,1
99.00,223.31,1
61.00,212.26,1
48.00,199.05,1
43.00,184.11,1
40.00,168.06,1
56.00,151.79,1
77.00,136.31,1
83.00,122.47,1
100.00,110.73,1
178.00,101.95,1
179.00,97.14,1
174.00,96.13,1
212.00,98.29,1
233.00,103.55,1
259.00,111.85,1
244.00,122.68,1
250.00,135.12,1
279.00,148.56,1
220.00,162.34,1
277.00,175.68,1
244.00,188.42,1
294.00,200.61,1
232.00,212.04,1
256.00,222.09,1
224.00,230.39,1
231.00,236.82,1
160.00,240.86,1
168.00,241.94,1
128.00,239.93,1
162.00,235.33,1
98.00,228.61,1
96.00,219.72,1
77.00,208.75,1
72.00,196.19,1
39.00,182.26,1
41.00,167.20,1
56.00,151.67,1
71.00,136.70,1
93.00,123.20,1
96.00,111.79,1
130.00,102.87,1
186.00,97.18,1
187.00,95.31,1
202.00,97.07,1
223.00,101.94,1
253.00,109.72,1
248.00,120.11,1
267.00,132.44,1
278.00,146.16,1
248.00,160.59,1
290.00,175.04,1
247.00,189.12,1
260.00,202.18,1
260.00,213.92,1
271.00,224.45,1
238.00,233.63,1
202.00,240.72,1
179.00,244.96,1
185.00,246.21,1
127.00,244.60,1
137.00,240.04,1
93.00,232.73,1
103.00,223.03,1
44.00,211.08,1
51.00,196.98,1
42.00,181.33,1
48.00,164.95,1
61.00,148.68,1
75.00,133.42,1
114.00,120.10,1
128.00,109.57,1
154.00,102.28,1
184.00,98.48,1
189.00,98.21,1
234.00,101.31,1
245.00,107.80,1
248.00,117.19,1
244.00,128.56,1
233.00,140.97,1
250.00,153.65,1
256.00,166.39,1
318.00,179.50,1
275.00,193.24,1
272.00,206.74,1
260.00,219.08,1
224.00,229.61,1
176.00,237.33,1
186.00,241.61,1
117.00,242.35,1
160.00,239.69,1
89.00,234.08,1
106.00,225.76,1
56.00,214.91,1
51.00,201.74,1
50.00,186.75,1
49.00,170.85,1
50.00,154.76,1
78.00,139.28,1
109.00,125.51,1
106.00,114.23,1
157.00,105.85,1
177.00,100.92,1
209.00,99.82,1
208.00,102.31,1
238.00,108.00,1
252.00,116.52,1
256.00,127.37,1
260.00,139.91,1
280.00,153.52,1
257.00,167.70,1
265.00,181.70,1
246.00,194.87,1
276.00,206.98,1
216.00,217.71,1
249.00,226.58,1
191.00,233.31,1
185.00,237.45,1
142.00,238.56,1
154.00,236.66,1
112.00,232.06,1
115.00,224.96,1
50.00,215.37,1
67.00,203.30,1
50.00,189.33,1
43.00,174.19,1
56.00,158.53,1
58.00,143.14,1
78.00,128.78,1
107.00,116.26,1
130.00,106.39,1
139.00,99.55,1
182.00,95.96,1
212.00,95.98,1
218.00,99.61,1
253.00,106.49,1
251.00,116.31,1
281.00,128.50,1
264.00,142.40,1
254.00,157.09,1
286.00,171.79,1
228.00,185.98,1
294.00,199.17,1
242.00,211.37,1
263.00,222.26,1
228.00,231.41,1
202.00,238.32,1
171.00,242.32,1
167.00,243.20,1
127.00,241.06,1
152.00,236.22,1
89.00,229.02,1
93.00,219.46,1
47.00,207.61,1
57.00,193.74,1
36.00,178.43,1
41.00,162.30,1
55.00,146.09,1
69.00,130.77,1
76.00,117.03,1
103.00,105.39,1
149.00,96.63,1
162.00,91.41,1
192.00,89.94,1
219.00,92.15,1
228.00,97.86,1
236.00,106.49,1
248.00,117.35,1
243.00,129.78,1
261.00,143.14,1
250.00,156.94,1
277.00,170.81,1
243.00,184.36,1
266.00,197.07,1
246.00,208.65,1
270.00,219.04,1
240.00,228.18,1
224.00,235.63,1
183.00,240.68,1
187.00,243.00,1
147.00,242.55,1
153.00,239.40,1
107.00,233.71,1
115.00,225.63,1
44.00,215.21,1
66.00,202.40,1
40.00,187.78,1
39.00,171.97,1
52.00,155.70,1
48.00,139.77,1
87.00,125.00,1
84.00,112.16,1
117.00,101.78,1
149.00,94.40,1
163.00,90.43,1
196.00,89.95,1
216.00,93.04,1
250.00,99.59,1
244.00,109.22,1
261.00,121.22,1
270.00,134.91,1
264.00,149.69,1
278.00,164.87,1
252.00,179.83,1
301.00,194.21,1
250.00,207.86,1
244.00,220.00,1
206.00,229.75,1
192.00,236.56,1
163.00,240.13,1
166.00,240.57,1
123.00,238.07,1
127.00,232.72,1
92.00,224.86,1
93.00,214.78,1
46.00,202.69,1
51.00,188.78,1
43.00,173.57,1
52.00,157.85,1
65.00,142.43,1
58.00,128.00,1
86.00,115.01,1
135.00,104.35,1
128.00,96.80,1
144.00,92.26,1
187.00,90.74,1
203.00,92.52,1
206.00,97.42,1
244.00,105.01,1
243.00,115.03,1
261.00,126.99,1
264.00,140.43,1
267.00,154.71,1
270.00,169.26,1
252.00,183.46,1
298.00,197.05,1
246.00,209.91,1
275.00,221.53,1
239.00,231.60,1
245.00,239.84,1
218.00,246.00,1
199.00,249.81,1
156.00,250.83,1
162.00,248.86,1
117.00,244.09,1
125.00,236.66,1
79.00,226.86,1
83.00,214.93,1
42.00,201.15,1
38.00,185.74,1
39.00,169.19,1
49.00,152.40,1
65.00,136.26,1
84.00,121.66,1
114.00,109.41,1
106.00,99.93,1
159.00,93.45,1
175.00,90.36,1
189.00,90.80,1
227.00,94.57,1
257.00,101.76,1
247.00,111.99,1
253.00,124.34,1
260.00,137.98,1
273.00,152.45,1
238.00,167.04,1
276.00,181.06,1
252.00,194.35,1
282.00,206.79,1
250.00,218.21,1
278.00,228.44,1
216.00,237.10,1
191.00,243.30,1
175.00,246.34,1
136.00,246.05,1
127.00,242.47,1
163.00,236.32,1
77.00,228.20,1
94.00,217.86,1
38.00,205.28,1
42.00,190.68,1
50.00,174.64,1
57.00,158.33,1
75.00,142.66,1
70.00,128.33,1
101.00,115.80,1
161.00,106.03,1
179.00,100.06,1
188.00,98.08,1
201.00,99.62,1
264.00,104.55,1
240.00,112.85,1
254.00,123.67,1
264.00,136.15,1
251.00,149.70,1
274.00,163.67,1
251.00,177.55,1
288.00,191.03,1
249.00,203.86,1
278.00,215.67,1
224.00,226.02,1
238.00,234.38,1
186.00,240.29,1
169.00,243.27,1
118.00,242.78,1
141.00,238.86,1
86.00,232.00,1
91.00,222.39,1
51.00,210.36,1
48.00,196.27,1
40.00,180.65,1
46.00,164.25,1
59.00,147.93,1
66.00,132.55,1
87.00,118.78,1
140.00,107.52,1
161.00,99.78,1
157.00,95.72,1
192.00,95.02,1
228.00,97.72,1
234.00,103.82,1
256.00,112.94,1
276.00,124.55,1
264.00,138.10,1
264.00,152.66,1
251.00,167.32,1
278.00,181.54,1
249.00,195.07,1
296.00,207.77,1
247.00,219.54,1
246.00,229.79,1
238.00,238.06,1
199.00,244.08,1
166.00,247.22,1
165.00,247.18,1
125.00,244.08,1
128.00,238.13,1
89.00,229.60,1
103.00,218.94,1
60.00,206.54,1
42.00,192.47,1
48.00,177.01,1
45.00,160.89,1
56.00,144.93,1
69.00,129.88,1
102.00,116.59,1
106.00,105.78,1
137.00,97.79,1
188.00,93.20,1
210.00,92.63,1
206.00,95.85,1
236.00,102.20,1
242.00,111.23,1
266.00,122.62,1
250.00,135.70,1
276.00,149.78,1
254.00,164.27,1
281.00,178.64,1
232.00,192.30,1
276.00,204.77,1
239.00,215.93,1
230.00,225.40,1
209.00,232.66,1
179.00,237.30,1
153.00,238.93,1
141.00,237.44,1
102.00,232.88,1
132.00,225.68,1
81.00,216.45,1
105.00,205.56,1
36.00,193.16,1
42.00,179.17,1
49.00,164.03,1
63.00,148.78,1
59.00,134.22,1
62.00,120.72,1
133.00,109.08,1
130.00,100.43,1
180.00,95.27,1
193.00,93.86,1
215.00,96.19,1
256.00,102.01,1
228.00,110.93,1
261.00,122.07,1
268.00,134.91,1
262.00,148.94,1
278.00,163.52,1
254.00,178.08,1
278.00,192.08,1
258.00,205.19,1
279.00,217.23,1
234.00,227.87,1
220.00,236.41,1
194.00,242.26,1
178.00,245.17,1
125.00,244.84,1
158.00,241.32,1
89.00,235.02,1
107.00,226.10,1
48.00,214.72,1
38.00,200.87,1
41.00,185.03,1
47.00,168.25,1
78.00,151.68,1
71.00,136.33,1
128.00,123.03,1
158.00,112.90,1
180.00,106.64,1
220.00,104.48,1
228.00,106.43,1
266.00,112.22,1
254.00,121.31,1
253.00,132.76,1
289.00,145.79,1
227.00,159.64,1
299.00,173.50,1
248.00,187.15,1
274.00,200.18,1
242.00,212.05,1
213.00,222.09,1
171.00,229.28,1
179.00,233.21,1
127.00,233.88,1
149.00,231.45,1
68.00,226.00,1
87.00,217.46,1
64.00,206.28,1
43.00,193.05,1
42.00,178.18,1
58.00,162.51,1
78.00,147.17,1
98.00,133.21,1
122.00,121.47,1
129.00,112.44,1
185.00,106.54,1
198.00,104.28,1
214.00,105.70,1
265.00,110.73,1
251.00,119.09,1
255.00,129.98,1
275.00,142.58,1
256.00,156.22,1
317.00,170.53,1
232.00,185.08,1
280.00,198.79,1
238.00,211.16,1
254.00,221.92,1
225.00,230.78,1
183.00,237.23,1
163.00,240.52,1
156.00,240.54,1
114.00,237.48,1
151.00,231.75,1
76.00,223.80,1
98.00,213.71,1
40.00,201.53,1
50.00,187.52,1
39.00,172.11,1
48.00,156.18,1
54.00,140.48,1
81.00,125.87,1
94.00,113.17,1
100.00,102.82,1
146.00,95.19,1
151.00,90.76,1
200.00,89.74,1
209.00,92.28,1
233.00,98.27,1
271.00,107.42,1
240.00,119.17,1
255.00,132.49,1
266.00,146.66,1
272.00,161.32,1
282.00,176.15,1
261.00,190.66,1
272.00,204.28,1
252.00,216.62,1
229.00,227.13,1
209.00,235.21,1
200.00,240.59,1
155.00,243.04,1
152.00,242.29,1
119.00,238.50,1
132.00,232.08,1
84.00,223.41,1
96.00,212.71,1
56.00,200.32,1
54.00,186.47,1
45.00,171.50,1
50.00,156.05,1
57.00,140.83,1
64.00,126.48,1
121.00,113.93,1
103.00,104.01,1
160.00,97.06,1
200.00,93.76,1
194.00,94.36,1
241.00,98.55,1
247.00,106.07,1
259.00,116.49,1
280.00,129.21,1
264.00,143.52,1
265.00,158.53,1
260.00,173.41,1
273.00,187.72,1
259.00,201.20,1
304.00,213.86,1
234.00,225.51,1
224.00,235.14,1
201.00,241.96,1
205.00,246.00,1
164.00,247.36,1
118.00,245.53,1
98.00,240.17,1
127.00,231.79,1
54.00,221.05,1
58.00,207.99,1
50.00,192.98,1
52.00,176.89,1
50.00,160.49,1
75.00,144.58,1
146.00,130.56,1
118.00,119.60,1
167.00,111.86,1
185.00,107.52,1
189.00,106.66,1
266.00,109.32,1
283.00,115.99,1
242.00,126.07,1
241.00,137.90,1
262.00,150.46,1
284.00,163.70,1
270.00,177.43,1
287.00,191.20,1
284.00,204.66,1
297.00,217.63,1
253.00,229.64,1
249.00,239.87,1
228.00,247.82,1
231.00,253.40,1
197.00,256.58,1
201.00,257.36,1
116.00,255.36,1
152.00,250.25,1
101.00,242.40,1
115.00,232.32,1
62.00,220.26,1
114.00,206.67,1
64.00,192.46,1
49.00,177.69,1
61.00,162.43,1
57.00,147.33,1
78.00,133.07,1
120.00,120.59,1
118.00,110.72,1
131.00,103.58,1
188.00,99.44,1
210.00,98.95,1
217.00,102.12,1
239.00,108.48,1
226.00,117.32,1
273.00,128.17,1
261.00,140.71,1
251.00,154.23,1
296.00,168.15,1
250.00,182.22,1
308.00,196.01,1
250.00,209.23,1
244.00,221.05,1
228.00,230.72,1
230.00,238.12,1
172.00,242.98,1
160.00,244.68,1
121.00,242.95,1
146.00,238.14,1
62.00,230.53,1
110.00,220.30,1
64.00,208.09,1
58.00,194.40,1
48.00,179.46,1
50.00,163.87,1
59.00,148.33,1
39.00,133.34,1
97.00,119.47,1
96.00,107.70,1
133.00,98.68,1
149.00,92.81,1
178.00,90.31,1
214.00,91.39,1
243.00,96.24,1
256.00,104.68,1
256.00,116.04,1
248.00,129.24,1
295.00,143.67,1
264.00,158.96,1
286.00,174.52,1
270.00,189.73,1
312.00,204.42,1
235.00,218.17,1
248.00,229.91,1
223.00,239.13,1
213.00,245.72,1
167.00,249.32,1
162.00,249.69,1
130.00,246.85,1
124.00,241.04,1
75.00,232.41,1
84.00,221.10,1
44.00,207.58,1
94.00,192.63,1
48.00,177.24,1
38.00,161.58,1
67.00,145.92,1
49.00,131.02,1
108.00,117.62,1
117.00,106.70,1
166.00,99.10,1
207.00,95.45,1
212.00,96.06,1
248.00,100.61,1
232.00,108.50,1
249.00,118.83,1
273.00,131.09,1
267.00,144.83,1
272.00,159.42,1
256.00,174.06,1
282.00,188.25,1
261.00,201.74,1
298.00,214.44,1
258.00,226.21,1
256.00,236.52,1
212.00,244.65,1
190.00,249.94,1
156.00,251.89,1
184.00,250.73,1
123.00,246.92,1
172.00,240.85,1
65.00,232.70,1
88.00,222.00,1
52.00,208.96,1
61.00,194.25,1
41.00,178.42,1
52.00,162.10,1
87.00,146.27,1
64.00,131.80,1
93.00,119.00,1
164.00,108.76,1
202.00,102.53,1
191.00,100.72,1
212.00,102.60,1
236.00,107.66,1
252.00,115.68,1
257.00,126.22,1
256.00,138.49,1
283.00,151.92,1
269.00,166.12,1
275.00,180.47,1
310.00,194.72,1
266.00,208.71,1
297.00,221.85,1
222.00,233.44,1
271.00,242.89,1
216.00,250.15,1
211.00,254.94,1
177.00,256.90,1
167.00,255.92,1
125.00,251.93,1
131.00,245.06,1
88.00,235.67,1
78.00,223.89,1
45.00,209.92,1
45.00,194.12,1
58.00,177.28,1
46.00,160.36,1
77.00,144.07,1
70.00,129.16,1
118.00,116.34,1
126.00,106.31,1
189.00,99.78,1
208.00,97.42,1
198.00,99.03,1
253.00,104.07,1
244.00,112.29,1
266.00,123.19,1
272.00,136.07,1
281.00,150.39,1
277.00,165.51,1
233.00,180.37,1
303.00,194.33,1
258.00,207.60,1
303.00,220.10,1
248.00,231.51,1
228.00,241.02,1
201.00,247.74,1
193.00,251.47,1
153.00,252.12,1
142.00,249.59,1
123.00,244.03,1
118.00,235.92,1
99.00,225.76,1
75.00,213.74,1
39.00,199.92,1
41.00,184.44,1
50.00,167.95,1
60.00,151.54,1
80.00,136.11,1
70.00,122.29,1
137.00,110.69,1
146.00,102.28,1
199.00,97.74,1
196.00,97.17,1
238.00,100.39,1
249.00,107.13,1
261.00,116.92,1
268.00,129.12,1
286.00,143.07,1
246.00,157.91,1
273.00,172.65,1
278.00,186.99,1
338.00,201.36,1
300.00,216.04,1
264.00,230.00,1
238.00,241.81,1
205.00,250.58,1
143.00,255.49,1
168.00,256.20,1
136.00,253.30,1
150.00,247.57,1
68.00,239.17,1
80.00,227.85,1
43.00,213.91,1
41.00,197.93,1
67.00,180.82,1
71.00,163.86,1
71.00,147.86,1
96.00,133.37,1
164.00,121.49,1
160.00,113.28,1
196.00,108.91,1
244.00,108.63,1
262.00,112.65,1
262.00,120.51,1
286.00,131.36,1
273.00,144.42,1
306.00,158.99,1
270.00,174.37,1
310.00,189.84,1
295.00,205.12,1
286.00,219.76,1
272.00,233.03,1
243.00,244.28,1
223.00,252.86,1
190.00,258.25,1
173.00,260.20,1
158.00,258.82,1
106.00,254.15,1
131.00,246.33,1
88.00,236.03,1
94.00,223.73,1
58.00,209.71,1
40.00,194.19,1
42.00,177.50,1
44.00,160.30,1
89.00,143.75,1
86.00,128.96,1
145.00,116.83,1
148.00,108.08,1
184.00,103.01,1
216.00,101.83,1
234.00,104.64,1
265.00,111.17,1
267.00,121.01,1
269.00,133.31,1
276.00,147.16,1
289.00,161.97,1
319.00,177.56,1
290.00,193.63,1
316.00,209.50,1
302.00,224.75,1
297.00,238.97,1
258.00,251.42,1
234.00,261.24,1
209.00,267.75,1
172.00,270.65,1
171.00,269.90,1
173.00,266.02,1
106.00,259.41,1
110.00,249.89,1
53.00,237.48,1
62.00,222.50,1
39.00,205.52,1
42.00,187.31,1
67.00,168.83,1
88.00,151.39,1
121.00,136.14,1
171.00,124.19,1
184.00,116.37,1
216.00,112.78,1
234.00,113.35,1
278.00,117.98,1
248.00,126.14,1
290.00,136.99,1
287.00,149.97,1
311.00,164.61,1
312.00,180.36,1
291.00,196.54,1
333.00,212.48,1
286.00,227.85,1
309.00,242.04,1
265.00,254.48,1
222.00,264.29,1
208.00,270.58,1
190.00,273.24,1
169.00,272.45,1
183.00,268.74,1
110.00,262.33,1
101.00,252.93,1
69.00,240.56,1
80.00,225.77,1
55.00,209.38,1
39.00,191.91,1
83.00,174.03,1
84.00,157.06,1
125.00,142.09,1
159.00,130.10,1
203.00,122.04,1
242.00,118.55,1
244.00,119.69,1
265.00,124.85,1
271.00,133.30,1
283.00,144.34,1
312.00,157.48,1
306.00,172.28,1
324.00,188.15,1
301.00,204.38,1
329.00,220.34,1
279.00,235.43,1
274.00,248.71,1
267.00,259.61,1
231.00,267.90,1
184.00,272.86,1
206.00,274.22,1
132.00,272.24,1
144.00,266.83,1
97.00,258.09,1
104.00,246.60,1
70.00,232.84,1
49.00,217.06,1
39.00,199.61,1
40.00,181.15,1
71.00,162.65,1
87.00,145.44,1
137.00,130.71,1
158.00,119.47,1
190.00,112.30,1
220.00,109.41,1
239.00,110.77,1
265.00,116.14,1
294.00,125.15,1
307.00,137.49,1
295.00,152.27,1
292.00,168.28,1
354.00,185.10,1
278.00,202.31,1
314.00,218.84,1
301.00,234.14,1
324.00,248.28,1
271.00,260.90,1
234.00,270.96,1
227.00,277.63,1
203.00,280.90,1
161.00,280.63,1
191.00,277.06,1
119.00,270.65,1
123.00,261.36,1
73.00,249.28,1
60.00,234.55,1
41.00,217.55,1
45.00,198.97,1
43.00,179.73,1
37.00,160.56,1
111.00,142.55,1
112.00,127.22,1
152.00,115.38,1
207.00,107.75,1
251.00,105.14,1
256.00,107.65,1
274.00,114.58,1
291.00,125.14,1
293.00,138.52,1
280.00,153.69,1
328.00,169.93,1
280.00,186.73,1
338.00,203.48,1
298.00,219.84,1
310.00,235.28,1
284.00,249.17,1
299.00,261.22,1
237.00,270.97,1
204.00,277.50,1
182.00,280.10,1
173.00,278.90,1
130.00,274.23,1
153.00,266.49,1
86.00,256.06,1
84.00,243.06,1
45.00,227.65,1
49.00,210.28,1
41.00,191.65,1
61.00,172.77,1
78.00,154.71,1
78.00,138.30,1
141.00,124.36,1
148.00,113.86,1
184.00,107.24,1
212.00,104.69,1
238.00,106.24,1
279.00,111.91,1
273.00,121.33,1
302.00,133.84,1
305.00,148.70,1
280.00,164.90,1
325.00,181.64,1
287.00,198.45,1
330.00,214.80,1
299.00,230.42,1
299.00,244.82,1
302.00,257.58,1
258.00,268.35,1
221.00,276.25,1
208.00,280.63,1
181.00,281.46,1
179.00,278.96,1
124.00,273.29,1
139.00,264.60,1
64.00,253.06,1
67.00,238.66,1
37.00,221.73,1
38.00,203.00,1
79.00,183.61,1
64.00,164.95,1
96.00,147.83,1
104.00,132.90,1
166.00,121.06,1
206.00,113.37,1
226.00,110.50,1
265.00,112.29,1
276.00,118.49,1
274.00,128.33,1
303.00,140.88,1
301.00,155.51,1
312.00,171.51,1
281.00,187.97,1
301.00,203.97,1
296.00,219.12,1
313.00,233.36,1
280.00,246.40,1
248.00,257.44,1
244.00,265.75,1
232.00,271.28,1
192.00,273.94,1
180.00,273.48,1
130.00,269.72,1
144.00,262.76,1
81.00,252.89,1
88.00,240.27,1
48.00,225.20,1
59.00,208.34,1
39.00,190.35,1
44.00,171.84,1
81.00,153.83,1
118.00,137.74,1
120.00,124.57,1
128.00,114.46,1
184.00,107.62,1
223.00,104.78,1
215.00,106.12,1
271.00,111.26,1
253.00,119.86,1
280.00,131.19,1
303.00,144.76,1
301.00,160.13,1
318.00,176.60,1
294.00,193.45,1
340.00,210.15,1
269.00,226.15,1
310.00,240.65,1
276.00,253.35,1
286.00,264.11,1
235.00,272.51,1
215.00,277.92,1
176.00,279.79,1
187.00,278.22,1
142.00,273.56,1
130.00,265.90,1
78.00,255.22,1
73.00,241.68,1
42.00,225.58,1
52.00,207.56,1
47.00,188.60,1
41.00,169.48,1
94.00,151.17,1
92.00,134.91,1
150.00,121.64,1
182.00,112.30,1
209.00,107.44,1
228.00,107.06,1
236.00,110.64,1
294.00,117.91,1
275.00,128.63,1
293.00,141.93,1
292.00,156.88,1
294.00,172.72,1
320.00,188.95,1
280.00,205.06,1
331.00,220.54,1
279.00,235.10,1
290.00,248.14,1
280.00,259.25,1
253.00,268.24,1
238.00,274.66,1
227.00,278.37,1
170.00,279.11,1
179.00,276.63,1
110.00,270.88,1
127.00,261.91,1
87.00,250.14,1
83.00,236.12,1
57.00,220.25,1
39.00,202.87,1
41.00,184.38,1
76.00,165.85,1
94.00,148.65,1
63.00,133.37,1
130.00,120.24,1
154.00,110.23,1
190.00,104.19,1
231.00,102.48,1
235.00,105.09,1
255.00,111.53,1
285.00,121.29,1
277.00,133.78,1
322.00,148.44,1
286.00,164.70,1
329.00,181.74,1
270.00,198.72,1
321.00,214.90,1
276.00,229.90,1
284.00,243.26,1
273.00,254.61,1
220.00,263.48,1
183.00,268.92,1
212.00,270.78,1
163.00,269.62,1
177.00,265.72,1
122.00,259.26,1
115.00,250.23,1
62.00,238.46,1
78.00,224.27,1
42.00,208.20,1
42.00,190.74,1
40.00,172.55,1
58.00,154.52,1
73.00,137.62,1
122.00,122.92,1
153.00,111.56,1
164.00,104.13,1
202.00,100.65,1
248.00,101.51,1
257.00,106.74,1
279.00,115.75,1
280.00,127.85,1
287.00,142.11,1
296.00,157.75,1
316.00,174.34,1
355.00,191.80,1
291.00,209.62,1
320.00,226.62,1
279.00,242.06,1
297.00,255.49,1
230.00,266.37,1
219.00,273.90,1
181.00,277.60,1
183.00,277.57,1
139.00,274.05,1
152.00,267.37,1
84.00,257.83,1
123.00,245.75,1
61.00,231.68,1
67.00,215.91,1
38.00,198.74,1
42.00,180.67,1
61.00,162.45,1
42.00,144.95,1
104.00,128.91,1
105.00,115.40,1
150.00,105.15,1
190.00,98.78,1
179.00,96.52,1
219.00,97.93,1
246.00,102.87,1
264.00,111.27,1
286.00,122.73,1
296.00,136.79,1
294.00,152.62,1
274.00,169.18,1
315.00,185.71,1
275.00,201.91,1
349.00,217.56,1
288.00,232.68,1
297.00,246.58,1
252.00,258.36,1
223.00,267.23,1
211.00,272.64,1
186.00,274.57,1
151.00,273.02,1
169.00,268.24,1
103.00,260.60,1
108.00,250.15,1
79.00,237.25,1
68.00,222.36,1
40.00,205.84,1
44.00,188.08,1
52.00,169.88,1
51.00,152.08,1
110.00,135.70,1
98.00,121.81,1
147.00,110.97,1
188.00,103.88,1
208.00,101.12,1
268.00,102.84,1
252.00,108.99,1
282.00,118.79,1
271.00,131.26,1
283.00,145.55,1
311.00,161.08,1
284.00,177.41,1
316.00,193.82,1
313.00,210.06,1
322.00,225.90,1
271.00,240.61,1
288.00,253.35,1
254.00,263.76,1
239.00,271.52,1
196.00,276.12,1
191.00,277.30,1
153.00,275.04,1
186.00,269.85,1
111.00,262.18,1
110.00,251.95,1
74.00,239.18,1
38.00,223.98,1
39.00,206.58,1
50.00,187.87,1
67.00,169.13,1
56.00,151.28,1
121.00,135.18,1
151.00,122.20,1
196.00,113.44,1
209.00,109.24,1
241.00,109.55,1
274.00,114.18,1
317.00,123.08,1
270.00,135.53,1
288.00,150.03,1
296.00,165.50,1
310.00,181.60,1
281.00,197.71,1
317.00,213.25,1
291.00,227.96,1
287.00,241.41,1
278.00,253.10,1
260.00,262.73,1
224.00,269.80,1
217.00,273.90,1
155.00,274.63,1
175.00,271.90,1
122.00,265.99,1
135.00,257.27,1
76.00,245.97,1
68.00,232.18,1
38.00,216.08,1
41.00,198.20,1
43.00,179.43,1
64.00,160.83,1
112.00,143.70,1
150.00,129.55,1
165.00,119.26,1
200.00,113.13,1
204.00,111.06,1
213.00,112.57,1
250.00,117.26,1
305.00,125.42,1
298.00,137.04,1
280.00,151.11,1
306.00,166.44,1
291.00,182.37,1
331.00,198.50,1
286.00,214.43,1
334.00,229.67,1
292.00,243.95,1
281.00,256.64,1
251.00,266.94,1
235.00,274.35,1
210.00,278.61,1
198.00,279.71,1
172.00,277.75,1
181.00,273.05,1
116.00,265.86,1
124.00,256.06,1
77.00,243.74,1
82.00,229.31,1
46.00,213.15,1
43.00,195.62,1
36.00,177.16,1
79.00,158.90,1
91.00,142.13,1
86.00,127.55,1
141.00,115.59,1
152.00,107.00,1
173.00,102.05,1
222.00,100.87,1
257.00,103.91,1
276.00,111.14,1
291.00,122.12,1
288.00,135.93,1
324.00,151.78,1
272.00,168.78,1
324.00,185.97,1
260.00,202.62,1
335.00,218.33,1
289.00,233.14,1
295.00,246.67,1
240.00,258.04,1
224.00,266.40,1
198.00,271.28,1
192.00,272.73,1
156.00,270.93,1
161.00,266.09,1
121.00,258.60,1
103.00,248.55,1
50.00,235.83,1
63.00,220.58,1
43.00,203.54,1
42.00,185.43,1
57.00,167.07,1
64.00,149.41,1
104.00,133.44,1
86.00,119.85,1
147.00,109.08,1
180.00,101.90,1
183.00,98.74,1
255.00,99.75,1
261.00,105.11,1
279.00,114.43,1
278.00,126.81,1
273.00,141.22,1
314.00,156.89,1
287.00,173.43,1
319.00,190.26,1
286.00,206.75,1
336.00,222.59,1
282.00,237.51,1
297.00,250.89,1
273.00,262.26,1
254.00,271.31,1
208.00,277.38,1
198.00,280.00,1
170.00,279.15,1
189.00,275.30,1
90.00,268.47,1
127.00,258.51,1
73.00,245.82,1
62.00,230.77,1
48.00,213.74,1
51.00,195.50,1
58.00,176.83,1
76.00,158.82,1
83.00,142.30,1
157.00,128.35,1
178.00,118.28,1
196.00,112.57,1
218.00,111.00,1
249.00,113.40,1
264.00,119.61,1
295.00,129.26,1
294.00,141.79,1
305.00,156.48,1
298.00,172.44,1
268.00,188.51,1
330.00,204.13,1
305.00,219.45,1
310.00,234.17,1
283.00,247.60,1
267.00,259.07,1
230.00,267.88,1
208.00,273.45,1
189.00,275.56,1
176.00,274.36,1
136.00,270.01,1
166.00,262.86,1
110.00,253.52,1
114.00,242.20,1
64.00,228.90,1
63.00,213.74,1
37.00,197.05,1
40.00,179.29,1
53.00,161.28,1
94.00,144.24,1
99.00,129.33,1
124.00,117.16,1
169.00,108.34,1
208.00,103.60,1
227.00,103.27,1
266.00,107.25,1
275.00,115.34,1
289.00,126.79,1
294.00,140.76,1
292.00,156.45,1
318.00,173.10,1
295.00,190.13,1
357.00,207.27,1
322.00,224.45,1
335.00,241.12,1
267.00,256.23,1
283.00,268.75,1
252.00,278.36,1
224.00,284.81,1
208.00,287.80,1
184.00,287.37,1
133.00,283.40,1
157.00,276.06,1
98.00,265.79,1
106.00,253.00,1
55.00,237.96,1
61.00,220.98,1
41.00,202.54,1
46.00,183.37,1
75.00,164.46,1
60.00,146.76,1
121.00,131.08,1
143.00,118.49,1
163.00,109.71,1
227.00,105.16,1
194.00,104.90,1
266.00,108.55,1
276.00,116.05,1
299.00,127.12,1
310.00,141.09,1
300.00,157.10,1
318.00,174.28,1
276.00,191.57,1
332.00,208.30,1
299.00,224.39,1
319.00,239.52,1
286.00,253.21,1
273.00,264.86,1
240.00,273.81,1
220.00,279.58,1
201.00,281.98,1
207.00,281.32,1
130.00,277.64,1
148.00,270.75,1
79.00,260.68,1
74.00,247.51,1
45.00,231.54,1
37.00,213.38,1
45.00,193.83,1
43.00,173.96,1
104.00,155.03,1
137.00,138.73,1
174.00,126.32,1
230.00,118.66,1
266.00,116.40,1
270.00,119.36,1
285.00,126.75,1
294.00,137.57,1
318.00,151.11,1
309.00,166.71,1
340.00,183.62,1
320.00,201.24,1
336.00,218.88,1
282.00,235.58,1
289.00,250.31,1
240.00,262.31,1
218.00,270.90,1
166.00,275.41,1
189.00,275.79,1
112.00,272.35,1
124.00,265.13,1
77.00,254.43,1
69.00,240.73,1
36.00,224.42,1
38.00,206.03,1
76.00,186.82,1
90.00,168.34,1
100.00,151.67,1
136.00,137.50,1
167.00,126.66,1
210.00,119.86,1
227.00,117.44,1
268.00,119.45,1
261.00,125.48,1
287.00,134.87,1
298.00,146.93,1
300.00,160.99,1
319.00,176.40,1
300.00,192.54,1
333.00,208.76,1
304.00,224.67,1
360.00,240.09,1
298.00,254.78,1
280.00,267.74,1
246.00,277.87,1
233.00,284.67,1
200.00,287.98,1
181.00,287.72,1
150.00,283.86,1
151.00,276.74,1
105.00,266.76,1
96.00,254.14,1
55.00,239.04,1
65.00,221.89,1
39.00,203.38,1
38.00,184.11,1
81.00,165.00,1
70.00,147.26,1
116.00,131.69,1
146.00,119.21,1
166.00,110.52,1
175.00,105.65,1
248.00,104.78,1
267.00,108.40,1
266.00,116.23,1
287.00,127.36,1
307.00,141.08,1
303.00,156.77,1
310.00,173.59,1
298.00,190.72,1
341.00,207.73,1
272.00,224.12,1
317.00,239.10,1
300.00,252.56,1
282.00,264.34,1
246.00,273.74,1
236.00,280.15,1
203.00,283.36,1
219.00,283.56,1
141.00,280.74,1
150.00,274.72,1
83.00,265.36,1
107.00,252.99,1
51.00,238.01,1
56.00,220.95,1
41.00,202.36,1
49.00,183.07,1
83.00,164.21,1
84.00,146.92,1
140.00,132.17,1
141.00,120.75,1
241.00,113.55,1
248.00,111.58,1
244.00,114.50,1
286.00,121.42,1
285.00,131.75,1
300.00,144.84,1
316.00,159.94,1
301.00,176.32,1
330.00,193.25,1
304.00,210.18,1
343.00,226.67,1
278.00,242.20,1
282.00,255.75,1
255.00,266.67,1
261.00,274.85,1
201.00,280.03,1
217.00,281.97,1
146.00,280.59,1
160.00,275.80,1
120.00,267.91,1
119.00,257.36,1
73.00,244.41,1
67.00,229.24,1
41.00,212.21,1
40.00,193.79,1
40.00,174.72,1
61.00,155.92,1
89.00,138.57,1
140.00,123.93,1
155.00,113.02,1
173.00,106.16,1
208.00,103.29,1
252.00,104.63,1
222.00,109.89,1
284.00,118.32,1
289.00,129.72,1
289.00,143.65,1
322.00,159.31,1
286.00,175.99,1
326.00,192.92,1
306.00,209.67,1
335.00,226.00,1
302.00,241.51,1
295.00,255.50,1
262.00,267.22,1
278.00,276.37,1
233.00,282.88,1
232.00,286.55,1
176.00,287.03,1
188.00,284.26,1
107.00,278.23,1
130.00,268.78,1
88.00,256.51,1
109.00,242.16,1
54.00,226.19,1
45.00,208.70,1
40.00,190.05,1
60.00,171.13,1
92.00,153.17,1
58.00,136.96,1
143.00,123.01,1
152.00,112.44,1
207.00,106.12,1
241.00,104.51,1
259.00,107.69,1
277.00,115.15,1
303.00,126.28,1
309.00,140.42,1
313.00,156.71,1
293.00,174.07,1
303.00,191.44,1
298.00,208.20,1
318.00,224.11,1
302.00,239.01,1
304.00,252.55,1
277.00,264.30,1
246.00,273.62,1
227.00,279.91,1
201.00,282.85,1
178.00,282.41,1
193.00,278.95,1
110.00,272.67,1
154.00,263.57,1
62.00,251.93,1
82.00,237.71,1
37.00,221.23,1
43.00,202.96,1
38.00,183.69,1
47.00,164.34,1
109.00,146.18,1
93.00,130.51,1
158.00,118.03,1
184.00,109.53,1
254.00,105.95,1
250.00,107.48,1
263.00,113.46,1
297.00,123.20,1
293.00,136.00,1
302.00,151.00,1
334.00,167.56,1
298.00,185.07,1
328.00,202.65,1
274.00,219.46,1
342.00,235.04,1
294.00,249.46,1
301.00,262.35,1
284.00,273.23,1
259.00,281.78,1
184.00,287.10,1
198.00,288.48,1
173.00,286.23,1
170.00,280.90,1
88.00,272.50,1
127.00,261.01,1
66.00,246.94,1
66.00,230.74,1
37.00,212.69,1
48.00,193.47,1
80.00,174.22,1
92.00,156.32,1
126.00,140.77,1
167.00,128.52,1
201.00,120.43,1
234.00,117.00,1
256.00,118.13,1
306.00,123.83,1
320.00,133.88,1
309.00,147.51,1
316.00,163.34,1
302.00,180.23,1
333.00,197.45,1
309.00,214.56,1
349.00,231.19,1
300.00,246.99,1
306.00,261.20,1
296.00,273.34,1
260.00,283.10,1
238.00,289.85,1
230.00,293.36,1
177.00,293.55,1
176.00,290.21,1
90.00,283.20,1
114.00,272.39,1
59.00,258.25,1
73.00,241.52,1
40.00,222.87,1
46.00,202.95,1
37.00,182.51,1
50.00,162.35,1
86.00,143.51,1
139.00,127.44,1
212.00,115.76,1
205.00,109.47,1
213.00,107.94,1
287.00,110.83,1
285.00,118.27,1
292.00,129.49,1
295.00,143.35,1
304.00,158.93,1
345.00,175.80,1
295.00,193.45,1
342.00,211.05,1
304.00,228.04,1
343.00,244.11,1
302.00,258.94,1
303.00,271.98,1
301.00,282.89,1
230.00,291.20,1
204.00,295.84,1
195.00,296.50,1
166.00,293.50,1
168.00,287.25,1
113.00,278.12,1
124.00,266.29,1
47.00,251.91,1
71.00,235.00,1
36.00,216.27,1
52.00,196.51,1
43.00,176.53,1
69.00,157.19,1
106.00,139.66,1
101.00,124.88,1
167.00,113.48,1
198.00,106.28,1
227.00,103.86,1
276.00,106.32,1
276.00,113.41,1
298.00,124.36,1
317.00,138.39,1
292.00,154.63,1
322.00,171.95,1
296.00,189.60,1
346.00,207.16,1
291.00,224.22,1
321.00,240.08,1
299.00,254.38,1
291.00,266.83,1
268.00,276.98,1
244.00,284.40,1
222.00,288.72,1
204.00,289.79,1
164.00,287.58,1
163.00,282.12,1
100.00,273.47,1
120.00,261.87,1
66.00,247.79,1
59.00,231.46,1
36.00,213.24,1
41.00,193.75,1
50.00,173.94,1
82.00,154.98,1
111.00,138.14,1
122.00,124.29,1
158.00,113.88,1
194.00,107.42,1
225.00,105.31,1
234.00,107.45,1
267.00,113.43,1
288.00,123.02,1
300.00,135.64,1
293.00,150.53,1
314.00,166.79,1
309.00,183.78,1
315.00,200.91,1
293.00,217.46,1
349.00,233.19,1
304.00,248.13,1
317.00,261.82,1
291.00,273.72,1
244.00,283.15,1
213.00,289.13,1
204.00,291.36,1
157.00,289.85,1
187.00,284.97,1
131.00,277.34,1
143.00,267.30,1
79.00,254.85,1
73.00,240.09,1
50.00,223.18,1
40.00,204.66,1
53.00,185.35,1
47.00,166.13,1
105.00,148.11,1
143.00,132.82,1
177.00,121.51,1
192.00,114.60,1
231.00,112.11,1
278.00,114.21,1
270.00,120.77,1
288.00,130.90,1
281.00,143.61,1
298.00,158.00,1
326.00,173.67,1
301.00,190.20,1
350.00,207.01,1
298.00,223.67,1
345.00,239.60,1
288.00,254.34,1
298.00,267.20,1
275.00,277.72,1
251.00,285.61,1
211.00,290.34,1
211.00,291.64,1
167.00,289.61,1
213.00,284.73,1
106.00,277.37,1
122.00,267.13,1
57.00,253.87,1
81.00,238.05,1
51.00,220.43,1
42.00,201.58,1
54.00,182.13,1
62.00,163.08,1
111.00,145.61,1
110.00,130.77,1
158.00,119.21,1
193.00,111.59,1
212.00,108.33,1
257.00,109.52,1
252.00,114.87,1
298.00,123.91,1
287.00,136.06,1
301.00,150.52,1
318.00,166.51,1
294.00,183.32,1
340.00,200.35,1
296.00,217.18,1
251.00,232.56,1
244.00,245.17,1
238.00,254.73,1
224.00,261.39,1
196.00,265.11,1
161.00,265.55,1
160.00,262.74,1
142.00,257.08,1
153.00,249.23,1
82.00,239.42,1
104.00,227.54,1
65.00,213.95,1
73.00,199.09,1
38.00,183.25,1
59.00,166.89,1
39.00,150.56,1
48.00,134.68,1
92.00,120.04,1
77.00,107.51,1
119.00,97.45,1
140.00,90.34,1
158.00,86.54,1
179.00,86.03,1
218.00,88.88,1
240.00,95.17,1
224.00,104.43,1
236.00,115.65,1
254.00,128.21,1
242.00,141.68,1
270.00,155.57,1
251.00,169.54,1
280.00,183.24,1
251.00,196.38,1
234.00,208.28,1
198.00,218.02,1
195.00,225.03,1
178.00,229.26,1
190.00,231.00,1
124.00,230.31,1
151.00,227.02,1
86.00,221.24,1
95.00,212.95,1
53.00,202.32,1
49.00,189.58,1
50.00,175.32,1
38.00,160.21,1
76.00,145.09,1
48.00,130.75,1
125.00,117.99,1
122.00,107.88,1
169.00,101.06,1
187.00,97.90,1
201.00,98.40,1
225.00,102.29,1
232.00,109.14,1
236.00,118.40,1
265.00,129.56,1
245.00,142.11,1
285.00,155.55,1
251.00,169.48,1
277.00,183.25,1
249.00,196.36,1
241.00,208.22,1
228.00,218.28,1
200.00,226.13,1
182.00,231.31,1
159.00,233.55,1
153.00,232.95,1
164.00,229.98,1
77.00,224.74,1
111.00,216.88,1
71.00,206.80,1
81.00,195.09,1
44.00,182.04,1
44.00,167.85,1
56.00,153.08,1
39.00,138.42,1
79.00,124.43,1
130.00,112.40,1
127.00,103.38,1
156.00,97.59,1
173.00,95.00,1
216.00,95.86,1
232.00,100.27,1
234.00,107.86,1
240.00,117.84,1
239.00,129.42,1
264.00,142.06,1
244.00,155.32,1
286.00,168.85,1
258.00,182.42,1
288.00,195.71,1
260.00,208.38,1
247.00,219.84,1
230.00,229.40,1
212.00,236.67,1
175.00,241.24,1
161.00,242.67,1
107.00,240.74,1
148.00,235.65,1
99.00,228.16,1
121.00,218.76,1
62.00,207.74,1
64.00,195.07,1
42.00,180.94,1
39.00,165.74,1
55.00,150.14,1
63.00,135.07,1
109.00,121.55,1
125.00,110.62,1
148.00,102.85,1
186.00,98.59,1
190.00,97.96,1
192.00,100.49,1
219.00,105.63,1
231.00,113.23,1
252.00,122.95,1
244.00,134.35,1
260.00,146.86,1
266.00,160.04,1
275.00,173.57,1
258.00,186.99,1
281.00,199.87,1
256.00,211.95,1
234.00,222.62,1
211.00,231.07,1
162.00,236.62,1
136.00,238.59,1
157.00,237.09,1
116.00,232.79,1
123.00,226.05,1
78.00,217.10,1
75.00,206.02,1
40.00,193.02,1
50.00,178.47,1
42.00,163.02,1
38.00,147.32,1
72.00,132.09,1
59.00,118.15,1
104.00,106.08,1
139.00,96.77,1
140.00,90.79,1
146.00,87.89,1
213.00,88.12,1
219.00,91.94,1
237.00,99.15,1
251.00,109.17,1
257.00,121.38,1
243.00,134.95,1
283.00,149.29,1
242.00,163.98,1
301.00,178.54,1
267.00,192.90,1
261.00,206.50,1
262.00,218.70,1
206.00,228.93,1
189.00,236.25,1
176.00,240.28,1
125.00,240.90,1
152.00,238.18,1
96.00,232.53,1
117.00,224.36,1
58.00,213.95,1
73.00,201.46,1
38.00,187.29,1
50.00,171.98,1
58.00,156.27,1
36.00,140.84,1
94.00,126.32,1
92.00,113.73,1
127.00,103.74,1
144.00,96.76,1
190.00,93.27,1
213.00,93.70,1
229.00,97.88,1
218.00,105.20,1
240.00,114.74,1
238.00,125.97,1
293.00,138.67,1
244.00,152.56,1
279.00,166.82,1
246.00,180.80,1
276.00,194.09,1
252.00,206.44,1
253.00,217.55,1
242.00,227.06,1
202.00,234.54,1
185.00,239.35,1
173.00,241.21,1
140.00,240.22,1
153.00,236.55,1
97.00,230.36,1
104.00,221.74,1
50.00,210.75,1
68.00,197.66,1
38.00,183.03,1
38.00,167.35,1
59.00,151.35,1
64.00,136.01,1
92.00,122.16,1
126.00,110.69,1
136.00,102.26,1
133.00,96.86,1
185.00,94.41,1
199.00,95.20,1
224.00,99.33,1
236.00,106.48,1
252.00,116.23,1
243.00,127.93,1
273.00,141.00,1
257.00,154.92,1
279.00,169.17,1
265.00,183.36,1
287.00,197.14,1
262.00,210.19,1
219.00,221.67,1
200.00,230.49,1
192.00,236.29,1
181.00,239.21,1
172.00,239.53,1
112.00,237.14,1
146.00,231.98,1
85.00,224.44,1
128.00,214.96,1
55.00,203.91,1
75.00,191.35,1
37.00,177.45,1
38.00,162.54,1
84.00,147.49,1
99.00,133.70,1
93.00,121.89,1
114.00,112.20,1
159.00,105.09,1
174.00,101.23,1
198.00,100.80,1
218.00,103.63,1
254.00,109.78,1
