53.00,58.48,0
55.00,58.47,0
38.00,58.19,0
125.00,58.17,0
37.00,58.92,0
49.00,59.59,0
43.00,59.61,0
69.00,59.34,0
38.00,58.98,0
44.00,58.32,0
73.00,57.54,0
67.00,57.17,0
42.00,57.05,0
60.00,56.83,0
39.00,56.44,0
142.00,56.59,0
44.00,57.86,0
49.00,59.22,0
122.00,60.48,0
67.00,62.43,0
54.00,64.41,0
66.00,65.77,0
47.00,66.55,0
77.00,66.90,0
61.00,67.12,0
69.00,67.28,0
38.00,67.14,0
133.00,67.11,0
36.00,67.69,0
64.00,68.12,0
47.00,67.93,0
47.00,67.22,0
62.00,66.14,0
43.00,64.90,0
60.00,63.52,0
58.00,62.20,0
41.00,60.93,0
42.00,59.45,0
56.00,57.85,0
74.00,56.61,0
40.00,55.82,0
40.00,54.97,0
63.00,54.02,0
58.00,53.36,0
56.00,53.04,0
67.00,53.00,0
108.00,53.69,0
92.00,55.53,0
66.00,58.06,0
40.00,60.24,0
104.00,61.98,0
60.00,63.80,0
63.00,65.44,0
40.00,66.40,0
138.00,67.25,0
69.00,68.86,0
39.00,70.41,0
44.00,70.84,0
36.00,70.17,0
61.00,68.79,0
62.00,67.29,0
100.00,66.29,0
63.00,66.01,0
44.00,65.85,0
70.00,65.38,0
54.00,64.83,0
87.00,64.46,0
42.00,64.27,0
94.00,64.20,0
76.00,64.56,0
99.00,65.55,0
73.00,67.01,0
58.00,68.40,0
76.00,69.39,0
79.00,70.24,0
85.00,71.20,0
115.00,72.58,0
105.00,74.72,0
75.00,77.19,0
172.00,80.04,0
54.00,83.48,0
93.00,86.42,0
42.00,88.12,0
104.00,88.81,0
42.00,88.81,0
87.00,88.15,0
54.00,86.96,0
74.00,85.40,0
58.00,83.54,0
50.00,81.34,0
90.00,79.04,0
63.00,77.09,0
80.00,75.52,0
41.00,74.00,0
127.00,72.79,0
48.00,72.31,0
127.00,72.43,0
56.00,73.10,0
43.00,73.52,0
93.00,73.35,0
62.00,73.20,0
79.00,73.11,0
51.00,72.87,0
51.00,72.20,0
49.00,70.97,0
51.00,69.34,0
173.00,68.48,0
43.00,69.21,0
76.00,70.25,0
63.00,70.85,0
120.00,71.63,0
39.00,72.69,0
107.00,73.61,0
60.00,74.46,0
138.00,75.67,0
63.00,77.40,0
43.00,78.69,0
61.00,78.78,0
44.00,77.96,0
111.00,76.91,0
120.00,76.76,0
42.00,77.37,0
68.00,77.51,0
91.00,77.28,0
71.00,77.20,0
55.00,76.96,0
109.00,76.63,0
119.00,77.09,0
126.00,78.83,0
127.00,81.66,0
93.00,85.02,0
279.00,89.68,0
145.00,96.85,0
180.00,105.31,0
81.00,113.10,0
156.00,119.40,0
68.00,124.05,0
104.00,126.75,0
97.00,127.68,0
73.00,127.21,0
41.00,124.97,0
70.00,120.96,0
55.00,115.87,0
35.00,109.91,0
89.00,103.50,0
42.00,97.31,0
73.00,91.41,0
57.00,85.93,0
45.00,80.84,0
94.00,76.29,0
95.00,73.03,0
82.00,71.16,0
166.00,70.93,0
150.00,73.09,0
144.00,77.36,0
120.00,82.69,0
154.00,88.45,0
165.00,94.80,0
104.00,101.36,0
129.00,107.14,0
126.00,112.02,0
143.00,116.36,0
98.00,120.02,0
124.00,122.67,0
116.00,124.44,0
117.00,125.58,0
123.00,126.20,0
58.00,125.99,0
112.00,124.54,0
72.00,122.25,0
90.00,119.32,0
42.00,115.58,0
48.00,110.75,0
100.00,105.38,0
43.00,100.22,0
75.00,95.14,0
77.00,90.36,0
74.00,86.25,0
62.00,82.64,0
83.00,79.50,0
173.00,77.80,0
116.00,78.49,0
160.00,81.11,0
135.00,85.15,0
152.00,90.25,0
168.00,96.17,0
159.00,102.85,0
132.00,109.65,0
129.00,115.75,0
139.00,120.94,0
112.00,125.17,0
102.00,128.08,0
44.00,129.02,0
96.00,127.82,0
38.00,124.92,0
119.00,120.96,0
74.00,116.84,0
41.00,112.39,0
54.00,106.99,0
98.00,101.37,0
79.00,96.48,0
96.00,92.48,0
120.00,89.63,0
43.00,87.63,0
49.00,85.31,0
117.00,82.86,0
106.00,81.48,0
106.00,81.35,0
107.00,82.08,0
115.00,83.52,0
168.00,86.03,0
106.00,89.71,0
125.00,93.71,0
90.00,97.33,0
138.00,100.53,0
160.00,103.98,0
133.00,108.07,0
96.00,111.91,0
73.00,114.41,0
90.00,115.27,0
96.00,114.97,0
34.00,113.55,0
43.00,110.39,0
65.00,105.85,0
40.00,100.65,0
39.00,94.87,0
38.00,88.62,0
91.00,82.64,0
100.00,78.03,0
137.00,75.49,0
118.00,75.14,0
144.00,76.70,0
151.00,79.97,0
174.00,84.96,0
113.00,91.02,0
127.00,96.98,0
129.00,102.40,0
150.00,107.57,0
120.00,112.48,0
184.00,117.23,0
137.00,122.14,0
139.00,126.77,0
40.00,129.85,0
72.00,130.26,0
71.00,128.35,0
100.00,125.25,0
59.00,121.46,0
57.00,116.83,0
64.00,111.39,0
36.00,105.37,0
61.00,98.94,0
36.00,92.38,0
46.00,85.80,0
108.00,79.92,0
101.00,75.81,0
92.00,73.52,0
144.00,72.92,0
122.00,74.21,0
140.00,77.12,0
123.00,81.13,0
154.00,85.96,0
117.00,91.34,0
102.00,96.46,0
116.00,100.77,0
183.00,104.99,0
140.00,109.87,0
117.00,114.74,0
118.00,118.71,0
89.00,121.45,0
71.00,122.56,0
74.00,121.84,0
47.00,119.47,0
39.00,115.43,0
65.00,110.12,0
52.00,104.25,0
68.00,98.31,0
41.00,92.44,0
54.00,86.60,0
46.00,80.91,0
68.00,75.69,0
61.00,71.22,0
70.00,67.63,0
88.00,65.04,0
78.00,63.61,0
156.00,63.74,0
146.00,66.19,0
101.00,70.38,0
127.00,75.19,0
95.00,80.07,0
131.00,84.84,0
89.00,89.36,0
172.00,93.82,0
86.00,98.39,0
173.00,102.90,0
112.00,107.43,0
123.00,111.62,0
130.00,115.15,0
88.00,117.91,0
81.00,119.30,0
55.00,118.90,0
46.00,116.60,0
49.00,112.62,0
102.00,107.87,0
47.00,103.17,0
109.00,98.71,0
50.00,94.65,0
78.00,90.81,0
39.00,86.92,0
102.00,83.21,0
108.00,80.55,0
130.00,79.57,0
127.00,80.32,0
154.00,82.66,0
162.00,86.65,0
136.00,91.94,0
159.00,97.84,0
148.00,104.07,0
127.00,110.19,0
102.00,115.36,0
72.00,118.80,0
131.00,120.57,0
101.00,121.52,0
79.00,121.63,0
95.00,120.59,0
81.00,118.70,0
120.00,116.44,0
39.00,113.84,0
43.00,110.08,0
56.00,105.03,0
38.00,99.31,0
38.00,93.09,0
75.00,86.84,0
92.00,81.53,0
111.00,77.86,0
96.00,75.91,0
80.00,75.10,0
146.00,75.32,0
109.00,77.00,0
89.00,79.48,0
121.00,82.11,0
125.00,85.17,0
161.00,89.09,0
61.00,93.32,0
146.00,97.00,0
80.00,100.17,0
102.00,102.64,0
60.00,103.96,0
53.00,103.78,0
66.00,102.14,0
145.00,100.25,0
51.00,98.86,0
52.00,97.02,0
52.00,94.11,0
68.00,90.62,0
40.00,86.86,0
75.00,82.96,0
38.00,79.13,0
44.00,75.21,0
40.00,71.11,0
63.00,67.18,0
84.00,64.05,0
75.00,62.08,0
115.00,61.44,0
108.00,62.35,0
127.00,64.78,0
82.00,68.17,0
87.00,71.62,0
128.00,75.05,0
110.00,78.93,0
98.00,82.96,0
176.00,87.26,0
107.00,92.26,0
170.00,97.63,0
37.00,102.49,0
108.00,105.69,0
44.00,107.08,0
73.00,106.81,0
65.00,105.19,0
36.00,102.46,0
75.00,98.74,0
93.00,94.96,0
55.00,91.56,0
45.00,87.99,0
56.00,84.03,0
105.00,80.41,0
33.00,77.46,0
88.00,74.81,0
37.00,72.35,0
100.00,70.26,0
68.00,68.86,0
114.00,68.42,0
127.00,69.35,0
125.00,71.81,0
98.00,75.24,0
172.00,79.43,0
89.00,84.38,0
146.00,89.45,0
68.00,94.06,0
84.00,97.47,0
107.00,99.68,0
166.00,101.90,0
39.00,104.18,0
73.00,105.08,0
55.00,104.27,0
62.00,102.22,0
48.00,99.15,0
51.00,95.26,0
69.00,90.98,0
43.00,86.63,0
44.00,82.11,0
42.00,77.37,0
51.00,72.69,0
40.00,68.25,0
40.00,64.03,0
44.00,60.05,0
50.00,56.51,0
83.00,53.84,0
83.00,52.51,0
100.00,52.67,0
101.00,54.22,0
38.00,56.44,0
115.00,58.68,0
156.00,61.96,0
122.00,66.97,0
221.00,73.73,0
92.00,81.90,0
82.00,89.42,0
106.00,95.18,0
112.00,99.76,0
38.00,102.97,0
106.00,104.42,0
50.00,104.56,0
43.00,103.25,0
49.00,100.35,0
71.00,96.55,0
55.00,92.50,0
95.00,88.63,0
78.00,85.44,0
119.00,83.26,0
72.00,82.06,0
36.00,80.90,0
95.00,79.32,0
68.00,77.92,0
132.00,77.29,0
111.00,77.93,0
90.00,79.53,0
164.00,81.88,0
139.00,85.57,0
82.00,89.90,0
165.00,94.10,0
112.00,98.51,0
158.00,103.15,0
100.00,107.62,0
90.00,111.17,0
91.00,113.25,0
72.00,113.94,0
50.00,113.04,0
122.00,111.04,0
49.00,108.68,0
64.00,105.65,0
52.00,101.75,0
59.00,97.29,0
38.00,92.40,0
49.00,87.15,0
82.00,82.06,0
36.00,77.54,0
68.00,73.37,0
64.00,69.73,0
83.00,66.97,0
116.00,65.52,0
109.00,65.80,0
90.00,67.34,0
162.00,70.03,0
94.00,73.98,0
171.00,78.86,0
83.00,84.25,0
146.00,89.57,0
108.00,94.64,0
96.00,99.16,0
92.00,102.54,0
78.00,104.68,0
48.00,105.27,0
98.00,104.48,0
44.00,102.81,0
38.00,99.98,0
37.00,95.81,0
41.00,90.73,0
44.00,85.22,0
47.00,79.67,0
38.00,74.27,0
84.00,69.42,0
50.00,65.56,0
39.00,62.30,0
72.00,59.42,0
105.00,57.64,0
104.00,57.60,0
160.00,59.57,0
71.00,63.19,0
98.00,67.17,0
130.00,71.26,0
130.00,76.06,0
151.00,81.66,0
94.00,87.57,0
146.00,93.17,0
127.00,98.58,0
165.00,104.10,0
85.00,109.34,0
67.00,113.03,0
127.00,114.94,0
77.00,115.88,0
58.00,115.56,0
74.00,113.69,0
61.00,110.70,0
69.00,106.96,0
56.00,102.69,0
48.00,97.93,0
37.00,92.62,0
36.00,86.84,0
56.00,80.93,0
84.00,75.68,0
39.00,71.36,0
79.00,67.72,0
90.00,65.08,0
103.00,63.93,0
82.00,64.07,0
121.00,65.28,0
127.00,67.76,0
107.00,71.40,0
159.00,75.95,0
96.00,81.20,0
147.00,86.62,0
158.00,92.41,0
158.00,98.88,0
138.00,105.59,0
139.00,111.94,0
94.00,117.28,0
111.00,121.08,0
94.00,123.34,0
70.00,124.04,0
51.00,122.81,0
88.00,119.94,0
73.00,116.27,0
82.00,112.25,0
45.00,107.81,0
52.00,102.72,0
39.00,97.00,0
43.00,90.88,0
49.00,84.64,0
76.00,78.90,0
99.00,74.41,0
184.00,72.35,0
132.00,73.34,0
120.00,76.36,0
80.00,79.88,0
80.00,82.89,0
121.00,85.42,0
76.00,87.81,0
181.00,90.48,0
37.00,93.45,0
161.00,96.06,0
167.00,99.22,0
201.00,104.08,0
70.00,109.63,0
116.00,113.99,0
79.00,116.67,0
98.00,117.93,0
53.00,117.67,0
63.00,115.80,0
38.00,112.35,0
41.00,107.47,0
59.00,101.70,0
60.00,95.77,0
38.00,89.89,0
42.00,83.90,0
84.00,78.28,0
50.00,73.58,0
68.00,69.65,0
123.00,66.92,0
77.00,65.87,0
117.00,66.17,0
111.00,67.70,0
152.00,70.69,0
170.00,75.52,0
142.00,81.92,0
178.00,89.30,0
80.00,96.75,0
156.00,103.30,0
75.00,108.71,0
174.00,113.20,0
98.00,117.17,0
159.00,120.68,0
111.00,123.72,0
60.00,125.58,0
41.00,125.09,0
48.00,122.16,0
51.00,117.46,0
75.00,111.86,0
62.00,106.08,0
47.00,100.21,0
53.00,94.16,0
45.00,88.08,0
60.00,82.22,0
40.00,76.74,0
94.00,71.98,0
75.00,68.48,0
60.00,66.08,0
116.00,64.64,0
115.00,64.77,0
123.00,66.61,0
130.00,69.87,0
103.00,74.04,0
163.00,78.89,0
151.00,84.79,0
145.00,91.51,0
81.00,97.91,0
236.00,104.03,0
129.00,110.90,0
144.00,117.74,0
100.00,123.31,0
126.00,127.35,0
127.00,130.16,0
119.00,132.12,0
92.00,133.01,0
47.00,132.18,0
40.00,129.03,0
55.00,123.83,0
51.00,117.47,0
66.00,110.58,0
41.00,103.54,0
79.00,96.64,0
64.00,90.38,0
52.00,84.77,0
138.00,80.24,0
127.00,77.90,0
79.00,77.42,0
116.00,77.82,0
82.00,78.81,0
181.00,80.76,0
122.00,84.30,0
85.00,88.40,0
128.00,92.07,0
127.00,95.69,0
154.00,99.70,0
144.00,104.23,0
151.00,109.13,0
133.00,114.04,0
125.00,118.49,0
100.00,121.93,0
70.00,123.79,0
62.00,123.58,0
94.00,121.73,0
90.00,119.11,0
86.00,116.15,0
54.00,112.67,0
54.00,108.36,0
50.00,103.23,0
52.00,97.63,0
40.00,91.74,0
80.00,85.99,0
110.00,81.33,0
97.00,78.40,0
124.00,77.13,0
42.00,76.82,0
104.00,76.63,0
118.00,76.99,0
123.00,78.57,0
197.00,81.82,0
128.00,86.92,0
140.00,92.86,0
154.00,98.95,0
159.00,105.33,0
154.00,111.87,0
156.00,118.28,0
160.00,124.42,0
59.00,129.39,0
107.00,132.08,0
70.00,132.61,0
92.00,131.42,0
86.00,128.97,0
61.00,125.54,0
51.00,120.91,0
329.00,117.47,0
63.00,117.34,0
47.00,117.52,0
57.00,115.53,0
36.00,111.81,0
50.00,106.76,0
50.00,100.92,0
107.00,95.27,0
145.00,91.21,0
42.00,88.73,0
179.00,87.28,0
109.00,87.52,0
61.00,88.59,0
134.00,89.49,0
130.00,91.02,0
118.00,93.41,0
182.00,96.67,0
155.00,101.20,0
161.00,106.70,0
165.00,112.65,0
138.00,118.66,0
120.00,123.94,0
81.00,127.64,0
114.00,129.50,0
71.00,129.78,0
115.00,128.78,0
86.00,126.96,0
73.00,124.36,0
83.00,120.89,0
47.00,116.60,0
44.00,111.32,0
64.00,105.27,0
76.00,99.24,0
39.00,93.48,0
81.00,87.96,0
54.00,82.97,0
70.00,78.57,0
34.00,74.51,0
104.00,70.97,0
127.00,68.97,0
130.00,69.22,0
135.00,71.44,0
80.00,74.75,0
198.00,78.87,0
156.00,84.62,0
140.00,91.60,0
154.00,98.75,0
118.00,105.61,0
130.00,111.62,0
115.00,116.57,0
169.00,120.86,0
98.00,124.67,0
60.00,126.97,0
51.00,126.74,0
57.00,124.20,0
72.00,120.10,0
55.00,115.13,0
51.00,109.48,0
44.00,103.21,0
74.00,96.78,0
56.00,90.75,0
74.00,85.31,0
38.00,80.36,0
80.00,75.84,0
54.00,71.98,0
112.00,69.15,0
105.00,67.88,0
109.00,68.22,0
127.00,69.97,0
192.00,73.60,0
160.00,79.47,0
164.00,86.93,0
156.00,95.06,0
142.00,103.19,0
87.00,110.32,0
103.00,115.55,0
162.00,119.47,0
129.00,123.10,0
106.00,126.13,0
117.00,128.05,0
95.00,128.87,0
108.00,128.66,0
77.00,127.45,0
50.00,124.90,0
117.00,121.27,0
86.00,117.56,0
54.00,113.68,0
40.00,108.93,0
42.00,103.18,0
43.00,96.77,0
78.00,90.40,0
41.00,84.56,0
63.00,79.17,0
64.00,74.36,0
87.00,70.54,0
135.00,68.40,0
141.00,68.65,0
54.00,70.47,0
129.00,72.64,0
108.00,75.38,0
158.00,79.13,0
95.00,83.67,0
213.00,88.99,0
146.00,95.62,0
147.00,102.89,0
108.00,109.55,0
96.00,114.78,0
108.00,118.33,0
132.00,120.78,0
54.00,122.16,0
52.00,121.59,0
78.00,119.11,0
73.00,115.58,0
55.00,111.38,0
42.00,106.36,0
37.00,100.46,0
42.00,93.98,0
51.00,87.37,0
57.00,81.11,0
85.00,75.74,0
126.00,72.07,0
89.00,70.44,0
125.00,70.42,0
99.00,71.69,0
124.00,73.97,0
167.00,77.51,0
88.00,82.14,0
143.00,86.97,0
113.00,91.78,0
196.00,97.08,0
114.00,103.02,0
156.00,108.92,0
146.00,114.54,0
129.00,119.79,0
144.00,124.34,0
62.00,127.65,0
74.00,128.77,0
93.00,127.86,0
81.00,125.74,0
51.00,122.50,0
89.00,118.23,0
90.00,113.70,0
49.00,109.12,0
76.00,104.22,0
58.00,99.18,0
64.00,94.18,0
44.00,89.17,0
50.00,84.08,0
74.00,79.23,0
73.00,75.17,0
52.00,71.85,0
134.00,69.53,0
136.00,69.23,0
143.00,71.26,0
146.00,75.17,0
78.00,79.90,0
205.00,85.03,0
127.00,91.21,0
168.00,98.07,0
118.00,104.86,0
127.00,110.93,0
49.00,115.36,0
119.00,117.74,0
100.00,118.86,0
82.00,119.08,0
61.00,117.99,0
115.00,115.89,0
61.00,113.37,0
43.00,110.01,0
47.00,105.43,0
56.00,100.07,0
37.00,94.28,0
41.00,88.18,0
41.00,81.95,0
104.00,76.38,0
71.00,72.27,0
57.00,69.27,0
93.00,66.99,0
87.00,65.79,0
110.00,65.82,0
110.00,67.15,0
140.00,69.84,0
132.00,73.91,0
186.00,79.47,0
137.00,86.37,0
253.00,94.66,0
86.00,103.87,0
168.00,112.34,0
89.00,119.28,0
102.00,124.31,0
106.00,127.32,0
102.00,128.84,0
100.00,129.10,0
36.00,127.80,0
54.00,124.45,0
44.00,119.28,0
41.00,112.91,0
100.00,106.19,0
58.00,100.05,0
55.00,94.31,0
75.00,88.84,0
46.00,83.83,0
97.00,79.43,0
122.00,76.45,0
108.00,75.37,0
140.00,76.03,0
115.00,78.16,0
85.00,80.95,0
128.00,83.82,0
112.00,86.97,0
159.00,90.71,0
145.00,95.32,0
133.00,100.50,0
127.00,105.56,0
192.00,110.70,0
127.00,116.24,0
137.00,121.42,0
85.00,125.36,0
102.00,127.57,0
75.00,128.05,0
85.00,126.95,0
50.00,124.35,0
41.00,120.13,0
61.00,114.55,0
54.00,108.31,0
38.00,101.70,0
58.00,94.86,0
39.00,88.13,0
52.00,81.64,0
139.00,76.34,0
114.00,73.46,0
95.00,72.66,0
112.00,73.10,0
125.00,74.68,0
122.00,77.41,0
145.00,81.18,0
42.00,85.11,0
143.00,88.36,0
69.00,91.19,0
127.00,93.70,0
133.00,96.28,0
162.00,99.65,0
108.00,103.60,0
120.00,107.28,0
64.00,109.94,0
99.00,111.20,0
125.00,111.68,0
72.00,111.83,0
46.00,110.84,0
68.00,108.33,0
57.00,104.83,0
41.00,100.53,0
83.00,95.77,0
47.00,91.08,0
44.00,86.34,0
84.00,81.69,0
94.00,77.99,0
76.00,75.48,0
104.00,73.97,0
97.00,73.53,0
98.00,74.04,0
147.00,75.62,0
97.00,78.36,0
110.00,81.57,0
127.00,84.98,0
102.00,88.63,0
154.00,92.48,0
127.00,96.79,0
170.00,101.66,0
114.00,106.80,0
119.00,111.44,0
79.00,114.85,0
57.00,116.40,0
38.00,115.64,0
61.00,112.81,0
49.00,108.65,0
74.00,103.83,0
81.00,99.02,0
38.00,94.36,0
60.00,89.49,0
41.00,84.47,0
41.00,79.36,0
52.00,74.30,0
46.00,69.57,0
51.00,65.29,0
86.00,61.81,0
89.00,59.71,0
116.00,59.26,0
50.00,60.05,0
95.00,61.23,0
106.00,62.96,0
174.00,66.19,0
86.00,70.89,0
198.00,76.61,0
145.00,83.63,0
152.00,91.49,0
104.00,99.01,0
155.00,105.71,0
85.00,111.43,0
129.00,115.84,0
71.00,118.80,0
103.00,120.19,0
61.00,120.05,0
63.00,118.35,0
70.00,115.24,0
43.00,111.11,0
48.00,105.97,0
42.00,100.07,0
76.00,93.98,0
44.00,88.22,0
72.00,82.88,0
41.00,77.97,0
75.00,73.55,0
84.00,70.03,0
97.00,67.87,0
136.00,67.40,0
111.00,68.77,0
139.00,71.65,0
123.00,75.71,0
74.00,80.08,0
129.00,84.06,0
87.00,87.78,0
126.00,91.24,0
105.00,94.53,0
192.00,98.26,0
117.00,102.88,0
101.00,107.34,0
59.00,110.31,0
91.00,111.47,0
50.00,111.07,0
147.00,109.89,0
77.00,108.84,0
78.00,107.57,0
61.00,105.49,0
46.00,102.43,0
42.00,98.33,0
45.00,93.42,0
38.00,87.99,0
87.00,82.67,0
76.00,78.28,0
58.00,74.80,0
76.00,71.91,0
109.00,69.96,0
111.00,69.53,0
53.00,70.09,0
166.00,71.37,0
127.00,74.22,0
151.00,78.66,0
125.00,84.01,0
258.00,90.77,0
104.00,99.06,0
139.00,107.09,0
123.00,113.82,0
124.00,119.38,0
133.00,123.82,0
120.00,127.32,0
40.00,129.20,0
90.00,128.74,0
84.00,126.64,0
72.00,123.58,0
71.00,119.64,0
40.00,114.79,0
47.00,108.94,0
68.00,102.56,0
65.00,96.37,0
46.00,90.49,0
42.00,84.67,0
48.00,78.91,0
56.00,73.53,0
84.00,69.02,0
144.00,66.36,0
135.00,66.33,0
125.00,68.58,0
103.00,72.05,0
189.00,76.62,0
135.00,82.66,0
162.00,89.64,0
128.00,96.85,0
188.00,104.14,0
101.00,111.24,0
110.00,117.09,0
146.00,121.52,0
82.00,124.87,0
93.00,126.62,0
78.00,126.62,0
130.00,125.56,0
85.00,124.11,0
50.00,121.79,0
50.00,117.93,0
44.00,112.72,0
52.00,106.59,0
80.00,100.28,0
68.00,94.49,0
35.00,89.03,0
103.00,83.93,0
61.00,79.78,0
61.00,76.34,0
57.00,73.20,0
121.00,70.83,0
122.00,70.16,0
149.00,71.57,0
126.00,74.84,0
70.00,78.75,0
125.00,82.35,0
108.00,85.90,0
158.00,89.90,0
96.00,94.26,0
128.00,98.42,0
124.00,102.26,0
113.00,105.85,0
83.00,108.64,0
110.00,110.40,0
66.00,111.12,0
62.00,110.52,0
48.00,108.36,0
46.00,104.82,0
43.00,100.19,0
49.00,94.85,0
38.00,89.14,0
63.00,83.41,0
47.00,78.05,0
39.00,73.01,0
51.00,68.22,0
84.00,64.18,0
82.00,61.49,0
114.00,60.40,0
134.00,61.26,0
135.00,64.19,0
114.00,68.59,0
109.00,73.57,0
135.00,78.78,0
159.00,84.58,0
130.00,91.02,0
94.00,97.15,0
186.00,102.76,0
142.00,108.64,0
127.00,114.45,0
100.00,119.18,0
100.00,122.35,0
87.00,123.92,0
106.00,124.15,0
59.00,123.18,0
67.00,120.78,0
65.00,117.11,0
50.00,112.50,0
43.00,106.98,0
39.00,100.71,0
38.00,93.94,0
40.00,86.97,0
40.00,80.10,0
38.00,73.54,0
69.00,67.66,0
56.00,62.87,0
87.00,59.36,0
99.00,57.45,0
122.00,57.47,0
136.00,59.53,0
197.00,64.02,0
124.00,70.73,0
139.00,78.33,0
111.00,85.77,0
150.00,92.82,0
162.00,99.86,0
164.00,107.18,0
173.00,114.69,0
132.00,121.93,0
76.00,127.63,0
87.00,130.78,0
52.00,131.30,0
40.00,129.24,0
48.00,124.89,0
75.00,119.16,0
40.00,112.84,0
46.00,105.97,0
41.00,98.67,0
42.00,91.25,0
40.00,83.95,0
48.00,77.02,0
44.00,70.69,0
90.00,65.42,0
102.00,61.95,0
112.00,60.64,0
127.00,61.39,0
128.00,64.07,0
133.00,68.27,0
126.00,73.53,0
164.00,79.64,0
127.00,86.46,0
163.00,93.59,0
101.00,100.50,0
102.00,106.29,0
75.00,110.32,0
118.00,112.76,0
67.00,114.01,0
93.00,114.05,0
46.00,112.76,0
42.00,109.94,0
58.00,105.72,0
50.00,100.74,0
64.00,95.47,0
48.00,90.17,0
46.00,84.86,0
71.00,79.76,0
51.00,75.22,0
88.00,71.44,0
98.00,68.91,0
42.00,67.40,0
138.00,66.67,0
160.00,67.85,0
120.00,71.31,0
128.00,75.96,0
127.00,81.13,0
109.00,86.43,0
143.00,91.63,0
106.00,96.69,0
174.00,101.71,0
120.00,106.91,0
142.00,111.92,0
130.00,116.44,0
160.00,120.67,0
52.00,124.05,0
114.00,125.65,0
94.00,125.81,0
82.00,124.93,0
56.00,122.72,0
59.00,119.06,0
35.00,114.09,0
53.00,108.04,0
39.00,101.35,0
41.00,94.33,0
39.00,87.21,0
40.00,80.21,0
39.00,73.55,0
63.00,67.55,0
35.00,62.41,0
83.00,58.22,0
57.00,55.25,0
120.00,53.78,0
107.00,54.23,0
129.00,56.59,0
124.00,60.59,0
136.00,65.88,0
166.00,72.38,0
106.00,79.69,0
151.00,86.97,0
75.00,93.62,0
129.00,99.14,0
100.00,103.63,0
106.00,107.20,0
75.00,109.57,0
85.00,110.55,0
75.00,110.29,0
53.00,108.83,0
66.00,106.18,0
66.00,102.73,0
48.00,98.74,0
42.00,94.13,0
49.00,88.99,0
52.00,83.73,0
79.00,78.88,0
37.00,74.63,0
60.00,70.69,0
70.00,67.23,0
71.00,64.63,0
86.00,62.97,0
108.00,62.53,0
141.00,63.80,0
175.00,67.36,0
116.00,72.86,0
166.00,79.35,0
146.00,86.59,0
148.00,94.24,0
108.00,101.49,0
95.00,107.43,0
98.00,111.67,0
136.00,114.73,0
88.00,117.05,0
99.00,118.34,0
60.00,118.26,0
75.00,116.72,0
50.00,113.84,0
58.00,109.80,0
56.00,104.93,0
43.00,99.52,0
46.00,93.66,0
44.00,87.60,0
37.00,81.51,0
42.00,75.51,0
107.00,70.34,0
72.00,66.79,0
143.00,65.16,0
77.00,65.35,0
126.00,66.83,0
142.00,69.63,0
118.00,73.85,0
131.00,78.84,0
143.00,84.36,0
139.00,90.37,0
162.00,96.78,0
95.00,103.08,0
146.00,108.58,0
85.00,113.06,0
75.00,115.94,0
61.00,116.73,0
106.00,115.98,0
91.00,114.57,0
65.00,112.63,0
69.00,109.82,0
76.00,106.35,0
40.00,102.34,0
43.00,97.57,0
41.00,92.07,0
36.00,86.18,0
37.00,80.09,0
98.00,74.53,0
38.00,70.08,0
74.00,66.44,0
114.00,63.95,0
118.00,63.46,0
155.00,65.17,0
116.00,68.82,0
144.00,73.74,0
127.00,79.43,0
138.00,85.57,0
83.00,91.43,0
167.00,96.75,0
98.00,101.85,0
127.00,106.42,0
115.00,110.22,0
92.00,113.18,0
97.00,114.95,0
64.00,115.40,0
57.00,114.24,0
42.00,111.38,0
42.00,107.05,0
43.00,101.59,0
42.00,95.49,0
50.00,89.16,0
52.00,83.01,0
36.00,77.16,0
92.00,71.95,0
71.00,68.02,0
109.00,65.63,0
75.00,64.65,0
121.00,64.91,0
151.00,66.83,0
128.00,70.66,0
117.00,75.57,0
127.00,80.83,0
145.00,86.44,0
173.00,92.73,0
116.00,99.47,0
135.00,105.77,0
133.00,111.34,0
129.00,116.28,0
46.00,119.80,0
120.00,121.32,0
70.00,121.40,0
51.00,120.02,0
57.00,116.89,0
61.00,112.52,0
54.00,107.40,0
43.00,101.70,0
45.00,95.52,0
39.00,89.09,0
60.00,82.77,0
43.00,76.88,0
42.00,71.43,0
39.00,66.29,0
92.00,61.95,0
101.00,59.29,0
111.00,58.66,0
105.00,59.76,0
115.00,62.24,0
151.00,66.07,0
99.00,71.08,0
88.00,76.16,0
173.00,81.20,0
61.00,86.43,0
153.00,91.26,0
126.00,95.98,0
124.00,100.76,0
120.00,105.15,0
110.00,108.93,0
65.00,111.53,0
111.00,112.73,0
62.00,112.79,0
96.00,111.84,0
56.00,109.98,0
68.00,107.22,0
65.00,103.69,0
42.00,99.57,0
35.00,94.67,0
60.00,89.22,0
46.00,83.79,0
49.00,78.56,0
48.00,73.58,0
55.00,69.02,0
105.00,65.45,0
103.00,63.62,0
110.00,63.60,0
127.00,65.23,0
109.00,68.22,0
106.00,71.96,0
114.00,76.03,0
120.00,80.36,0
105.00,84.78,0
136.00,89.19,0
153.00,93.98,0
78.00,98.81,0
173.00,103.20,0
83.00,107.32,0
57.00,110.17,0
62.00,110.84,0
77.00,109.80,0
56.00,107.63,0
60.00,104.48,0
63.00,100.58,0
64.00,96.36,0
38.00,91.86,0
46.00,86.94,0
39.00,81.73,0
49.00,76.49,0
86.00,71.83,0
85.00,68.44,0
44.00,66.08,0
111.00,64.44,0
111.00,64.19,0
117.00,65.59,0
130.00,68.42,0
131.00,72.51,0
141.00,77.64,0
88.00,83.11,0
146.00,88.35,0
118.00,93.53,0
146.00,98.74,0
57.00,103.29,0
166.00,106.86,0
36.00,109.55,0
108.00,110.83,0
81.00,110.89,0
98.00,110.31,0
53.00,108.95,0
73.00,106.60,0
52.00,103.37,0
44.00,99.33,0
81.00,94.82,0
70.00,90.52,0
37.00,86.40,0
58.00,82.08,0
49.00,77.75,0
66.00,73.73,0
58.00,70.21,0
96.00,67.51,0
72.00,65.89,0
65.00,65.01,0
168.00,65.26,0
122.00,67.59,0
147.00,71.77,0
126.00,77.05,0
169.00,83.23,0
88.00,89.75,0
145.00,95.80,0
98.00,101.16,0
147.00,105.92,0
111.00,110.19,0
120.00,113.84,0
115.00,116.70,0
86.00,118.62,0
74.00,119.13,0
74.00,118.14,0
65.00,115.86,0
49.00,112.39,0
38.00,107.68,0
100.00,102.42,0
43.00,97.35,0
37.00,92.12,0
38.00,86.38,0
43.00,80.46,0
64.00,74.85,0
70.00,70.10,0
118.00,66.84,0
91.00,65.46,0
83.00,65.40,0
114.00,66.26,0
94.00,68.07,0
121.00,70.70,0
158.00,74.44,0
130.00,79.50,0
131.00,85.28,0
100.00,90.91,0
155.00,96.20,0
83.00,101.11,0
146.00,105.36,0
119.00,109.19,0
135.00,112.78,0
86.00,115.70,0
134.00,117.75,0
94.00,119.12,0
82.00,119.56,0
62.00,118.56,0
70.00,116.16,0
52.00,112.60,0
54.00,108.04,0
38.00,102.63,0
48.00,96.60,0
54.00,90.38,0
41.00,84.29,0
38.00,78.31,0
48.00,72.53,0
81.00,67.52,0
65.00,63.75,0
102.00,61.37,0
140.00,60.92,0
113.00,62.65,0
112.00,65.87,0
98.00,69.74,0
128.00,73.98,0
137.00,78.83,0
80.00,83.88,0
160.00,88.73,0
167.00,94.17,0
186.00,100.82,0
94.00,107.78,0
126.00,113.63,0
66.00,117.73,0
109.00,119.96,0
56.00,120.50,0
64.00,119.28,0
46.00,116.29,0
50.00,111.86,0
43.00,106.35,0
45.00,100.10,0
45.00,93.52,0
37.00,86.83,0
74.00,80.47,0
58.00,74.98,0
58.00,70.38,0
75.00,66.62,0
98.00,64.10,0
68.00,62.87,0
118.00,62.77,0
142.00,64.30,0
97.00,67.46,0
124.00,71.43,0
143.00,76.15,0
100.00,81.43,0
148.00,86.81,0
118.00,92.29,0
127.00,97.63,0
99.00,102.35,0
83.00,105.93,0
75.00,107.95,0
94.00,108.63,0
39.00,108.03,0
95.00,106.22,0
38.00,103.53,0
52.00,99.91,0
38.00,95.33,0
43.00,90.10,0
42.00,84.52,0
49.00,78.93,0
58.00,73.71,0
89.00,69.41,0
91.00,66.55,0
88.00,65.15,0
87.00,64.85,0
101.00,65.50,0
111.00,67.12,0
107.00,69.68,0
117.00,72.97,0
91.00,76.65,0
115.00,80.33,0
115.00,84.08,0
174.00,88.45,0
103.00,93.54,0
136.00,98.57,0
71.00,102.82,0
87.00,105.66,0
94.00,107.14,0
93.00,107.75,0
75.00,107.59,0
77.00,106.56,0
48.00,104.55,0
42.00,101.34,0
40.00,96.98,0
44.00,91.82,0
39.00,86.26,0
61.00,80.68,0
44.00,75.48,0
60.00,70.75,0
54.00,66.62,0
106.00,63.54,0
80.00,61.95,0
80.00,61.54,0
110.00,62.10,0
128.00,64.00,0
143.00,67.55,0
129.00,72.52,0
155.00,78.50,0
145.00,85.27,0
118.00,92.24,0
108.00,98.53,0
142.00,103.99,0
94.00,108.72,0
231.00,113.36,0
100.00,118.58,0
178.00,123.65,0
47.00,127.57,0
105.00,129.44,0
57.00,129.19,0
74.00,127.15,0
44.00,123.43,0
65.00,118.39,0
42.00,112.43,0
58.00,105.87,0
36.00,98.98,0
59.00,92.04,0
61.00,85.49,0
62.00,79.70,0
65.00,74.72,0
86.00,70.77,0
106.00,68.27,0
113.00,67.51,0
120.00,68.43,0
136.00,70.94,0
124.00,74.78,0
144.00,79.58,0
162.00,85.37,0
121.00,91.81,0
144.00,98.20,0
63.00,103.70,0
146.00,107.89,0
81.00,111.11,0
153.00,113.69,0
87.00,115.81,0
48.00,116.69,0
76.00,115.65,0
66.00,113.23,0
39.00,109.70,0
68.00,105.12,0
67.00,100.17,0
49.00,95.16,0
47.00,89.96,0
52.00,84.64,0
48.00,79.44,0
40.00,74.42,0
69.00,69.76,0
44.00,65.76,0
87.00,62.56,0
101.00,60.69,0
84.00,60.34,0
100.00,61.13,0
140.00,63.21,0
126.00,66.89,0
124.00,71.77,0
106.00,77.07,0
117.00,82.30,0
98.00,87.18,0
151.00,91.84,0
127.00,96.72,0
118.00,101.56,0
112.00,105.80,0
92.00,109.12,0
65.00,111.00,0
76.00,111.21,0
82.00,110.17,0
42.00,108.04,0
37.00,104.54,0
41.00,99.70,0
41.00,94.06,0
43.00,88.01,0
47.00,81.95,0
51.00,76.19,0
53.00,70.95,0
51.00,66.35,0
127.00,62.99,0
79.00,61.53,0
72.00,61.34,0
62.00,61.52,0
137.00,62.37,0
137.00,64.88,0
185.00,69.59,0
117.00,76.03,0
145.00,83.09,0
110.00,89.98,0
155.00,96.55,0
155.00,103.11,0
106.00,109.40,0
90.00,114.35,0
102.00,117.53,0
62.00,119.00,0
108.00,118.94,0
44.00,117.62,0
81.00,115.00,0
60.00,111.40,0
44.00,107.02,0
48.00,101.74,0
41.00,95.87,0
54.00,89.76,0
39.00,83.70,0
46.00,77.79,0
82.00,72.49,0
40.00,68.14,0
97.00,64.71,0
105.00,62.78,0
135.00,62.90,0
103.00,64.87,0
126.00,68.09,0
138.00,72.37,0
127.00,77.62,0
146.00,83.50,0
88.00,89.40,0
133.00,94.69,0
134.00,99.61,0
112.00,104.30,0
84.00,108.07,0
87.00,110.40,0
59.00,111.14,0
99.00,110.53,0
49.00,108.95,0
46.00,106.15,0
39.00,101.99,0
53.00,96.91,0
38.00,91.36,0
46.00,85.56,0
35.00,79.69,0
85.00,74.25,0
41.00,69.70,0
39.00,65.64,0
68.00,61.93,0
46.00,58.89,0
66.00,56.50,0
114.00,55.24,0
145.00,56.11,0
89.00,58.96,0
144.00,63.08,0
127.00,68.28,0
146.00,74.47,0
60.00,80.67,0
153.00,86.17,0
127.00,91.59,0
142.00,97.22,0
106.00,102.56,0
123.00,107.17,0
65.00,110.57,0
44.00,111.95,0
55.00,110.99,0
54.00,108.32,0
52.00,104.47,0
49.00,99.80,0
52.00,94.61,0
48.00,89.19,0
46.00,83.73,0
42.00,78.31,0
53.00,73.12,0
49.00,68.38,0
72.00,64.36,0
52.00,61.21,0
62.00,58.76,0
116.00,57.38,0
84.00,57.56,0
124.00,59.18,0
122.00,62.22,0
150.00,66.75,0
142.00,72.63,0
107.00,79.20,0
150.00,85.76,0
49.00,91.67,0
171.00,96.60,0
99.00,101.19,0
108.00,105.28,0
44.00,107.87,0
117.00,108.85,0
76.00,108.93,0
93.00,108.38,0
81.00,107.21,0
107.00,105.77,0
35.00,103.91,0
56.00,100.98,0
39.00,96.95,0
62.00,92.32,0
42.00,87.45,0
46.00,82.44,0
40.00,77.34,0
44.00,72.32,0
44.00,67.52,0
108.00,63.63,0
96.00,61.51,0
39.00,60.69,0
187.00,61.05,0
94.00,63.50,0
107.00,67.28,0
100.00,71.29,0
98.00,75.33,0
70.00,78.93,0
152.00,82.29,0
48.00,85.61,0
115.00,88.30,0
81.00,90.40,0
74.00,91.90,0
42.00,92.24,0
58.00,91.20,0
76.00,89.35,0
37.00,87.02,0
46.00,83.97,0
43.00,80.30,0
54.00,76.39,0
56.00,72.60,0
51.00,69.11,0
42.00,65.83,0
42.00,62.61,0
67.00,59.70,0
42.00,57.31,0
86.00,55.56,0
114.00,55.11,0
113.00,56.48,0
150.00,59.72,0
83.00,64.31,0
130.00,69.36,0
111.00,74.67,0
136.00,80.27,0
47.00,85.42,0
100.00,89.24,0
41.00,91.58,0
112.00,92.75,0
80.00,93.43,0
86.00,93.82,0
117.00,94.06,0
40.00,94.11,0
46.00,93.05,0
36.00,90.54,0
40.00,86.94,0
159.00,83.60,0
57.00,81.74,0
41.00,80.22,0
40.00,77.88,0
50.00,74.95,0
44.00,71.75,0
58.00,68.57,0
82.00,65.89,0
75.00,64.14,0
71.00,63.19,0
96.00,62.97,0
113.00,63.84,0
107.00,65.96,0
120.00,69.09,0
93.00,72.82,0
92.00,76.54,0
96.00,79.92,0
108.00,83.08,0
146.00,86.54,0
144.00,90.79,0
52.00,95.04,0
127.00,98.21,0
130.00,100.98,0
43.00,103.30,0
43.00,103.79,0
85.00,102.48,0
36.00,100.15,0
39.00,96.70,0
48.00,92.21,0
64.00,87.39,0
37.00,82.60,0
83.00,78.05,0
63.00,74.22,0
51.00,71.00,0
75.00,68.19,0
44.00,65.82,0
105.00,64.07,0
125.00,63.74,0
98.00,65.16,0
169.00,68.12,0
111.00,72.64,0
118.00,77.88,0
121.00,83.16,0
107.00,88.28,0
150.00,93.26,0
40.00,97.66,0
174.00,101.12,0
53.00,104.04,0
42.00,105.49,0
129.00,105.28,0
68.00,104.69,0
51.00,103.38,0
57.00,100.84,0
59.00,97.44,0
38.00,93.38,0
49.00,88.72,0
37.00,83.67,0
39.00,78.41,0
46.00,73.14,0
42.00,68.15,0
51.00,63.60,0
60.00,59.73,0
40.00,56.55,0
69.00,54.00,0
95.00,52.53,0
317.00,54.44,0
107.00,61.05,0
123.00,69.44,0
100.00,77.27,0
89.00,84.07,0
131.00,89.84,0
88.00,94.89,0
80.00,98.78,0
107.00,101.40,0
83.00,103.17,0
114.00,104.28,0
137.00,105.39,0
137.00,107.09,0
72.00,108.83,0
75.00,109.48,0
34.00,108.47,0
60.00,105.79,0
43.00,101.89,0
42.00,97.11,0
47.00,91.69,0
58.00,86.15,0
71.00,81.01,0
45.00,76.46,0
38.00,72.12,0
113.00,68.37,0
60.00,65.93,0
59.00,64.31,0
66.00,62.97,0
80.00,62.11,0
54.00,61.72,0
122.00,61.95,0
98.00,63.35,0
81.00,65.61,0
108.00,68.22,0
98.00,71.22,0
145.00,74.84,0
99.00,79.17,0
129.00,83.74,0
54.00,87.84,0
82.00,90.68,0
78.00,92.29,0
78.00,93.07,0
35.00,92.81,0
99.00,91.58,0
36.00,89.83,0
112.00,87.88,0
39.00,85.96,0
40.00,83.56,0
47.00,80.35,0
44.00,76.73,0
43.00,72.90,0
36.00,68.95,0
71.00,65.21,0
101.00,62.52,0
45.00,61.04,0
71.00,60.06,0
91.00,59.63,0
71.00,60.01,0
121.00,61.25,0
106.00,63.65,0
148.00,67.35,0
41.00,71.62,0
146.00,75.60,0
64.00,79.41,0
104.00,82.81,0
112.00,85.83,0
91.00,88.75,0
75.00,91.08,0
73.00,92.44,0
45.00,92.60,0
38.00,91.32,0
37.00,88.62,0
39.00,84.89,0
36.00,80.49,0
47.00,75.80,0
36.00,71.08,0
52.00,66.56,0
43.00,62.44,0
40.00,58.71,0
84.00,55.65,0
58.00,53.67,0
76.00,52.68,0
93.00,52.69,0
64.00,53.65,0
100.00,55.26,0
133.00,57.96,0
101.00,61.95,0
101.00,66.55,0
91.00,71.09,0
129.00,75.60,0
70.00,79.99,0
121.00,83.90,0
96.00,87.48,0
127.00,90.93,0
74.00,94.06,0
107.00,96.48,0
54.00,97.94,0
68.00,98.16,0
44.00,97.02,0
82.00,94.89,0
40.00,92.19,0
42.00,88.77,0
37.00,84.55,0
60.00,80.01,0
38.00,75.52,0
40.00,71.07,0
47.00,66.69,0
46.00,62.65,0
93.00,59.42,0
41.00,57.27,0
79.00,55.84,0
102.00,55.40,0
108.00,56.47,0
126.00,59.09,0
128.00,63.16,0
77.00,67.98,0
128.00,72.78,0
85.00,77.48,0
127.00,82.00,0
86.00,86.24,0
110.00,89.98,0
80.00,93.05,0
83.00,95.22,0
81.00,96.42,0
62.00,96.68,0
51.00,95.81,0
57.00,93.77,0
71.00,91.08,0
35.00,87.95,0
39.00,84.15,0
48.00,79.81,0
43.00,75.35,0
60.00,71.08,0
37.00,67.13,0
39.00,63.34,0
40.00,59.66,0
41.00,56.20,0
88.00,53.45,0
92.00,52.16,0
103.00,52.58,0
77.00,54.26,0
80.00,56.54,0
127.00,59.42,0
88.00,63.14,0
63.00,66.91,0
200.00,70.99,0
74.00,76.17,0
138.00,81.62,0
58.00,86.43,0
97.00,90.12,0
92.00,92.79,0
77.00,94.70,0
54.00,95.51,0
60.00,94.98,0
36.00,93.18,0
39.00,90.14,0
44.00,86.14,0
39.00,81.64,0
47.00,76.91,0
60.00,72.37,0
43.00,68.26,0
68.00,64.65,0
62.00,61.76,0
89.00,59.85,0
77.00,59.04,0
76.00,59.12,0
42.00,59.46,0
106.00,59.95,0
89.00,61.18,0
122.00,63.46,0
108.00,66.73,0
86.00,70.52,0
111.00,74.31,0
103.00,78.12,0
127.00,82.11,0
76.00,86.00,0
122.00,89.43,0
61.00,92.22,0
65.00,93.85,0
52.00,94.00,0
60.00,92.90,0
82.00,91.09,0
35.00,88.84,0
47.00,85.83,0
57.00,82.24,0
42.00,78.47,0
49.00,74.56,0
51.00,70.71,0
49.00,67.10,0
51.00,63.79,0
47.00,60.80,0
70.00,58.30,0
83.00,56.70,0
59.00,56.06,0
92.00,56.14,0
133.00,57.45,0
125.00,60.54,0
95.00,64.83,0
120.00,69.54,0
129.00,74.65,0
86.00,79.91,0
149.00,84.99,0
106.00,90.09,0
96.00,94.77,0
108.00,98.54,0
112.00,101.66,0
88.00,104.14,0
86.00,105.66,0
47.00,105.86,0
47.00,104.38,0
76.00,101.59,0
56.00,98.22,0
42.00,94.31,0
37.00,89.69,0
42.00,84.51,0
45.00,79.16,0
37.00,73.87,0
51.00,68.81,0
38.00,64.15,0
50.00,59.95,0
64.00,56.45,0
107.00,54.27,0
88.00,53.83,0
96.00,54.85,0
118.00,57.08,0
141.00,60.80,0
96.00,65.72,0
146.00,71.24,0
127.00,77.36,0
109.00,83.66,0
122.00,89.55,0
71.00,94.56,0
172.00,98.85,0
82.00,102.95,0
115.00,106.39,0
36.00,108.34,0
126.00,108.83,0
39.00,108.29,0
74.00,106.61,0
35.00,103.62,0
47.00,99.47,0
48.00,94.49,0
49.00,89.16,0
89.00,84.10,0
41.00,79.68,0
61.00,75.61,0
62.00,71.87,0
86.00,68.90,0
61.00,66.80,0
70.00,65.31,0
121.00,64.68,0
88.00,65.38,0
76.00,66.85,0
169.00,69.13,0
98.00,72.83,0
104.00,77.11,0
65.00,80.89,0
155.00,84.30,0
70.00,87.79,0
115.00,90.93,0
40.00,93.12,0
51.00,93.72,0
70.00,92.83,0
76.00,91.30,0
38.00,89.25,0
39.00,86.33,0
60.00,82.72,0
56.00,79.02,0
51.00,75.44,0
38.00,71.84,0
36.00,68.08,0
81.00,64.54,0
66.00,61.90,0
97.00,60.42,0
68.00,60.02,0
86.00,60.37,0
88.00,61.36,0
69.00,62.82,0
90.00,64.46,0
80.00,66.30,0
143.00,68.76,0
90.00,72.14,0
96.00,75.78,0
78.00,79.02,0
111.00,81.87,0
127.00,84.86,0
103.00,88.19,0
66.00,91.10,0
68.00,92.81,0
66.00,93.27,0
52.00,92.62,0
63.00,90.97,0
46.00,88.58,0
38.00,85.42,0
39.00,81.52,0
38.00,77.12,0
45.00,72.56,0
43.00,68.09,0
52.00,63.97,0
44.00,60.29,0
63.00,57.18,0
63.00,54.86,0
101.00,53.67,0
73.00,53.78,0
125.00,55.16,0
136.00,58.19,0
162.00,63.21,0
136.00,69.84,0
118.00,77.16,0
124.00,84.27,0
68.00,90.48,0
125.00,95.39,0
80.00,99.24,0
196.00,102.87,0
70.00,106.72,0
90.00,109.63,0
73.00,110.88,0
87.00,110.82,0
45.00,109.52,0
131.00,107.45,0
36.00,105.15,0
38.00,101.93,0
36.00,97.34,0
44.00,91.90,0
55.00,86.21,0
53.00,80.75,0
66.00,75.81,0
70.00,71.65,0
41.00,68.17,0
81.00,65.19,0
68.00,63.02,0
67.00,61.64,0
84.00,60.92,0
70.00,60.87,0
93.00,61.46,0
144.00,63.16,0
81.00,66.20,0
87.00,69.57,0
72.00,72.53,0
64.00,74.83,0
96.00,76.55,0
36.00,77.73,0
123.00,78.47,0
102.00,79.61,0
113.00,81.49,0
39.00,83.26,0
51.00,83.85,0
44.00,83.06,0
46.00,81.25,0
66.00,78.85,0
39.00,76.21,0
41.00,73.20,0
57.00,69.97,0
49.00,66.89,0
62.00,64.12,0
46.00,61.72,0
38.00,59.43,0
140.00,57.90,0
44.00,57.82,0
64.00,58.25,0
64.00,58.61,0
38.00,58.84,0
100.00,59.06,0
106.00,60.10,0
132.00,62.58,0
102.00,66.30,0
100.00,70.55,0
109.00,74.83,0
93.00,79.01,0
141.00,83.18,0
66.00,87.24,0
118.00,90.67,0
65.00,93.32,0
82.00,94.96,0
54.00,95.40,0
46.00,94.53,0
60.00,92.45,0
50.00,89.61,0
34.00,86.09,0
40.00,81.86,0
42.00,77.23,0
65.00,72.72,0
64.00,68.84,0
68.00,65.77,0
37.00,63.22,0
43.00,60.72,0
71.00,58.42,0
48.00,56.67,0
95.00,55.62,0
76.00,55.60,0
88.00,56.50,0
121.00,58.39,0
91.00,61.38,0
119.00,65.12,0
119.00,69.50,0
57.00,73.95,0
95.00,77.59,0
99.00,80.66,0
117.00,83.71,0
43.00,86.36,0
118.00,88.18,0
105.00,89.83,0
101.00,91.65,0
37.00,92.85,0
44.00,92.49,0
42.00,90.55,0
46.00,87.49,0
34.00,83.66,0
40.00,79.26,0
38.00,74.54,0
50.00,69.86,0
50.00,65.54,0
42.00,61.68,0
38.00,58.13,0
43.00,54.84,0
79.00,52.21,0
55.00,50.59,0
70.00,49.83,0
42.00,49.56,0
100.00,49.82,0
114.00,51.32,0
93.00,54.24,0
95.00,57.93,0
111.00,62.08,0
76.00,66.42,0
88.00,70.42,0
66.00,73.77,0
112.00,76.62,0
73.00,79.25,0
73.00,81.36,0
75.00,82.71,0
49.00,83.25,0
39.00,82.66,0
57.00,80.99,0
46.00,78.69,0
37.00,75.88,0
58.00,72.70,0
38.00,69.45,0
51.00,66.22,0
40.00,63.06,0
67.00,60.21,0
68.00,58.06,0
71.00,56.76,0
46.00,56.02,0
82.00,55.62,0
99.00,56.04,0
114.00,57.77,0
146.00,61.07,0
98.00,65.74,0
41.00,70.28,0
98.00,73.71,0
48.00,76.23,0
136.00,78.35,0
40.00,80.34,0
108.00,81.88,0
58.00,82.94,0
56.00,83.31,0
126.00,83.29,0
69.00,83.63,0
64.00,83.84,0
74.00,83.47,0
39.00,82.49,0
54.00,80.72,0
37.00,78.24,0
50.00,75.25,0
43.00,71.97,0
42.00,68.57,0
78.00,65.41,0
44.00,62.85,0
55.00,60.65,0
39.00,58.57,0
72.00,56.74,0
60.00,55.49,0
84.00,54.99,0
69.00,55.25,0
84.00,56.15,0
112.00,57.86,0
80.00,60.47,0
118.00,63.67,0
104.00,67.48,0
100.00,71.67,0
92.00,75.76,0
67.00,79.27,0
146.00,82.38,0
86.00,85.71,0
132.00,89.14,0
41.00,92.03,0
52.00,93.36,0
39.00,92.80,0
56.00,90.82,0
36.00,87.85,0
39.00,84.06,0
35.00,79.63,0
42.00,74.87,0
43.00,70.12,0
55.00,65.71,0
49.00,61.85,0
70.00,58.72,0
47.00,56.35,0
89.00,54.78,0
92.00,54.41,0
53.00,55.03,0
84.00,56.02,0
92.00,57.50,0
89.00,59.69,0
119.00,62.60,0
109.00,66.35,0
68.00,70.36,0
93.00,73.87,0
61.00,76.71,0
127.00,79.15,0
38.00,81.31,0
84.00,82.64,0
49.00,83.02,0
43.00,82.41,0
33.00,80.60,0
38.00,77.79,0
35.00,74.24,0
42.00,70.34,0
50.00,66.44,0
34.00,62.73,0
38.00,59.13,0
79.00,56.00,0
82.00,54.07,0
70.00,53.40,0
41.00,53.31,0
41.00,53.07,0
110.00,53.05,0
80.00,54.12,0
106.00,56.24,0
149.00,59.64,0
69.00,64.15,0
125.00,68.87,0
66.00,73.36,0
120.00,77.47,0
76.00,81.18,0
86.00,84.28,0
145.00,87.10,0
40.00,89.80,0
100.00,91.57,0
70.00,92.44,0
147.00,93.25,0
49.00,94.19,0
59.00,94.30,0
38.00,92.94,0
36.00,90.25,0
55.00,86.59,0
37.00,82.44,0
54.00,78.07,0
43.00,73.73,0
48.00,69.54,0
54.00,65.65,0
46.00,62.20,0
40.00,59.06,0
84.00,56.45,0
66.00,54.86,0
94.00,54.40,0
59.00,54.86,0
96.00,55.93,0
125.00,58.01,0
102.00,61.39,0
73.00,65.24,0
130.00,69.13,0
100.00,73.38,0
112.00,77.85,0
41.00,81.68,0
101.00,84.34,0
64.00,86.11,0
54.00,86.94,0
44.00,86.49,0
59.00,84.94,0
39.00,82.61,0
37.00,79.54,0
74.00,76.13,0
37.00,72.84,0
38.00,69.47,0
46.00,65.93,0
37.00,62.43,0
37.00,59.01,0
65.00,55.91,0
75.00,53.71,0
64.00,52.57,0
46.00,52.02,0
96.00,51.96,0
63.00,52.69,0
132.00,54.43,0
112.00,57.58,0
86.00,61.72,0
80.00,65.83,0
103.00,69.67,0
88.00,73.38,0
94.00,76.85,0
87.00,79.94,0
114.00,82.81,0
70.00,85.43,0
102.00,87.54,0
38.00,88.82,0
101.00,89.17,0
64.00,88.99,0
48.00,88.21,0
42.00,86.37,0
47.00,83.59,0
36.00,80.13,0
43.00,76.18,0
53.00,72.12,0
56.00,68.34,0
68.00,65.13,0
44.00,62.49,0
44.00,60.07,0
52.00,57.77,0
56.00,55.79,0
41.00,54.14,0
81.00,52.90,0
70.00,52.47,0
76.00,52.86,0
88.00,53.99,0
102.00,55.97,0
97.00,58.83,0
90.00,62.25,0
105.00,65.95,0
75.00,69.68,0
60.00,72.82,0
117.00,75.37,0
72.00,77.84,0
91.00,80.06,0
64.00,81.72,0
73.00,82.69,0
45.00,82.81,0
60.00,81.99,0
36.00,80.31,0
50.00,77.89,0
50.00,75.00,0
37.00,71.87,0
40.00,68.47,0
76.00,65.21,0
35.00,62.45,0
59.00,59.98,0
38.00,57.70,0
96.00,55.97,0
75.00,55.33,0
96.00,55.84,0
72.00,57.19,0
102.00,59.15,0
83.00,61.66,0
122.00,64.75,0
114.00,68.61,0
84.00,72.85,0
83.00,76.69,0
95.00,79.92,0
91.00,82.74,0
93.00,85.21,0
144.00,87.74,0
75.00,90.53,0
80.00,92.76,0
57.00,93.80,0
39.00,93.40,0
34.00,91.41,0
36.00,88.04,0
35.00,83.75,0
36.00,78.88,0
48.00,73.85,0
55.00,69.13,0
76.00,65.19,0
60.00,62.26,0
57.00,60.06,0
70.00,58.43,0
154.00,58.15,0
126.00,60.17,0
65.00,63.60,0
60.00,66.72,0
69.00,68.99,0
134.00,71.17,0
118.00,74.25,0
109.00,78.10,0
119.00,82.21,0
79.00,86.15,0
119.00,89.56,0
42.00,92.16,0
86.00,93.46,0
35.00,93.43,0
84.00,92.29,0
37.00,90.36,0
55.00,87.65,0
62.00,84.42,0
72.00,81.24,0
55.00,78.30,0
39.00,75.30,0
42.00,71.98,0
55.00,68.54,0
56.00,65.38,0
77.00,62.84,0
76.00,61.20,0
68.00,60.38,0
38.00,59.83,0
53.00,59.07,0
66.00,58.26,0
96.00,58.06,0
90.00,58.85,0
104.00,60.67,0
79.00,63.17,0
106.00,66.02,0
127.00,69.48,0
72.00,73.38,0
127.00,77.21,0
50.00,80.68,0
115.00,83.47,0
81.00,85.82,0
84.00,87.74,0
96.00,89.16,0
38.00,89.88,0
41.00,89.20,0
72.00,87.31,0
46.00,84.89,0
50.00,82.01,0
50.00,78.74,0
53.00,75.32,0
42.00,71.87,0
54.00,68.44,0
54.00,65.26,0
38.00,62.34,0
58.00,59.61,0
64.00,57.36,0
95.00,56.09,0
84.00,56.06,0
115.00,57.33,0
82.00,59.65,0
98.00,62.58,0
130.00,66.10,0
71.00,70.14,0
89.00,73.87,0
100.00,77.15,0
39.00,79.81,0
110.00,81.56,0
52.00,82.77,0
82.00,83.39,0
46.00,83.26,0
67.00,82.41,0
62.00,81.04,0
40.00,79.22,0
37.00,76.71,0
36.00,73.50,0
39.00,69.86,0
41.00,66.06,0
45.00,62.36,0
39.00,58.88,0
57.00,55.79,0
47.00,53.24,0
66.00,51.34,0
82.00,50.37,0
91.00,50.61,0
66.00,51.85,0
77.00,53.56,0
91.00,55.67,0
163.00,58.92,0
112.00,63.82,0
89.00,69.37,0
69.00,74.27,0
86.00,78.12,0
54.00,80.90,0
87.00,82.65,0
65.00,83.68,0
98.00,84.30,0
54.00,84.59,0
42.00,84.06,0
61.00,82.53,0
61.00,80.49,0
43.00,78.16,0
89.00,75.74,0
36.00,73.53,0
54.00,71.19,0
50.00,68.66,0
44.00,66.11,0
37.00,63.43,0
47.00,60.66,0
49.00,58.04,0
48.00,55.73,0
53.00,53.76,0
98.00,52.58,0
39.00,52.32,0
46.00,52.23,0
108.00,52.41,0
68.00,53.53,0
105.00,55.50,0
131.00,58.55,0
100.00,62.81,0
107.00,67.58,0
111.00,72.48,0
72.00,77.12,0
66.00,80.74,0
38.00,82.84,0
105.00,83.72,0
54.00,84.13,0
98.00,84.22,0
46.00,83.96,0
72.00,83.15,0
60.00,81.85,0
56.00,80.21,0
70.00,78.31,0
39.00,76.21,0
78.00,73.96,0
59.00,71.90,0
52.00,70.01,0
88.00,68.34,0
63.00,67.21,0
73.00,66.50,0
75.00,66.12,0
111.00,66.40,0
86.00,67.58,0
70.00,69.18,0
106.00,70.84,0
110.00,73.01,0
156.00,76.23,0
94.00,80.43,0
94.00,84.58,0
86.00,87.98,0
92.00,90.61,0
62.00,92.35,0
90.00,93.16,0
36.00,92.97,0
89.00,91.82,0
56.00,90.14,0
59.00,88.03,0
110.00,85.86,0
99.00,84.50,0
56.00,83.69,0
36.00,82.35,0
49.00,80.07,0
49.00,77.21,0
48.00,74.10,0
64.00,71.01,0
83.00,68.46,0
69.00,66.72,0
55.00,65.48,0
56.00,64.31,0
80.00,63.34,0
64.00,62.82,0
74.00,62.69,0
94.00,63.04,0
97.00,64.19,0
130.00,66.41,0
121.00,69.83,0
61.00,73.71,0
78.00,76.87,0
89.00,79.26,0
97.00,81.38,0
55.00,83.09,0
141.00,84.51,0
38.00,85.90,0
71.00,86.50,0
46.00,85.95,0
46.00,84.42,0
60.00,82.10,0
45.00,79.37,0
37.00,76.21,0
57.00,72.75,0
66.00,69.50,0
36.00,66.60,0
40.00,63.66,0
75.00,60.90,0
59.00,58.84,0
38.00,57.24,0
80.00,55.91,0
54.00,55.14,0
53.00,54.73,0
108.00,54.82,0
80.00,55.96,0
89.00,57.93,0
78.00,60.29,0
72.00,62.72,0
113.00,65.26,0
123.00,68.51,0
110.00,72.58,0
40.00,76.45,0
105.00,79.29,0
44.00,81.26,0
106.00,82.54,0
42.00,83.25,0
57.00,83.06,0
42.00,81.80,0
38.00,79.61,0
46.00,76.67,0
38.00,73.27,0
43.00,69.63,0
49.00,66.00,0
42.00,62.56,0
85.00,59.67,0
74.00,57.87,0
54.00,56.97,0
69.00,56.48,0
58.00,56.30,0
89.00,56.57,0
68.00,57.42,0
55.00,58.49,0
58.00,59.31,0
75.00,60.01,0
93.00,61.04,0
73.00,62.57,0
91.00,64.40,0
83.00,66.45,0
65.00,68.48,0
138.00,70.65,0
53.00,73.23,0
69.00,75.36,0
41.00,76.40,0
39.00,76.21,0
37.00,74.84,0
41.00,72.60,0
45.00,69.85,0
50.00,66.93,0
56.00,64.17,0
45.00,61.66,0
66.00,59.46,0
105.00,58.16,0
59.00,58.03,0
55.00,58.31,0
81.00,58.66,0
111.00,59.70,0
80.00,61.69,0
87.00,64.12,0
112.00,66.86,0
92.00,70.07,0
93.00,73.40,0
106.00,76.69,0
92.00,79.94,0
86.00,82.87,0
142.00,85.71,0
78.00,88.73,0
110.00,91.47,0
47.00,93.38,0
55.00,93.87,0
40.00,92.79,0
101.00,90.84,0
45.00,88.72,0
40.00,86.09,0
46.00,82.64,0
36.00,78.69,0
64.00,74.59,0
58.00,70.85,0
53.00,67.59,0
49.00,64.63,0
65.00,62.04,0
76.00,60.13,0
61.00,58.99,0
82.00,58.49,0
37.00,58.34,0
55.00,58.05,0
68.00,57.68,0
92.00,57.84,0
88.00,58.86,0
120.00,60.88,0
91.00,63.87,0
113.00,67.47,0
98.00,71.40,0
86.00,75.29,0
100.00,78.82,0
102.00,82.11,0
94.00,85.18,0
48.00,87.49,0
81.00,88.59,0
36.00,88.53,0
48.00,87.22,0
47.00,84.82,0
38.00,81.68,0
94.00,78.39,0
44.00,75.53,0
43.00,72.72,0
48.00,69.66,0
78.00,66.82,0
68.00,64.71,0
43.00,63.09,0
36.00,61.34,0
63.00,59.45,0
52.00,57.82,0
65.00,56.59,0
66.00,55.84,0
74.00,55.66,0
135.00,56.55,0
99.00,59.04,0
93.00,62.51,0
106.00,66.31,0
76.00,70.16,0
85.00,73.59,0
38.00,76.12,0
106.00,77.73,0
48.00,78.84,0
90.00,79.49,0
40.00,79.57,0
81.00,79.08,0
67.00,78.31,0
39.00,77.24,0
53.00,75.50,0
60.00,73.36,0
60.00,71.23,0
54.00,69.20,0
77.00,67.38,0
80.00,66.16,0
60.00,65.50,0
43.00,64.84,0
82.00,64.09,0
72.00,63.70,0
120.00,64.17,0
81.00,65.65,0
92.00,67.70,0
86.00,69.92,0
92.00,72.24,0
69.00,74.41,0
119.00,76.49,0
81.00,78.75,0
84.00,80.88,0
62.00,82.40,0
87.00,83.26,0
39.00,83.43,0
85.00,82.88,0
102.00,82.29,0
80.00,82.18,0
36.00,81.85,0
35.00,80.42,0
72.00,78.14,0
36.00,75.60,0
37.00,72.66,0
52.00,69.36,0
52.00,66.14,0
89.00,63.54,0
54.00,61.81,0
76.00,60.71,0
53.00,60.00,0
92.00,59.75,0
55.00,60.00,0
98.00,60.69,0
80.00,61.94,0
83.00,63.67,0
112.00,65.84,0
47.00,68.24,0
96.00,70.30,0
84.00,72.22,0
97.00,74.27,0
50.00,76.09,0
77.00,77.22,0
38.00,77.52,0
72.00,77.05,0
93.00,76.41,0
54.00,75.98,0
38.00,75.12,0
67.00,73.61,0
47.00,71.84,0
36.00,69.74,0
74.00,67.43,0
40.00,65.30,0
76.00,63.42,0
65.00,62.02,0
71.00,61.20,0
67.00,60.81,0
79.00,60.85,0
68.00,61.29,0
75.00,62.00,0
99.00,63.12,0
94.00,64.92,0
88.00,67.24,0
99.00,69.83,0
110.00,72.77,0
85.00,75.94,0
85.00,78.85,0
97.00,81.37,0
50.00,83.31,0
113.00,84.59,0
58.00,85.53,0
87.00,86.03,0
63.00,86.00,0
54.00,85.35,0
42.00,83.79,0
58.00,81.46,0
37.00,78.59,0
36.00,75.20,0
58.00,71.52,0
83.00,68.30,0
54.00,65.89,0
48.00,63.86,0
54.00,61.89,0
79.00,60.29,0
71.00,59.41,0
70.00,59.20,0
71.00,59.40,0
58.00,59.83,0
87.00,60.44,0
79.00,61.48,0
50.00,62.68,0
89.00,63.74,0
51.00,64.74,0
87.00,65.66,0
89.00,66.78,0
112.00,68.55,0
79.00,70.86,0
63.00,73.03,0
97.00,74.76,0
38.00,76.04,0
106.00,76.80,0
43.00,77.27,0
90.00,77.39,0
41.00,77.11,0
35.00,76.05,0
65.00,74.19,0
71.00,72.27,0
79.00,70.79,0
39.00,69.53,0
63.00,68.09,0
54.00,66.56,0
106.00,65.48,0
74.00,65.31,0
62.00,65.62,0
70.00,65.91,0
95.00,66.41,0
39.00,67.06,0
87.00,67.49,0
68.00,67.90,0
60.00,68.31,0
94.00,68.70,0
86.00,69.48,0
117.00,70.94,0
88.00,73.09,0
68.00,75.29,0
66.00,76.88,0
38.00,77.50,0
104.00,77.44,0
36.00,77.17,0
100.00,76.69,0
40.00,76.07,0
60.00,75.06,0
50.00,73.53,0
39.00,71.59,0
86.00,69.51,0
64.00,67.91,0
65.00,66.75,0
56.00,65.73,0
40.00,64.58,0
80.00,63.35,0
63.00,62.49,0
78.00,62.13,0
79.00,62.26,0
82.00,62.93,0
73.00,63.97,0
93.00,65.30,0
102.00,67.14,0
87.00,69.49,0
99.00,72.08,0
86.00,74.73,0
90.00,77.27,0
62.00,79.35,0
92.00,80.83,0
56.00,81.78,0
83.00,82.17,0
55.00,82.05,0
79.00,81.48,0
41.00,80.45,0
36.00,78.64,0
44.00,75.94,0
38.00,72.71,0
37.00,69.15,0
44.00,65.44,0
55.00,61.95,0
83.00,59.20,0
83.00,57.68,0
111.00,57.59,0
64.00,58.68,0
51.00,59.96,0
55.00,60.77,0
127.00,61.76,0
80.00,63.68,0
70.00,65.99,0
122.00,68.39,0
95.00,71.33,0
107.00,74.66,0
68.00,77.85,0
79.00,80.36,0
75.00,82.10,0
75.00,83.22,0
49.00,83.57,0
95.00,83.30,0
42.00,82.66,0
89.00,81.65,0
36.00,80.30,0
74.00,78.56,0
36.00,76.46,0
38.00,73.86,0
61.00,70.87,0
66.00,68.13,0
75.00,66.00,0
57.00,64.46,0
41.00,63.06,0
68.00,61.62,0
81.00,60.62,0
82.00,60.43,0
50.00,60.74,0
54.00,60.91,0
64.00,60.87,0
70.00,60.90,0
76.00,61.23,0
84.00,61.99,0
90.00,63.28,0
80.00,65.02,0
98.00,67.07,0
84.00,69.39,0
59.00,71.55,0
70.00,73.07,0
74.00,74.06,0
37.00,74.47,0
92.00,74.30,0
41.00,73.88,0
41.00,72.89,0
51.00,71.16,0
51.00,69.08,0
62.00,66.99,0
49.00,65.04,0
75.00,63.35,0
44.00,61.98,0
54.00,60.68,0
56.00,59.41,0
72.00,58.44,0
90.00,58.18,0
86.00,58.86,0
71.00,60.19,0
118.00,62.09,0
121.00,65.03,0
84.00,68.79,0
99.00,72.58,0
82.00,76.08,0
69.00,78.96,0
104.00,81.22,0
55.00,82.99,0
84.00,84.06,0
36.00,84.23,0
76.00,83.47,0
42.00,82.03,0
54.00,80.00,0
42.00,77.38,0
52.00,74.40,0
47.00,71.27,0
48.00,68.14,0
50.00,65.10,0
70.00,62.44,0
66.00,60.48,0
74.00,59.27,0
121.00,59.16,0
70.00,60.32,0
127.00,62.41,0
56.00,65.07,0
101.00,67.75,0
45.00,70.05,0
67.00,71.62,0
92.00,72.68,0
86.00,73.88,0
65.00,75.06,0
100.00,76.09,0
68.00,77.11,0
112.00,78.22,0
64.00,79.41,0
83.00,80.37,0
50.00,80.75,0
73.00,80.49,0
39.00,79.58,0
57.00,77.98,0
37.00,75.76,0
35.00,72.94,0
43.00,69.63,0
39.00,66.13,0
81.00,62.95,0
60.00,60.61,0
68.00,59.06,0
66.00,58.09,0
81.00,57.76,0
85.00,58.18,0
50.00,59.07,0
87.00,60.05,0
112.00,61.58,0
93.00,64.06,0
71.00,66.87,0
83.00,69.43,0
81.00,71.70,0
84.00,73.78,0
99.00,75.79,0
95.00,77.94,0
82.00,80.06,0
67.00,81.71,0
96.00,82.85,0
65.00,83.65,0
66.00,83.91,0
37.00,83.27,0
64.00,81.71,0
36.00,79.48,0
47.00,76.66,0
66.00,73.61,0
39.00,70.65,0
41.00,67.60,0
60.00,64.54,0
63.00,61.93,0
77.00,60.08,0
86.00,59.19,0
57.00,59.10,0
62.00,59.23,0
48.00,59.27,0
92.00,59.41,0
73.00,60.07,0
78.00,61.20,0
79.00,62.59,0
107.00,64.42,0
90.00,66.84,0
83.00,69.53,0
83.00,72.08,0
99.00,74.51,0
69.00,76.79,0
82.00,78.62,0
53.00,79.76,0
80.00,80.21,0
93.00,80.43,0
80.00,80.80,0
51.00,80.92,0
48.00,80.24,0
41.00,78.61,0
44.00,76.21,0
49.00,73.33,0
54.00,70.35,0
104.00,67.91,0
48.00,66.37,0
75.00,65.29,0
100.00,64.77,0
59.00,64.99,0
66.00,65.36,0
72.00,65.65,0
93.00,66.21,0
154.00,67.84,0
81.00,70.86,0
82.00,74.10,0
115.00,77.09,0
97.00,80.19,0
99.00,83.28,0
69.00,85.87,0
82.00,87.64,0
103.00,88.86,0
44.00,89.60,0
86.00,89.48,0
52.00,88.63,0
86.00,87.33,0
35.00,85.60,0
56.00,83.19,0
65.00,80.35,0
38.00,77.39,0
45.00,74.11,0
50.00,70.63,0
100.00,67.68,0
65.00,65.81,0
86.00,64.84,0
100.00,64.73,0
42.00,65.23,0
75.00,65.59,0
91.00,66.03,0
62.00,66.82,0
91.00,67.75,0
70.00,68.81,0
88.00,69.98,0
78.00,71.23,0
148.00,73.07,0
95.00,75.92,0
136.00,79.51,0
84.00,83.34,0
75.00,86.63,0
73.00,88.80,0
118.00,90.32,0
54.00,91.48,0
50.00,91.62,0
66.00,90.50,0
59.00,88.66,0
59.00,86.32,0
50.00,83.57,0
41.00,80.36,0
42.00,76.70,0
54.00,72.87,0
70.00,69.37,0
90.00,66.76,0
77.00,65.29,0
41.00,64.36,0
77.00,63.48,0
92.00,63.08,0
98.00,63.67,0
83.00,65.09,0
82.00,66.87,0
102.00,68.91,0
76.00,71.17,0
106.00,73.52,0
54.00,75.71,0
90.00,77.37,0
77.00,78.65,0
98.00,79.85,0
51.00,80.80,0
85.00,81.21,0
46.00,81.04,0
127.00,80.74,0
39.00,80.64,0
36.00,79.90,0
63.00,78.10,0
48.00,75.90,0
52.00,73.46,0
38.00,70.74,0
102.00,68.23,0
51.00,66.49,0
67.00,65.22,0
79.00,64.27,0
87.00,64.01,0
67.00,64.34,0
43.00,64.64,0
74.00,64.61,0
93.00,64.80,0
86.00,65.67,0
86.00,67.07,0
71.00,68.63,0
66.00,69.97,0
94.00,71.14,0
87.00,72.49,0
46.00,73.72,0
80.00,74.36,0
37.00,74.39,0
85.00,73.92,0
40.00,73.16,0
62.00,72.05,0
34.00,70.45,0
37.00,68.28,0
36.00,65.56,0
41.00,62.57,0
81.00,59.86,0
78.00,58.16,0
71.00,57.49,0
60.00,57.39,0
107.00,57.89,0
41.00,58.95,0
75.00,59.99,0
57.00,60.85,0
85.00,61.75,0
101.00,63.11,0
56.00,64.89,0
120.00,66.86,0
77.00,69.22,0
114.00,71.93,0
93.00,74.91,0
110.00,78.09,0
84.00,81.21,0
49.00,83.60,0
113.00,85.09,0
52.00,86.12,0
89.00,86.57,0
44.00,86.31,0
109.00,85.62,0
39.00,84.75,0
48.00,83.23,0
40.00,80.78,0
48.00,77.70,0
54.00,74.36,0
38.00,70.96,0
84.00,67.80,0
65.00,65.41,0
70.00,63.77,0
74.00,62.73,0
67.00,62.22,0
62.00,62.01,0
77.00,62.02,0
80.00,62.41,0
86.00,63.33,0
41.00,64.35,0
89.00,65.12,0
75.00,65.99,0
80.00,67.11,0
96.00,68.48,0
68.00,70.07,0
127.00,71.93,0
108.00,74.51,0
59.00,77.34,0
102.00,79.64,0
47.00,81.32,0
65.00,82.06,0
59.00,81.86,0
77.00,81.14,0
35.00,79.96,0
64.00,78.16,0
57.00,76.02,0
63.00,73.88,0
84.00,72.01,0
43.00,70.48,0
70.00,68.96,0
42.00,67.39,0
80.00,65.90,0
60.00,64.76,0
69.00,63.97,0
67.00,63.45,0
77.00,63.27,0
88.00,63.59,0
92.00,64.61,0
102.00,66.33,0
89.00,68.64,0
75.00,71.05,0
102.00,73.36,0
67.00,75.55,0
90.00,77.41,0
56.00,78.76,0
93.00,79.63,0
50.00,80.06,0
87.00,80.06,0
58.00,79.74,0
72.00,79.14,0
37.00,78.03,0
43.00,76.17,0
60.00,73.74,0
50.00,71.22,0
47.00,68.66,0
46.00,66.02,0
97.00,63.77,0
70.00,62.53,0
80.00,62.13,0
111.00,62.58,0
58.00,63.83,0
76.00,65.18,0
76.00,66.41,0
82.00,67.71,0
87.00,69.17,0
44.00,70.46,0
77.00,71.20,0
79.00,71.70,0
111.00,72.57,0
75.00,73.93,0
87.00,75.40,0
61.00,76.58,0
61.00,77.18,0
68.00,77.15,0
85.00,76.92,0
48.00,76.55,0
125.00,76.28,0
38.00,76.32,0
52.00,75.92,0
38.00,74.59,0
39.00,72.50,0
58.00,69.96,0
70.00,67.57,0
58.00,65.63,0
61.00,64.03,0
89.00,62.93,0
65.00,62.52,0
92.00,62.71,0
67.00,63.40,0
93.00,64.46,0
84.00,65.92,0
59.00,67.50,0
61.00,68.64,0
55.00,69.18,0
81.00,69.40,0
87.00,69.78,0
96.00,70.67,0
113.00,72.26,0
105.00,74.61,0
99.00,77.43,0
68.00,80.09,0
108.00,82.29,0
68.00,84.15,0
77.00,85.44,0
46.00,85.81,0
87.00,85.36,0
45.00,84.39,0
49.00,82.73,0
45.00,80.27,0
42.00,77.25,0
43.00,73.82,0
47.00,70.22,0
71.00,66.88,0
68.00,64.25,0
72.00,62.43,0
69.00,61.30,0
77.00,60.80,0
84.00,60.94,0
67.00,61.61,0
93.00,62.66,0
109.00,64.37,0
136.00,67.25,0
96.00,71.18,0
70.00,75.10,0
88.00,78.27,0
98.00,80.94,0
87.00,83.35,0
90.00,85.43,0
82.00,87.06,0
60.00,88.02,0
79.00,88.14,0
46.00,87.50,0
104.00,86.39,0
41.00,85.12,0
90.00,83.63,0
35.00,81.83,0
37.00,79.39,0
57.00,76.28,0
59.00,73.13,0
124.00,70.79,0
63.00,69.72,0
81.00,69.34,0
58.00,69.10,0
69.00,68.84,0
73.00,68.58,0
69.00,68.47,0
80.00,68.52,0
75.00,68.81,0
66.00,69.21,0
76.00,69.56,0
80.00,69.99,0
141.00,71.12,0
100.00,73.45,0
97.00,76.42,0
76.00,79.21,0
66.00,81.32,0
85.00,82.65,0
73.00,83.49,0
41.00,83.61,0
80.00,82.88,0
57.00,81.71,0
58.00,80.20,0
36.00,78.13,0
37.00,75.36,0
49.00,72.07,0
46.00,68.67,0
43.00,65.35,0
60.00,62.25,0
95.00,59.97,0
44.00,58.68,0
77.00,57.92,0
78.00,57.71,0
68.00,58.13,0
93.00,59.07,0
78.00,60.59,0
89.00,62.53,0
87.00,64.78,0
111.00,67.45,0
81.00,70.48,0
107.00,73.60,0
102.00,76.82,0
105.00,80.17,0
64.00,83.18,0
49.00,85.04,0
79.00,85.63,0
78.00,85.60,0
74.00,85.31,0
40.00,84.45,0
70.00,82.86,0
38.00,80.71,0
43.00,77.96,0
45.00,74.70,0
41.00,71.19,0
74.00,67.83,0
58.00,65.08,0
92.00,63.16,0
60.00,62.12,0
72.00,61.62,0
73.00,61.49,0
81.00,61.83,0
92.00,62.74,0
96.00,64.36,0
83.00,66.50,0
79.00,68.74,0
48.00,70.56,0
104.00,71.91,0
80.00,73.35,0
93.00,74.96,0
100.00,76.74,0
104.00,78.84,0
76.00,81.00,0
63.00,82.59,0
49.00,83.16,0
99.00,82.98,0
42.00,82.50,0
73.00,81.52,0
54.00,80.08,0
60.00,78.34,0
36.00,76.14,0
35.00,73.33,0
62.00,70.16,0
37.00,67.04,0
56.00,64.05,0
48.00,61.28,0
67.00,58.96,0
42.00,57.10,0
55.00,55.50,0
80.00,54.37,0
79.00,54.14,0
92.00,54.91,0
46.00,56.23,0
108.00,57.80,0
115.00,60.20,0
71.00,63.43,0
85.00,66.61,0
77.00,69.45,0
82.00,71.97,0
78.00,74.14,0
95.00,76.09,0
43.00,77.63,0
79.00,78.38,0
47.00,78.40,0
79.00,77.91,0
63.00,77.18,0
72.00,76.36,0
35.00,75.21,0
43.00,73.39,0
60.00,71.06,0
42.00,68.64,0
79.00,66.37,0
49.00,64.50,0
91.00,63.18,0
91.00,62.74,0
62.00,63.10,0
86.00,63.78,0
81.00,64.80,0
76.00,66.11,0
74.00,67.45,0
80.00,68.76,0
75.00,70.03,0
66.00,71.13,0
94.00,72.10,0
72.00,73.15,0
64.00,74.03,0
95.00,74.68,0
116.00,75.76,0
82.00,77.46,0
61.00,79.00,0
41.00,79.58,0
126.00,79.61,0
45.00,79.80,0
68.00,79.64,0
53.00,78.82,0
35.00,77.31,0
40.00,74.96,0
40.00,71.97,0
62.00,68.82,0
60.00,66.01,0
100.00,64.02,0
58.00,63.01,0
78.00,62.60,0
47.00,62.37,0
59.00,62.04,0
87.00,61.83,0
62.00,62.05,0
74.00,62.53,0
51.00,62.99,0
61.00,63.21,0
105.00,63.59,0
61.00,64.51,0
83.00,65.64,0
50.00,66.62,0
90.00,67.42,0
113.00,68.63,0
78.00,70.55,0
72.00,72.49,0
63.00,73.92,0
35.00,74.50,0
102.00,74.41,0
41.00,74.20,0
104.00,73.97,0
42.00,73.75,0
46.00,73.07,0
74.00,71.86,0
38.00,70.48,0
84.00,69.03,0
42.00,67.70,0
98.00,66.65,0
83.00,66.31,0
83.00,66.73,0
91.00,67.66,0
90.00,69.07,0
102.00,70.95,0
81.00,73.13,0
75.00,75.18,0
108.00,77.05,0
42.00,78.68,0
64.00,79.42,0
97.00,79.57,0
56.00,79.64,0
100.00,79.62,0
86.00,79.80,0
64.00,80.08,0
83.00,80.10,0
37.00,79.67,0
85.00,78.71,0
37.00,77.40,0
60.00,75.66,0
36.00,73.42,0
46.00,70.77,0
43.00,67.82,0
35.00,64.72,0
77.00,61.79,0
56.00,59.55,0
81.00,58.11,0
39.00,57.22,0
67.00,56.51,0
74.00,56.15,0
76.00,56.43,0
102.00,57.49,0
102.00,59.57,0
127.00,62.76,0
40.00,66.39,0
81.00,69.34,0
55.00,71.41,0
92.00,72.96,0
77.00,74.33,0
104.00,75.82,0
127.00,77.85,0
80.00,80.45,0
63.00,82.65,0
68.00,83.85,0
73.00,84.23,0
52.00,83.93,0
87.00,83.11,0
38.00,81.91,0
52.00,80.07,0
49.00,77.62,0
37.00,74.72,0
43.00,71.43,0
39.00,67.90,0
72.00,64.58,0
64.00,61.96,0
75.00,60.19,0
68.00,59.18,0
104.00,59.08,0
74.00,59.94,0
70.00,61.27,0
96.00,62.82,0
71.00,64.68,0
110.00,66.82,0
85.00,69.36,0
48.00,71.70,0
74.00,73.23,0
90.00,74.32,0
89.00,75.54,0
102.00,77.02,0
74.00,78.64,0
40.00,79.66,0
75.00,79.68,0
51.00,79.06,0
91.00,78.19,0
66.00,77.41,0
84.00,76.80,0
36.00,76.02,0
36.00,74.50,0
65.00,72.31,0
48.00,70.02,0
64.00,67.83,0
43.00,65.72,0
63.00,63.71,0
70.00,62.05,0
155.00,61.72,0
49.00,62.96,0
106.00,64.80,0
96.00,67.00,0
84.00,69.62,0
72.00,72.09,0
80.00,74.12,0
63.00,75.65,0
87.00,76.74,0
112.00,77.91,0
87.00,79.52,0
104.00,81.34,0
103.00,83.32,0
43.00,84.99,0
67.00,85.57,0
36.00,84.93,0
48.00,83.17,0
38.00,80.48,0
45.00,77.16,0
46.00,73.53,0
48.00,69.87,0
41.00,66.30,0
39.00,62.78,0
70.00,59.59,0
46.00,57.06,0
52.00,55.03,0
62.00,53.41,0
75.00,52.48,0
107.00,52.69,0
61.00,53.99,0
88.00,55.82,0
75.00,57.94,0
63.00,60.12,0
91.00,62.21,0
66.00,64.31,0
102.00,66.47,0
74.00,68.76,0
84.00,70.98,0
100.00,73.15,0
110.00,75.64,0
98.00,78.49,0
63.00,81.11,0
38.00,82.58,0
85.00,82.81,0
56.00,82.42,0
72.00,81.62,0
42.00,80.31,0
47.00,78.34,0
50.00,75.79,0
39.00,72.89,0
71.00,69.91,0
55.00,67.28,0
73.00,65.17,0
62.00,63.58,0
76.00,62.53,0
88.00,62.17,0
94.00,62.71,0
112.00,64.25,0
90.00,66.68,0
90.00,69.49,0
72.00,72.15,0
62.00,74.23,0
88.00,75.71,0
118.00,77.27,0
86.00,79.30,0
100.00,81.44,0
85.00,83.44,0
99.00,85.25,0
90.00,86.89,0
51.00,88.00,0
77.00,88.15,0
45.00,87.42,0
124.00,86.37,0
38.00,85.46,0
57.00,84.06,0
40.00,81.79,0
40.00,78.82,0
89.00,75.68,0
60.00,73.09,0
83.00,71.12,0
51.00,69.57,0
110.00,68.52,0
67.00,68.27,0
100.00,68.66,0
77.00,69.53,0
66.00,70.54,0
106.00,71.58,0
102.00,73.14,0
112.00,75.40,0
69.00,77.90,0
108.00,80.18,0
87.00,82.34,0
87.00,84.31,0
74.00,85.79,0
77.00,86.64,0
57.00,86.79,0
72.00,86.21,0
74.00,85.19,0
40.00,83.74,0
61.00,81.65,0
36.00,79.01,0
59.00,75.97,0
54.00,72.86,0
41.00,69.81,0
64.00,66.84,0
47.00,64.16,0
75.00,61.92,0
64.00,60.33,0
124.00,59.84,0
41.00,60.41,0
82.00,61.22,0
95.00,62.30,0
48.00,63.71,0
61.00,64.76,0
65.00,65.36,0
71.00,65.82,0
88.00,66.43,0
89.00,67.48,0
84.00,68.95,0
81.00,70.58,0
112.00,72.44,0
80.00,74.66,0
53.00,76.56,0
64.00,77.54,0
78.00,77.85,0
61.00,77.84,0
46.00,77.30,0
39.00,75.92,0
84.00,74.07,0
42.00,72.28,0
45.00,70.29,0
37.00,67.84,0
35.00,65.01,0
74.00,62.20,0
39.00,59.84,0
116.00,58.29,0
80.00,58.09,0
65.00,58.84,0
80.00,59.87,0
76.00,61.15,0
81.00,62.69,0
81.00,64.43,0
78.00,66.28,0
76.00,68.08,0
69.00,69.67,0
89.00,71.08,0
68.00,72.40,0
72.00,73.47,0
98.00,74.42,0
68.00,75.45,0
81.00,76.35,0
94.00,77.18,0
44.00,77.85,0
72.00,77.88,0
40.00,77.21,0
71.00,76.00,0
46.00,74.45,0
38.00,72.46,0
52.00,69.99,0
36.00,67.27,0
56.00,64.47,0
75.00,62.05,0
92.00,60.62,0
79.00,60.34,0
87.00,60.91,0
71.00,62.01,0
75.00,63.31,0
54.00,64.48,0
85.00,65.44,0
90.00,66.61,0
74.00,68.10,0
48.00,69.34,0
80.00,70.05,0
67.00,70.55,0
81.00,71.04,0
120.00,71.94,0
96.00,73.70,0
93.00,75.95,0
52.00,77.90,0
51.00,78.87,0
74.00,78.87,0
60.00,78.41,0
70.00,77.66,0
35.00,76.45,0
55.00,74.61,0
38.00,72.26,0
66.00,69.71,0
52.00,67.30,0
38.00,64.97,0
74.00,62.71,0
62.00,60.97,0
111.00,60.18,0
82.00,60.64,0
74.00,61.87,0
72.00,63.24,0
84.00,64.70,0
62.00,66.16,0
78.00,67.45,0
79.00,68.66,0
72.00,69.85,0
58.00,70.77,0
75.00,71.30,0
88.00,71.80,0
94.00,72.65,0
86.00,73.90,0
98.00,75.41,0
55.00,76.85,0
63.00,77.64,0
42.00,77.51,0
70.00,76.64,0
48.00,75.34,0
77.00,73.87,0
38.00,72.28,0
36.00,70.25,0
46.00,67.67,0
35.00,64.82,0
75.00,62.09,0
66.00,60.04,0
74.00,58.82,0
63.00,58.24,0
76.00,58.15,0
65.00,58.48,0
86.00,59.21,0
103.00,60.62,0
52.00,62.54,0
53.00,64.07,0
62.00,64.94,0
113.00,65.85,0
95.00,67.54,0
68.00,69.66,0
125.00,71.92,0
112.00,74.81,0
114.00,78.38,0
85.00,82.01,0
76.00,85.04,0
50.00,86.88,0
78.00,87.52,0
36.00,87.11,0
59.00,85.62,0
47.00,83.32,0
71.00,80.67,0
38.00,77.86,0
50.00,74.78,0
68.00,71.66,0
66.00,69.02,0
91.00,67.13,0
71.00,66.11,0
87.00,65.79,0
35.00,65.70,0
75.00,65.37,0
64.00,65.01,0
84.00,64.97,0
90.00,65.45,0
88.00,66.56,0
86.00,68.12,0
84.00,69.90,0
78.00,71.68,0
105.00,73.52,0
80.00,75.54,0
87.00,77.48,0
69.00,79.06,0
77.00,80.15,0
37.00,80.46,0
88.00,80.02,0
39.00,79.12,0
60.00,77.67,0
36.00,75.63,0
46.00,73.03,0
63.00,70.23,0
34.00,67.48,0
88.00,64.96,0
42.00,62.99,0
152.00,62.09,0
68.00,62.81,0
105.00,64.53,0
68.00,66.57,0
82.00,68.60,0
84.00,70.48,0
69.00,72.22,0
94.00,73.77,0
93.00,75.39,0
50.00,76.86,0
78.00,77.67,0
112.00,78.34,0
64.00,79.29,0
88.00,80.10,0
77.00,80.69,0
71.00,81.05,0
70.00,81.04,0
67.00,80.64,0
68.00,79.92,0
40.00,78.74,0
112.00,77.39,0
39.00,76.30,0
50.00,74.94,0
63.00,73.09,0
41.00,71.06,0
88.00,69.09,0
54.00,67.56,0
88.00,66.50,0
61.00,65.91,0
101.00,65.85,0
81.00,66.48,0
55.00,67.39,0
79.00,68.08,0
68.00,68.68,0
38.00,68.96,0
79.00,68.73,0
105.00,68.77,0
78.00,69.58,0
84.00,70.73,0
79.00,71.96,0
112.00,73.45,0
67.00,75.21,0
50.00,76.51,0
61.00,76.85,0
48.00,76.38,0
66.00,75.33,0
36.00,73.81,0
78.00,72.00,0
61.00,70.33,0
36.00,68.69,0
53.00,66.70,0
89.00,64.89,0
88.00,64.02,0
46.00,63.82,0
72.00,63.64,0
64.00,63.50,0
94.00,63.73,0
42.00,64.22,0
76.00,64.58,0
70.00,64.89,0
76.00,65.40,0
86.00,66.18,0
90.00,67.37,0
97.00,69.07,0
83.00,71.12,0
103.00,73.35,0
74.00,75.62,0
47.00,77.32,0
66.00,77.97,0
40.00,77.68,0
44.00,76.46,0
35.00,74.34,0
64.00,71.73,0
45.00,69.09,0
68.00,66.64,0
81.00,64.74,0
46.00,63.44,0
96.00,62.58,0
78.00,62.48,0
94.00,63.19,0
77.00,64.48,0
98.00,66.19,0
96.00,68.35,0
78.00,70.77,0
83.00,73.05,0
101.00,75.21,0
56.00,77.19,0
76.00,78.52,0
44.00,79.02,0
75.00,78.77,0
40.00,77.90,0
77.00,76.58,0
41.00,74.99,0
71.00,73.21,0
94.00,71.72,0
59.00,70.85,0
54.00,70.04,0
46.00,68.87,0
45.00,67.27,0
49.00,65.37,0
43.00,63.29,0
66.00,61.29,0
73.00,59.79,0
51.00,58.85,0
82.00,58.31,0
40.00,58.08,0
88.00,58.06,0
43.00,58.26,0
85.00,58.63,0
78.00,59.38,0
53.00,60.41,0
85.00,61.42,0
77.00,62.64,0
87.00,64.19,0
94.00,66.10,0
57.00,68.11,0
74.00,69.72,0
117.00,71.30,0
56.00,73.15,0
101.00,74.87,0
40.00,76.16,0
64.00,76.64,0
64.00,76.40,0
47.00,75.66,0
61.00,74.41,0
75.00,73.01,0
58.00,71.76,0
81.00,70.68,0
44.00,69.71,0
45.00,68.44,0
52.00,66.74,0
60.00,64.97,0
52.00,63.33,0
162.00,62.69,0
90.00,64.00,0
88.00,66.44,0
77.00,68.93,0
69.00,71.11,0
100.00,73.03,0
102.00,75.14,0
72.00,77.36,0
84.00,79.22,0
74.00,80.61,0
74.00,81.53,0
107.00,82.25,0
67.00,83.01,0
42.00,83.19,0
62.00,82.33,0
75.00,80.95,0
66.00,79.52,0
49.00,77.93,0
96.00,76.29,0
54.00,74.96,0
118.00,74.14,0
37.00,73.76,0
78.00,73.27,0
44.00,72.43,0
57.00,71.24,0
96.00,70.08,0
35.00,69.23,0
47.00,68.05,0
89.00,66.71,0
78.00,65.99,0
43.00,65.64,0
70.00,65.14,0
92.00,64.88,0
157.00,65.95,0
51.00,68.37,0
59.00,70.59,0
152.00,72.59,0
94.00,75.48,0
88.00,78.73,0
45.00,81.20,0
111.00,82.79,0
80.00,84.13,0
101.00,85.44,0
100.00,86.77,0
44.00,87.75,0
69.00,87.72,0
44.00,86.67,0
83.00,84.99,0
48.00,83.03,0
56.00,80.74,0
62.00,78.15,0
34.00,75.36,0
41.00,72.16,0
36.00,68.60,0
110.00,65.46,0
73.00,63.64,0
87.00,62.99,0
101.00,63.29,0
70.00,64.39,0
122.00,66.10,0
70.00,68.41,0
102.00,70.90,0
75.00,73.34,0
74.00,75.46,0
90.00,77.16,0
42.00,78.35,0
66.00,78.65,0
115.00,78.67,0
86.00,79.24,0
63.00,79.95,0
80.00,80.25,0
91.00,80.43,0
73.00,80.67,0
71.00,80.73,0
70.00,80.46,0
75.00,79.96,0
41.00,79.09,0
90.00,77.86,0
40.00,76.51,0
98.00,75.17,0
76.00,74.24,0
142.00,74.32,0
110.00,75.82,0
91.00,78.22,0
83.00,80.55,0
62.00,82.30,0
87.00,83.33,0
86.00,84.02,0
62.00,84.42,0
76.00,84.30,0
67.00,83.74,0
87.00,82.99,0
84.00,82.37,0
131.00,82.38,0
109.00,83.42,0
101.00,85.16,0
70.00,86.82,0
61.00,87.71,0
69.00,87.64,0
108.00,87.22,0
49.00,86.78,0
60.00,85.76,0
44.00,83.93,0
54.00,81.43,0
36.00,78.38,0
42.00,74.87,0
100.00,71.54,0
58.00,69.13,0
41.00,67.13,0
82.00,65.23,0
82.00,64.00,0
71.00,63.57,0
98.00,63.80,0
126.00,65.12,0
127.00,67.90,0
52.00,71.35,0
84.00,74.21,0
77.00,76.39,0
84.00,78.17,0
145.00,80.17,0
71.00,82.71,0
79.00,84.94,0
83.00,86.40,0
114.00,87.63,0
113.00,89.16,0
71.00,90.77,0
81.00,91.78,0
64.00,91.96,0
60.00,91.28,0
52.00,89.70,0
40.00,87.20,0
68.00,84.08,0
79.00,81.03,0
64.00,78.43,0
35.00,75.86,0
73.00,73.11,0
44.00,70.46,0
104.00,68.31,0
40.00,66.83,0
90.00,65.76,0
115.00,65.55,0
71.00,66.44,0
98.00,67.87,0
83.00,69.60,0
59.00,71.29,0
70.00,72.45,0
84.00,73.28,0
67.00,74.00,0
93.00,74.68,0
62.00,75.33,0
94.00,75.90,0
65.00,76.43,0
86.00,76.87,0
61.00,77.12,0
78.00,77.13,0
46.00,76.76,0
48.00,75.73,0
38.00,73.93,0
41.00,71.49,0
38.00,68.58,0
59.00,65.55,0
37.00,62.68,0
79.00,60.18,0
76.00,58.53,0
90.00,58.01,0
72.00,58.40,0
75.00,59.32,0
85.00,60.60,0
116.00,62.54,0
75.00,65.20,0
82.00,67.94,0
57.00,70.22,0
97.00,72.06,0
74.00,73.76,0
85.00,75.34,0
71.00,76.65,0
90.00,77.74,0
70.00,78.65,0
102.00,79.48,0
87.00,80.47,0
65.00,81.38,0
37.00,81.48,0
82.00,80.68,0
41.00,79.40,0
97.00,77.96,0
48.00,76.63,0
65.00,75.22,0
35.00,73.42,0
51.00,71.17,0
42.00,68.58,0
65.00,66.00,0
84.00,63.97,0
68.00,62.80,0
61.00,62.15,0
86.00,61.89,0
94.00,62.35,0
69.00,63.47,0
85.00,64.85,0
84.00,66.42,0
64.00,68.04,0
89.00,69.51,0
105.00,71.20,0
54.00,73.04,0
103.00,74.64,0
86.00,76.24,0
75.00,77.84,0
99.00,79.24,0
100.00,80.77,0
91.00,82.49,0
71.00,83.98,0
68.00,84.83,0
97.00,85.18,0
44.00,85.15,0
94.00,84.62,0
39.00,83.65,0
48.00,81.96,0
46.00,79.47,0
45.00,76.48,0
53.00,73.23,0
59.00,70.08,0
153.00,68.04,0
36.00,67.56,0
81.00,67.49,0
56.00,67.30,0
68.00,67.09,0
101.00,67.14,0
102.00,68.03,0
82.00,69.66,0
72.00,71.39,0
84.00,72.91,0
100.00,74.46,0
90.00,76.26,0
102.00,78.28,0
84.00,80.35,0
198.00,83.12,0
100.00,87.29,0
56.00,91.33,0
67.00,93.68,0
64.00,94.47,0
74.00,94.16,0
48.00,92.96,0
35.00,90.65,0
77.00,87.52,0
38.00,84.12,0
47.00,80.41,0
122.00,77.04,0
46.00,74.71,0
45.00,72.60,0
55.00,70.19,0
87.00,68.03,0
58.00,66.51,0
85.00,65.53,0
59.00,65.00,0
90.00,64.86,0
42.00,64.94,0
79.00,64.94,0
89.00,65.19,0
85.00,66.04,0
62.00,67.17,0
109.00,68.43,0
74.00,70.06,0
96.00,71.90,0
87.00,73.84,0
112.00,76.04,0
60.00,78.25,0
106.00,80.15,0
39.00,81.51,0
77.00,82.01,0
37.00,81.57,0
78.00,80.43,0
42.00,78.85,0
54.00,76.82,0
36.00,74.29,0
38.00,71.26,0
64.00,68.06,0
45.00,65.12,0
59.00,62.49,0
60.00,60.27,0
60.00,58.57,0
58.00,57.31,0
88.00,56.63,0
77.00,56.82,0
104.00,57.95,0
87.00,59.97,0
63.00,62.34,0
80.00,64.50,0
85.00,66.55,0
59.00,68.47,0
120.00,70.33,0
67.00,72.45,0
82.00,74.45,0
122.00,76.42,0
88.00,78.82,0
77.00,81.13,0
127.00,83.26,0
41.00,85.20,0
124.00,86.61,0
36.00,87.50,0
85.00,87.61,0
48.00,86.89,0
83.00,85.66,0
56.00,84.12,0
39.00,82.10,0
91.00,79.71,0
65.00,77.62,0
95.00,76.08,0
81.00,75.17,0
81.00,74.80,0
64.00,74.57,0
125.00,74.70,0
118.00,75.90,0
122.00,78.31,0
84.00,81.22,0
72.00,83.74,0
121.00,85.78,0
105.00,87.95,0
108.00,90.33,0
57.00,92.27,0
58.00,93.01,0
76.00,92.53,0
44.00,91.21,0
76.00,89.18,0
60.00,86.80,0
62.00,84.25,0
35.00,81.34,0
71.00,78.11,0
43.00,74.89,0
41.00,71.60,0
41.00,68.10,0
39.00,64.53,0
69.00,61.24,0
54.00,58.62,0
103.00,57.01,0
37.00,56.36,0
75.00,56.08,0
72.00,56.16,0
61.00,56.67,0
71.00,57.38,0
92.00,58.45,0
104.00,60.30,0
81.00,62.86,0
66.00,65.48,0
68.00,67.62,0
100.00,69.51,0
107.00,71.75,0
72.00,74.26,0
88.00,76.52,0
88.00,78.48,0
83.00,80.24,0
112.00,81.95,0
127.00,84.13,0
66.00,86.57,0
62.00,88.21,0
42.00,88.47,0
64.00,87.47,0
39.00,85.55,0
78.00,83.09,0
48.00,80.47,0
37.00,77.55,0
67.00,74.34,0
63.00,71.37,0
98.00,69.16,0
40.00,67.67,0
41.00,66.11,0
80.00,64.40,0
67.00,63.20,0
68.00,62.52,0
94.00,62.40,0
81.00,63.03,0
80.00,64.21,0
53.00,65.41,0
82.00,66.38,0
102.00,67.56,0
90.00,69.33,0
64.00,71.24,0
91.00,72.89,0
83.00,74.45,0
100.00,76.13,0
63.00,77.75,0
49.00,78.68,0
85.00,78.81,0
98.00,78.92,0
52.00,79.15,0
37.00,78.67,0
68.00,77.32,0
42.00,75.51,0
89.00,73.64,0
72.00,72.20,0
98.00,71.44,0
95.00,71.52,0
91.00,72.34,0
77.00,73.50,0
103.00,74.83,0
37.00,76.01,0
118.00,76.83,0
112.00,78.10,0
82.00,79.97,0
67.00,81.59,0
67.00,82.46,0
68.00,82.61,0
143.00,82.86,0
52.00,83.67,0
99.00,84.37,0
38.00,84.50,0
90.00,84.00,0
77.00,83.28,0
80.00,82.65,0
66.00,81.95,0
62.00,80.97,0
54.00,79.55,0
82.00,77.93,0
43.00,76.28,0
45.00,74.27,0
59.00,71.87,0
56.00,69.48,0
82.00,67.46,0
66.00,66.05,0
93.00,65.34,0
58.00,65.21,0
120.00,65.67,0
93.00,67.10,0
64.00,69.02,0
93.00,70.80,0
96.00,72.67,0
100.00,74.86,0
99.00,77.32,0
99.00,79.92,0
82.00,82.39,0
72.00,84.30,0
110.00,85.75,0
49.00,86.83,0
57.00,86.98,0
72.00,86.15,0
66.00,84.88,0
49.00,83.20,0
73.00,81.13,0
53.00,78.92,0
78.00,76.76,0
48.00,74.70,0
69.00,72.68,0
54.00,70.72,0
51.00,68.77,0
55.00,66.77,0
116.00,65.33,0
85.00,65.14,0
37.00,65.52,0
93.00,65.71,0
87.00,66.26,0
56.00,67.16,0
96.00,68.05,0
102.00,69.39,0
49.00,70.99,0
83.00,72.20,0
88.00,73.24,0
72.00,74.35,0
59.00,75.14,0
89.00,75.56,0
115.00,76.29,0
103.00,77.81,0
52.00,79.48,0
103.00,80.67,0
125.00,82.08,0
71.00,83.95,0
60.00,85.29,0
85.00,85.77,0
36.00,85.50,0
48.00,84.16,0
40.00,81.77,0
39.00,78.62,0
52.00,75.02,0
51.00,71.41,0
58.00,68.06,0
56.00,65.11,0
149.00,63.35,0
77.00,63.50,0
73.00,64.62,0
115.00,66.13,0
91.00,68.35,0
101.00,71.07,0
92.00,73.96,0
83.00,76.76,0
89.00,79.22,0
86.00,81.33,0
116.00,83.37,0
64.00,85.31,0
61.00,86.49,0
88.00,86.79,0
131.00,87.20,0
96.00,88.31,0
71.00,89.50,0
56.00,89.86,0
72.00,89.27,0
45.00,87.90,0
65.00,85.84,0
42.00,83.22,0
59.00,80.19,0
42.00,76.91,0
36.00,73.35,0
44.00,69.52,0
39.00,65.65,0
112.00,62.48,0
87.00,60.89,0
116.00,61.00,0
50.00,62.11,0
88.00,63.41,0
71.00,64.76,0
73.00,66.15,0
127.00,67.87,0
79.00,70.30,0
104.00,73.04,0
73.00,75.68,0
106.00,78.13,0
115.00,80.72,0
119.00,83.79,0
93.00,87.04,0
90.00,89.90,0
88.00,92.08,0
90.00,93.63,0
80.00,94.59,0
51.00,94.68,0
69.00,93.69,0
35.00,91.69,0
76.00,88.92,0
57.00,85.88,0
36.00,82.61,0
36.00,78.74,0
36.00,74.38,0
77.00,70.14,0
45.00,66.54,0
67.00,63.54,0
45.00,61.01,0
135.00,59.49,0
61.00,59.48,0
73.00,60.24,0
101.00,61.37,0
94.00,63.26,0
102.00,65.85,0
84.00,68.79,0
68.00,71.55,0
77.00,73.73,0
102.00,75.63,0
58.00,77.38,0
108.00,78.84,0
68.00,80.17,0
81.00,81.22,0
94.00,82.01,0
56.00,82.59,0
80.00,82.65,0
37.00,82.07,0
39.00,80.52,0
47.00,77.99,0
62.00,75.11,0
34.00,72.13,0
38.00,68.87,0
67.00,65.58,0
65.00,62.87,0
100.00,61.18,0
52.00,60.50,0
98.00,60.47,0
71.00,61.10,0
94.00,62.31,0
105.00,64.19,0
62.00,66.53,0
65.00,68.54,0
78.00,70.02,0
108.00,71.55,0
69.00,73.35,0
107.00,75.21,0
123.00,77.49,0
94.00,80.35,0
91.00,83.20,0
116.00,85.85,0
72.00,88.29,0
83.00,90.06,0
116.00,91.35,0
38.00,92.23,0
62.00,91.95,0
36.00,90.30,0
65.00,87.71,0
51.00,84.62,0
73.00,81.47,0
63.00,78.52,0
65.00,75.87,0
80.00,73.60,0
49.00,71.71,0
101.00,70.21,0
66.00,69.37,0
103.00,69.22,0
102.00,69.91,0
104.00,71.53,0
84.00,73.65,0
59.00,75.56,0
109.00,77.08,0
75.00,78.60,0
49.00,79.70,0
90.00,80.07,0
61.00,80.10,0
82.00,79.90,0
103.00,79.82,0
105.00,80.37,0
96.00,81.51,0
40.00,82.47,0
46.00,82.31,0
48.00,80.96,0
49.00,78.83,0
94.00,76.60,0
40.00,74.65,0
65.00,72.67,0
72.00,70.77,0
58.00,69.19,0
85.00,67.96,0
36.00,66.96,0
116.00,66.24,0
100.00,66.56,0
96.00,68.00,0
34.00,69.54,0
100.00,70.59,0
109.00,71.90,0
57.00,73.62,0
79.00,74.98,0
71.00,75.90,0
91.00,76.67,0
106.00,77.68,0
104.00,79.26,0
92.00,81.19,0
106.00,83.23,0
77.00,85.18,0
95.00,86.78,0
41.00,87.68,0
72.00,87.52,0
44.00,86.38,0
38.00,84.28,0
92.00,81.64,0
42.00,79.12,0
38.00,76.34,0
49.00,73.08,0
42.00,69.66,0
64.00,66.38,0
50.00,63.51,0
116.00,61.55,0
40.00,60.68,0
100.00,60.46,0
74.00,60.90,0
57.00,61.74,0
81.00,62.56,0
69.00,63.50,0
101.00,64.76,0
83.00,66.50,0
92.00,68.60,0
119.00,71.12,0
94.00,74.18,0
71.00,77.19,0
88.00,79.59,0
105.00,81.70,0
68.00,83.62,0
40.00,84.64,0
74.00,84.45,0
48.00,83.46,0
39.00,81.66,0
56.00,79.08,0
39.00,76.08,0
55.00,72.84,0
78.00,69.84,0
42.00,67.34,0
66.00,65.11,0
61.00,63.19,0
86.00,61.92,0
67.00,61.39,0
105.00,61.65,0
107.00,62.99,0
79.00,65.21,0
132.00,68.03,0
89.00,71.50,0
94.00,75.11,0
75.00,78.28,0
85.00,80.82,0
108.00,83.00,0
52.00,84.83,0
83.00,85.84,0
79.00,86.23,0
81.00,86.33,0
83.00,86.24,0
65.00,85.89,0
77.00,85.18,0
48.00,84.04,0
37.00,82.12,0
53.00,79.39,0
59.00,76.35,0
53.00,73.37,0
107.00,70.93,0
39.00,69.26,0
53.00,67.66,0
47.00,65.80,0
66.00,63.97,0
73.00,62.55,0
92.00,61.91,0
82.00,62.19,0
89.00,63.20,0
87.00,64.75,0
82.00,66.64,0
83.00,68.64,0
85.00,70.64,0
94.00,72.70,0
104.00,74.98,0
56.00,77.19,0
101.00,78.94,0
103.00,80.64,0
110.00,82.72,0
94.00,85.02,0
71.00,87.01,0
41.00,87.94,0
80.00,87.66,0
40.00,86.55,0
58.00,84.63,0
37.00,81.96,0
44.00,78.67,0
40.00,74.94,0
37.00,70.96,0
65.00,67.06,0
58.00,63.75,0
94.00,61.40,0
90.00,60.35,0
91.00,60.59,0
66.00,61.56,0
87.00,62.83,0
82.00,64.37,0
73.00,66.09,0
94.00,67.88,0
67.00,69.70,0
83.00,71.36,0
105.00,73.05,0
91.00,75.09,0
82.00,77.20,0
102.00,79.21,0
102.00,81.32,0
102.00,83.62,0
106.00,86.00,0
119.00,88.55,0
61.00,90.91,0
61.00,92.18,0
82.00,92.30,0
50.00,91.62,0
66.00,90.11,0
41.00,87.82,0
71.00,84.99,0
59.00,82.03,0
36.00,78.92,0
54.00,75.48,0
73.00,72.16,0
81.00,69.57,0
38.00,67.57,0
76.00,65.73,0
57.00,64.21,0
91.00,63.25,0
100.00,63.23,0
81.00,64.22,0
87.00,65.73,0
80.00,67.49,0
92.00,69.39,0
82.00,71.40,0
119.00,73.67,0
90.00,76.36,0
76.00,78.97,0
68.00,80.91,0
118.00,82.44,0
76.00,84.02,0
118.00,85.65,0
74.00,87.25,0
38.00,88.09,0
55.00,87.49,0
35.00,85.65,0
53.00,82.88,0
35.00,79.49,0
45.00,75.66,0
75.00,71.90,0
52.00,68.71,0
185.00,67.02,0
61.00,67.54,0
127.00,69.30,0
69.00,71.52,0
95.00,73.82,0
94.00,76.05,0
83.00,78.25,0
96.00,80.28,0
46.00,81.81,0
99.00,82.65,0
67.00,83.11,0
77.00,83.28,0
44.00,82.84,0
99.00,81.93,0
86.00,81.25,0
83.00,80.97,0
43.00,80.52,0
64.00,79.44,0
50.00,77.82,0
39.00,75.69,0
85.00,73.32,0
35.00,71.11,0
102.00,69.21,0
62.00,67.97,0
36.00,66.94,0
58.00,65.53,0
40.00,63.88,0
102.00,62.49,0
55.00,61.85,0
126.00,62.10,0
81.00,63.45,0
59.00,65.24,0
94.00,66.87,0
79.00,68.59,0
97.00,70.52,0
118.00,72.88,0
96.00,75.81,0
71.00,78.68,0
72.00,80.83,0
103.00,82.42,0
73.00,83.80,0
109.00,85.04,0
75.00,86.19,0
68.00,86.92,0
56.00,86.81,0
78.00,85.98,0
60.00,84.75,0
42.00,83.00,0
46.00,80.49,0
80.00,77.69,0
70.00,75.28,0
53.00,73.21,0
90.00,71.42,0
44.00,69.98,0
87.00,68.77,0
82.00,68.06,0
106.00,68.22,0
49.00,68.92,0
60.00,69.36,0
88.00,69.52,0
95.00,70.08,0
110.00,71.39,0
81.00,73.31,0
85.00,75.30,0
82.00,77.07,0
106.00,78.80,0
93.00,80.72,0
87.00,82.63,0
76.00,84.19,0
51.00,84.99,0
60.00,84.74,0
80.00,83.83,0
122.00,83.20,0
65.00,83.18,0
106.00,83.38,0
35.00,83.35,0
72.00,82.62,0
38.00,81.12,0
36.00,78.83,0
70.00,75.95,0
42.00,73.06,0
52.00,70.15,0
41.00,67.16,0
85.00,64.48,0
93.00,62.82,0
96.00,62.53,0
88.00,63.33,0
88.00,64.82,0
50.00,66.41,0
58.00,67.45,0
86.00,68.10,0
99.00,69.07,0
69.00,70.44,0
146.00,72.32,0
105.00,75.21,0
79.00,78.52,0
77.00,81.25,0
83.00,83.24,0
90.00,84.76,0
58.00,85.76,0
40.00,85.72,0
60.00,84.48,0
38.00,82.38,0
55.00,79.62,0
42.00,76.45,0
56.00,73.13,0
76.00,70.08,0
52.00,67.60,0
55.00,65.42,0
74.00,63.55,0
93.00,62.49,0
65.00,62.31,0
68.00,62.52,0
78.00,62.93,0
72.00,63.61,0
101.00,64.70,0
94.00,66.44,0
101.00,68.79,0
85.00,71.47,0
87.00,74.11,0
39.00,76.12,0
127.00,77.54,0
85.00,79.18,0
45.00,80.64,0
46.00,80.89,0
41.00,79.88,0
78.00,78.15,0
68.00,76.44,0
56.00,74.85,0
53.00,73.09,0
49.00,71.07,0
48.00,68.84,0
54.00,66.51,0
101.00,64.67,0
69.00,63.82,0
72.00,63.63,0
66.00,63.69,0
102.00,64.17,0
42.00,64.98,0
62.00,65.50,0
100.00,65.93,0
64.00,66.77,0
63.00,67.61,0
119.00,68.57,0
55.00,69.97,0
100.00,71.44,0
48.00,72.71,0
67.00,73.44,0
90.00,73.81,0
77.00,74.33,0
96.00,75.08,0
78.00,76.04,0
39.00,76.66,0
71.00,76.47,0
35.00,75.58,0
62.00,74.08,0
36.00,72.10,0
75.00,69.94,0
53.00,67.96,0
38.00,66.02,0
60.00,63.92,0
53.00,61.96,0
40.00,60.12,0
68.00,58.40,0
94.00,57.39,0
80.00,57.51,0
105.00,58.66,0
112.00,60.93,0
86.00,64.07,0
85.00,67.39,0
88.00,70.53,0
90.00,73.48,0
71.00,76.10,0
86.00,78.20,0
94.00,79.99,0
86.00,81.69,0
42.00,82.82,0
86.00,83.05,0
87.00,82.96,0
92.00,83.07,0
59.00,83.13,0
57.00,82.63,0
71.00,81.54,0
45.00,80.03,0
90.00,78.31,0
39.00,76.60,0
60.00,74.65,0
40.00,72.33,0
51.00,69.77,0
76.00,67.31,0
44.00,65.26,0
65.00,63.43,0
45.00,61.76,0
67.00,60.28,0
80.00,59.31,0
47.00,58.88,0
73.00,58.64,0
91.00,58.87,0
46.00,59.59,0
82.00,60.35,0
79.00,61.33,0
124.00,63.05,0
86.00,65.68,0
99.00,68.77,0
92.00,71.96,0
37.00,74.66,0
61.00,76.11,0
124.00,77.04,0
87.00,78.47,0
86.00,80.14,0
49.00,81.31,0
88.00,81.75,0
40.00,81.57,0
83.00,80.81,0
78.00,79.91,0
55.00,79.01,0
70.00,77.85,0
41.00,76.34,0
60.00,74.41,0
35.00,72.11,0
70.00,69.62,0
49.00,67.28,0
69.00,65.24,0
74.00,63.69,0
60.00,62.70,0
56.00,61.94,0
74.00,61.35,0
98.00,61.38,0
42.00,61.96,0
69.00,62.42,0
88.00,62.92,0
88.00,63.98,0
87.00,65.57,0
92.00,67.53,0
87.00,69.75,0
62.00,71.84,0
101.00,73.63,0
74.00,75.36,0
115.00,77.18,0
38.00,78.85,0
84.00,79.78,0
42.00,79.89,0
70.00,79.30,0
37.00,78.05,0
35.00,75.97,0
40.00,73.11,0
52.00,69.89,0
64.00,66.85,0
90.00,64.57,0
85.00,63.42,0
85.00,63.31,0
60.00,63.74,0
61.00,64.16,0
59.00,64.34,0
100.00,64.66,0
73.00,65.51,0
113.00,66.97,0
68.00,68.90,0
78.00,70.79,0
66.00,72.29,0
86.00,73.48,0
123.00,74.94,0
106.00,77.19,0
99.00,79.94,0
75.00,82.52,0
91.00,84.57,0
40.00,85.78,0
110.00,86.18,0
45.00,86.15,0
51.00,85.36,0
34.00,83.41,0
40.00,80.49,0
76.00,77.18,0
48.00,74.10,0
65.00,71.26,0
50.00,68.63,0
70.00,66.31,0
90.00,64.67,0
63.00,63.86,0
46.00,63.31,0
70.00,62.65,0
82.00,62.29,0
73.00,62.49,0
43.00,62.82,0
74.00,62.92,0
60.00,62.99,0
89.00,63.30,0
84.00,64.11,0
74.00,65.34,0
87.00,66.75,0
87.00,68.39,0
72.00,70.13,0
98.00,71.85,0
43.00,73.35,0
84.00,74.29,0
40.00,74.62,0
52.00,74.19,0
58.00,73.08,0
53.00,71.64,0
36.00,69.84,0
46.00,67.56,0
61.00,65.15,0
65.00,63.09,0
188.00,62.59,0
77.00,64.42,0
46.00,66.89,0
55.00,68.40,0
67.00,69.12,0
76.00,69.58,0
57.00,69.91,0
73.00,70.02,0
76.00,70.09,0
72.00,70.28,0
109.00,70.83,0
78.00,71.95,0
100.00,73.44,0
66.00,74.98,0
79.00,76.24,0
68.00,77.10,0
61.00,77.48,0
51.00,77.19,0
77.00,76.39,0
38.00,75.27,0
82.00,73.87,0
46.00,72.40,0
91.00,71.09,0
60.00,70.12,0
42.00,69.16,0
98.00,68.15,0
51.00,67.51,0
71.00,67.04,0
64.00,66.58,0
81.00,66.35,0
48.00,66.24,0
58.00,65.92,0
73.00,65.45,0
83.00,65.31,0
53.00,65.45,0
98.00,65.77,0
62.00,66.41,0
101.00,67.37,0
72.00,68.65,0
88.00,70.11,0
67.00,71.50,0
84.00,72.73,0
78.00,73.84,0
86.00,74.94,0
66.00,75.91,0
55.00,76.39,0
44.00,76.06,0
74.00,75.07,0
43.00,73.78,0
81.00,72.36,0
52.00,71.01,0
54.00,69.61,0
69.00,68.14,0
48.00,66.75,0
77.00,65.49,0
38.00,64.35,0
105.00,63.48,0
86.00,63.49,0
66.00,64.24,0
70.00,65.07,0
92.00,66.01,0
81.00,67.31,0
46.00,68.56,0
74.00,69.28,0
76.00,69.76,0
76.00,70.32,0
72.00,70.90,0
103.00,71.66,0
106.00,73.05,0
88.00,75.01,0
84.00,77.04,0
82.00,78.83,0
112.00,80.57,0
38.00,82.06,0
60.00,82.53,0
38.00,81.76,0
38.00,79.92,0
36.00,77.11,0
54.00,73.77,0
36.00,70.29,0
45.00,66.73,0
100.00,63.69,0
52.00,61.73,0
61.00,60.39,0
44.00,59.17,0
80.00,58.19,0
88.00,57.93,0
99.00,58.75,0
101.00,60.62,0
91.00,63.28,0
74.00,66.16,0
84.00,68.84,0
99.00,71.42,0
92.00,74.11,0
75.00,76.66,0
85.00,78.77,0
84.00,80.49,0
64.00,81.75,0
82.00,82.44,0
96.00,82.91,0
63.00,83.31,0
76.00,83.33,0
47.00,82.75,0
49.00,81.40,0
40.00,79.21,0
78.00,76.64,0
37.00,74.08,0
62.00,71.46,0
44.00,68.79,0
50.00,66.15,0
51.00,63.57,0
65.00,61.29,0
71.00,59.63,0
47.00,58.48,0
88.00,57.77,0
43.00,57.53,0
90.00,57.62,0
89.00,58.37,0
49.00,59.63,0
92.00,60.92,0
77.00,62.45,0
84.00,64.28,0
40.00,65.90,0
102.00,67.15,0
115.00,68.86,0
108.00,71.51,0
118.00,74.88,0
68.00,78.37,0
47.00,80.91,0
70.00,82.08,0
98.00,82.61,0
41.00,82.81,0
46.00,82.09,0
40.00,80.25,0
38.00,77.54,0
70.00,74.44,0
41.00,71.44,0
53.00,68.49,0
37.00,65.50,0
95.00,62.90,0
85.00,61.43,0
86.00,61.19,0
93.00,61.88,0
85.00,63.33,0
94.00,65.29,0
70.00,67.45,0
42.00,69.15,0
72.00,70.01,0
76.00,70.52,0
75.00,71.05,0
81.00,71.64,0
71.00,72.27,0
61.00,72.70,0
79.00,72.87,0
47.00,72.79,0
55.00,72.21,0
46.00,71.05,0
82.00,69.71,0
40.00,68.45,0
78.00,67.22,0
40.00,66.01,0
36.00,64.51,0
37.00,62.47,0
50.00,60.17,0
64.00,58.10,0
36.00,56.37,0
72.00,54.91,0
60.00,53.98,0
92.00,53.83,0
55.00,54.40,0
86.00,55.43,0
45.00,56.63,0
76.00,57.75,0
69.00,58.90,0
65.00,60.12,0
66.00,61.26,0
80.00,62.39,0
78.00,63.69,0
69.00,65.10,0
85.00,66.50,0
52.00,67.78,0
83.00,68.75,0
62.00,69.54,0
45.00,69.91,0
54.00,69.59,0
75.00,68.92,0
58.00,68.30,0
37.00,67.46,0
59.00,66.16,0
35.00,64.55,0
40.00,62.59,0
61.00,60.49,0
46.00,58.61,0
74.00,57.13,0
44.00,56.07,0
65.00,55.30,0
113.00,55.25,0
81.00,56.46,0
61.00,58.29,0
75.00,60.05,0
39.00,61.47,0
76.00,62.41,0
61.00,63.14,0
99.00,64.07,0
62.00,65.31,0
85.00,66.64,0
83.00,68.05,0
87.00,69.66,0
90.00,71.45,0
107.00,73.54,0
77.00,75.85,0
72.00,77.85,0
42.00,78.97,0
103.00,79.34,0
52.00,79.49,0
90.00,79.42,0
40.00,78.99,0
45.00,77.82,0
40.00,75.77,0
36.00,73.02,0
67.00,69.98,0
60.00,67.27,0
72.00,65.12,0
44.00,63.39,0
75.00,61.91,0
89.00,61.09,0
61.00,61.05,0
58.00,61.22,0
71.00,61.37,0
66.00,61.66,0
129.00,62.59,0
91.00,64.66,0
109.00,67.56,0
92.00,70.86,0
72.00,74.04,0
87.00,76.68,0
72.00,78.77,0
68.00,80.23,0
72.00,81.00,0
42.00,81.01,0
64.00,80.15,0
44.00,78.61,0
41.00,76.44,0
39.00,73.61,0
43.00,70.38,0
40.00,66.95,0
44.00,63.52,0
51.00,60.28,0
78.00,57.69,0
83.00,56.20,0
64.00,55.76,0
87.00,56.05,0
48.00,56.78,0
64.00,57.50,0
114.00,58.54,0
77.00,60.44,0
85.00,62.80,0
123.00,65.59,0
85.00,68.98,0
68.00,72.26,0
100.00,75.02,0
103.00,77.70,0
86.00,80.40,0
105.00,82.94,0
43.00,84.92,0
108.00,86.09,0
84.00,86.97,0
70.00,87.62,0
58.00,87.55,0
102.00,86.98,0
36.00,86.14,0
70.00,84.67,0
35.00,82.50,0
45.00,79.66,0
40.00,76.22,0
37.00,72.42,0
43.00,68.44,0
70.00,64.74,0
80.00,61.97,0
68.00,60.28,0
100.00,59.61,0
68.00,59.93,0
73.00,60.74,0
71.00,61.71,0
102.00,63.03,0
73.00,64.82,0
108.00,66.98,0
95.00,69.58,0
74.00,72.33,0
53.00,74.47,0
65.00,75.66,0
96.00,76.36,0
76.00,77.13,0
86.00,77.92,0
100.00,78.82,0
59.00,79.75,0
52.00,80.05,0
65.00,79.51,0
101.00,78.81,0
63.00,78.40,0
62.00,77.88,0
44.00,76.81,0
45.00,75.07,0
75.00,72.99,0
42.00,70.95,0
42.00,68.72,0
35.00,66.08,0
60.00,63.31,0
79.00,61.04,0
76.00,59.73,0
66.00,59.21,0
84.00,59.28,0
45.00,59.67,0
54.00,59.88,0
70.00,59.90,0
70.00,60.13,0
68.00,60.60,0
84.00,61.36,0
48.00,62.25,0
99.00,63.18,0
104.00,64.69,0
100.00,67.08,0
58.00,69.67,0
94.00,71.90,0
38.00,73.57,0
94.00,74.58,0
34.00,75.04,0
78.00,74.89,0
42.00,74.22,0
52.00,73.01,0
38.00,71.20,0
67.00,69.07,0
58.00,67.07,0
58.00,65.33,0
60.00,63.78,0
71.00,62.55,0
44.00,61.58,0
47.00,60.51,0
56.00,59.30,0
64.00,58.26,0
103.00,57.91,0
70.00,58.56,0
74.00,59.73,0
75.00,61.07,0
91.00,62.68,0
66.00,64.50,0
73.00,66.20,0
90.00,67.80,0
82.00,69.54,0
64.00,71.20,0
105.00,72.71,0
76.00,74.34,0
62.00,75.76,0
56.00,76.44,0
118.00,76.85,0
47.00,77.41,0
47.00,77.42,0
93.00,76.79,0
43.00,76.05,0
51.00,74.88,0
65.00,73.25,0
68.00,71.64,0
47.00,70.10,0
74.00,68.56,0
59.00,67.23,0
71.00,66.16,0
52.00,65.26,0
83.00,64.55,0
86.00,64.39,0
68.00,64.80,0
128.00,65.88,0
86.00,67.93,0
52.00,70.14,0
75.00,71.70,0
82.00,72.85,0
77.00,73.93,0
90.00,75.00,0
106.00,76.34,0
104.00,78.19,0
60.00,80.11,0
45.00,81.14,0
44.00,80.85,0
42.00,79.38,0
43.00,77.06,0
38.00,74.12,0
38.00,70.73,0
66.00,67.30,0
36.00,64.18,0
68.00,61.38,0
61.00,59.16,0
71.00,57.67,0
79.00,56.97,0
97.00,57.26,0
45.00,58.22,0
82.00,59.25,0
58.00,60.28,0
79.00,61.36,0
74.00,62.55,0
76.00,63.89,0
79.00,65.31,0
104.00,67.03,0
74.00,69.09,0
88.00,71.20,0
79.00,73.16,0
71.00,74.85,0
78.00,76.13,0
75.00,77.08,0
38.00,77.46,0
101.00,77.26,0
56.00,77.00,0
59.00,76.51,0
69.00,75.61,0
37.00,74.36,0
56.00,72.59,0
48.00,70.47,0
65.00,68.32,0
65.00,66.44,0
96.00,65.22,0
40.00,64.60,0
70.00,64.02,0
66.00,63.50,0
77.00,63.31,0
69.00,63.46,0
77.00,63.89,0
87.00,64.68,0
81.00,65.88,0
87.00,67.39,0
101.00,69.26,0
56.00,71.24,0
50.00,72.57,0
62.00,72.97,0
96.00,73.10,0
61.00,73.39,0
116.00,73.94,0
47.00,74.73,0
61.00,75.09,0
39.00,74.61,0
54.00,73.37,0
38.00,71.52,0
38.00,69.13,0
40.00,66.31,0
50.00,63.36,0
46.00,60.56,0
55.00,58.05,0
83.00,56.21,0
41.00,55.11,0
121.00,54.82,0
61.00,55.63,0
87.00,57.14,0
80.00,59.01,0
90.00,61.27,0
105.00,63.98,0
73.00,67.02,0
58.00,69.66,0
86.00,71.63,0
87.00,73.39,0
112.00,75.36,0
66.00,77.50,0
73.00,79.18,0
53.00,80.04,0
94.00,80.29,0
65.00,80.37,0
60.00,80.11,0
61.00,79.30,0
59.00,78.06,0
93.00,76.78,0
46.00,75.68,0
40.00,74.19,0
42.00,71.99,0
48.00,69.36,0
34.00,66.49,0
61.00,63.57,0
59.00,61.03,0
79.00,59.21,0
80.00,58.34,0
71.00,58.31,0
63.00,58.72,0
98.00,59.53,0
106.00,61.20,0
79.00,63.67,0
50.00,66.04,0
78.00,67.77,0
86.00,69.26,0
81.00,70.84,0
90.00,72.49,0
80.00,74.17,0
57.00,75.53,0
67.00,76.22,0
55.00,76.25,0
67.00,75.77,0
43.00,74.81,0
35.00,73.16,0
38.00,70.72,0
40.00,67.77,0
82.00,64.94,0
50.00,62.74,0
58.00,60.98,0
45.00,59.37,0
60.00,57.90,0
36.00,56.53,0
74.00,55.32,0
42.00,54.44,0
65.00,53.82,0
53.00,53.43,0
79.00,53.43,0
63.00,53.94,0
84.00,54.93,0
68.00,56.35,0
53.00,57.82,0
73.00,59.07,0
82.00,60.39,0
69.00,61.92,0
72.00,63.45,0
53.00,64.71,0
58.00,65.48,0
44.00,65.65,0
62.00,65.33,0
72.00,64.90,0
49.00,64.54,0
38.00,63.85,0
37.00,62.56,0
46.00,60.81,0
48.00,58.93,0
81.00,57.40,0
65.00,56.61,0
73.00,56.47,0
56.00,56.71,0
79.00,57.20,0
65.00,57.98,0
77.00,59.03,0
74.00,60.29,0
72.00,61.71,0
74.00,63.17,0
70.00,64.58,0
70.00,65.87,0
75.00,67.03,0
81.00,68.18,0
82.00,69.44,0
85.00,70.83,0
92.00,72.39,0
74.00,74.02,0
87.00,75.51,0
42.00,76.55,0
82.00,76.89,0
45.00,76.68,0
78.00,76.06,0
39.00,75.06,0
53.00,73.53,0
35.00,71.43,0
43.00,68.85,0
65.00,66.15,0
41.00,63.68,0
48.00,61.30,0
40.00,58.94,0
100.00,57.07,0
56.00,56.21,0
90.00,56.19,0
94.00,57.06,0
86.00,58.85,0
64.00,60.98,0
59.00,62.85,0
97.00,64.49,0
62.00,66.21,0
80.00,67.82,0
84.00,69.33,0
63.00,70.76,0
86.00,71.95,0
54.00,72.86,0
89.00,73.49,0
51.00,73.87,0
69.00,73.87,0
38.00,73.29,0
65.00,72.17,0
