67.00,86.68,0
65.00,85.41,0
94.00,84.03,0
82.00,82.97,0
53.00,81.99,0
69.00,80.66,0
58.00,79.04,0
60.00,77.22,0
98.00,75.56,0
43.00,74.28,0
50.00,72.78,0
68.00,70.98,0
42.00,69.15,0
37.00,67.04,0
52.00,64.61,0
55.00,62.24,0
54.00,60.17,0
98.00,58.76,0
56.00,58.27,0
53.00,58.15,0
62.00,57.99,0
74.00,58.02,0
51.00,58.28,0
119.00,58.99,0
70.00,60.56,0
91.00,62.64,0
77.00,64.87,0
96.00,67.23,0
90.00,69.78,0
141.00,72.85,0
89.00,76.57,0
98.00,80.32,0
69.00,83.44,0
79.00,85.66,0
72.00,86.99,0
66.00,87.52,0
66.00,87.26,0
48.00,86.22,0
48.00,84.31,0
72.00,81.87,0
63.00,79.41,0
36.00,76.86,0
78.00,74.13,0
57.00,71.67,0
35.00,69.31,0
56.00,66.74,0
52.00,64.22,0
56.00,61.97,0
91.00,60.32,0
58.00,59.52,0
64.00,59.19,0
91.00,59.26,0
80.00,60.05,0
59.00,61.23,0
146.00,62.94,0
72.00,65.67,0
94.00,68.75,0
78.00,71.61,0
69.00,74.06,0
100.00,76.08,0
107.00,78.21,0
90.00,80.58,0
76.00,82.72,0
64.00,84.14,0
77.00,84.75,0
75.00,84.84,0
80.00,84.64,0
65.00,84.17,0
63.00,83.28,0
52.00,81.87,0
35.00,79.74,0
37.00,76.80,0
54.00,73.38,0
41.00,69.90,0
42.00,66.41,0
40.00,62.92,0
37.00,59.51,0
62.00,56.40,0
79.00,54.15,0
64.00,53.00,0
64.00,52.60,0
92.00,52.91,0
49.00,53.85,0
139.00,55.50,0
71.00,58.19,0
82.00,61.32,0
94.00,64.39,0
125.00,67.85,0
78.00,71.74,0
76.00,75.27,0
70.00,77.95,0
100.00,80.02,0
75.00,81.80,0
117.00,83.48,0
75.00,85.17,0
43.00,86.20,0
72.00,86.06,0
43.00,85.01,0
41.00,83.06,0
72.00,80.44,0
62.00,77.84,0
72.00,75.50,0
82.00,73.61,0
49.00,72.09,0
49.00,70.45,0
43.00,68.44,0
55.00,66.23,0
67.00,64.18,0
45.00,62.43,0
81.00,61.00,0
58.00,60.10,0
86.00,59.76,0
76.00,60.05,0
46.00,60.64,0
85.00,61.17,0
98.00,62.15,0
85.00,63.85,0
95.00,66.04,0
90.00,68.54,0
87.00,71.16,0
82.00,73.67,0
86.00,75.92,0
100.00,78.05,0
76.00,80.08,0
80.00,81.72,0
81.00,82.88,0
58.00,83.51,0
80.00,83.51,0
84.00,83.25,0
66.00,82.89,0
47.00,82.06,0
55.00,80.48,0
41.00,78.25,0
48.00,75.51,0
36.00,72.35,0
35.00,68.84,0
64.00,65.31,0
46.00,62.19,0
50.00,59.47,0
60.00,57.13,0
62.00,55.39,0
68.00,54.32,0
56.00,53.80,0
75.00,53.74,0
61.00,54.12,0
107.00,55.13,0
81.00,57.02,0
80.00,59.46,0
83.00,62.02,0
92.00,64.72,0
69.00,67.40,0
116.00,70.07,0
84.00,72.96,0
72.00,75.69,0
70.00,77.73,0
61.00,78.97,0
66.00,79.43,0
119.00,79.73,0
61.00,80.34,0
50.00,80.55,0
70.00,79.96,0
42.00,78.78,0
34.00,76.84,0
51.00,74.14,0
37.00,71.08,0
36.00,67.73,0
60.00,64.35,0
53.00,61.37,0
36.00,58.75,0
72.00,56.45,0
54.00,54.77,0
45.00,53.54,0
92.00,52.79,0
53.00,52.80,0
121.00,53.70,0
69.00,55.61,0
70.00,57.94,0
69.00,60.10,0
106.00,62.34,0
91.00,65.06,0
60.00,67.85,0
87.00,70.19,0
102.00,72.43,0
87.00,74.86,0
112.00,77.43,0
68.00,79.96,0
64.00,81.82,0
68.00,82.71,0
66.00,82.85,0
62.00,82.38,0
98.00,81.68,0
38.00,80.89,0
34.00,79.33,0
62.00,76.92,0
33.00,74.13,0
36.00,70.91,0
80.00,67.65,0
39.00,64.88,0
46.00,62.31,0
120.00,60.38,0
86.00,59.98,0
71.00,60.69,0
84.00,61.81,0
76.00,63.22,0
63.00,64.67,0
123.00,66.32,0
76.00,68.56,0
90.00,71.01,0
73.00,73.25,0
82.00,75.15,0
89.00,76.81,0
71.00,78.26,0
55.00,79.14,0
82.00,79.37,0
80.00,79.39,0
83.00,79.47,0
74.00,79.55,0
79.00,79.54,0
76.00,79.45,0
47.00,79.05,0
44.00,77.90,0
56.00,76.04,0
57.00,73.87,0
52.00,71.61,0
47.00,69.25,0
41.00,66.71,0
38.00,63.95,0
52.00,61.14,0
49.00,58.56,0
48.00,56.29,0
55.00,54.37,0
73.00,53.02,0
67.00,52.45,0
55.00,52.44,0
76.00,52.80,0
71.00,53.62,0
99.00,55.09,0
91.00,57.37,0
80.00,60.18,0
86.00,63.12,0
109.00,66.24,0
89.00,69.68,0
108.00,73.24,0
74.00,76.66,0
84.00,79.54,0
91.00,81.85,0
68.00,83.66,0
62.00,84.65,0
65.00,84.73,0
71.00,84.16,0
48.00,83.06,0
74.00,81.47,0
42.00,79.53,0
42.00,77.09,0
75.00,74.34,0
39.00,71.71,0
37.00,68.91,0
60.00,65.93,0
47.00,63.17,0
60.00,60.76,0
70.00,58.88,0
73.00,57.75,0
50.00,57.19,0
93.00,57.08,0
53.00,57.49,0
100.00,58.37,0
71.00,59.79,0
77.00,61.52,0
83.00,63.35,0
164.00,66.01,0
100.00,70.07,0
84.00,74.53,0
86.00,78.38,0
83.00,81.52,0
76.00,83.92,0
90.00,85.66,0
71.00,86.85,0
66.00,87.34,0
66.00,87.06,0
64.00,86.13,0
60.00,84.68,0
46.00,82.67,0
62.00,80.19,0
37.00,77.36,0
49.00,74.18,0
85.00,71.13,0
46.00,68.65,0
35.00,66.25,0
55.00,63.65,0
44.00,61.12,0
38.00,58.69,0
71.00,56.47,0
67.00,54.97,0
73.00,54.30,0
122.00,54.77,0
36.00,56.24,0
127.00,58.15,0
70.00,60.65,0
69.00,63.32,0
81.00,65.64,0
132.00,68.24,0
70.00,71.38,0
93.00,74.43,0
76.00,77.03,0
94.00,79.26,0
109.00,81.42,0
144.00,84.14,0
84.00,87.40,0
83.00,90.25,0
73.00,92.10,0
66.00,92.90,0
67.00,92.68,0
53.00,91.55,0
62.00,89.61,0
45.00,87.00,0
49.00,83.81,0
48.00,80.20,0
36.00,76.30,0
54.00,72.25,0
50.00,68.39,0
37.00,64.77,0
54.00,61.35,0
56.00,58.39,0
85.00,56.28,0
78.00,55.32,0
75.00,55.38,0
47.00,55.86,0
130.00,56.86,0
79.00,58.92,0
76.00,61.55,0
111.00,64.33,0
134.00,67.90,0
85.00,72.20,0
78.00,76.24,0
73.00,79.39,0
86.00,81.71,0
87.00,83.53,0
101.00,85.13,0
64.00,86.44,0
117.00,87.45,0
82.00,88.46,0
56.00,89.09,0
48.00,88.63,0
63.00,87.13,0
68.00,85.11,0
57.00,82.88,0
146.00,81.15,0
42.00,80.39,0
105.00,79.92,0
48.00,79.40,0
40.00,78.38,0
43.00,76.43,0
49.00,73.86,0
67.00,71.19,0
67.00,68.87,0
52.00,66.92,0
83.00,65.33,0
79.00,64.41,0
111.00,64.49,0
82.00,65.60,0
105.00,67.41,0
78.00,69.61,0
86.00,71.86,0
88.00,73.99,0
100.00,76.14,0
60.00,78.14,0
86.00,79.60,0
91.00,80.75,0
61.00,81.67,0
42.00,81.78,0
62.00,80.87,0
79.00,79.53,0
51.00,78.13,0
59.00,76.46,0
49.00,74.47,0
48.00,72.19,0
44.00,69.62,0
35.00,66.79,0
40.00,63.71,0
71.00,60.80,0
35.00,58.37,0
86.00,56.48,0
63.00,55.40,0
40.00,54.83,0
45.00,54.13,0
116.00,53.85,0
55.00,54.60,0
74.00,55.84,0
85.00,57.33,0
144.00,59.77,0
57.00,63.19,0
125.00,66.87,0
95.00,70.78,0
63.00,74.53,0
70.00,77.32,0
72.00,79.15,0
94.00,80.48,0
141.00,82.13,0
85.00,84.50,0
58.00,86.55,0
77.00,87.55,0
56.00,87.62,0
75.00,86.96,0
116.00,86.24,0
50.00,85.80,0
43.00,84.76,0
71.00,82.88,0
59.00,80.73,0
59.00,78.48,0
73.00,76.24,0
35.00,74.01,0
36.00,71.34,0
90.00,68.58,0
44.00,66.36,0
35.00,64.24,0
41.00,61.79,0
63.00,59.37,0
62.00,57.46,0
123.00,56.67,0
111.00,57.67,0
93.00,60.15,0
75.00,63.12,0
84.00,65.98,0
103.00,68.84,0
79.00,71.78,0
52.00,74.23,0
60.00,75.66,0
107.00,76.54,0
76.00,77.57,0
104.00,78.79,0
161.00,80.80,0
79.00,83.82,0
107.00,86.87,0
80.00,89.40,0
62.00,91.08,0
76.00,91.66,0
40.00,91.18,0
69.00,89.67,0
69.00,87.59,0
87.00,85.55,0
77.00,83.81,0
59.00,82.20,0
48.00,80.27,0
90.00,78.17,0
44.00,76.25,0
59.00,74.22,0
74.00,72.18,0
37.00,70.26,0
49.00,68.11,0
58.00,65.82,0
53.00,63.70,0
66.00,61.89,0
142.00,61.17,0
86.00,62.20,0
111.00,64.44,0
80.00,67.21,0
110.00,70.25,0
61.00,73.22,0
76.00,75.60,0
93.00,77.44,0
127.00,79.50,0
106.00,82.16,0
77.00,84.91,0
52.00,86.77,0
90.00,87.56,0
118.00,88.16,0
67.00,88.94,0
48.00,89.08,0
83.00,88.27,0
59.00,87.00,0
44.00,85.17,0
93.00,82.95,0
58.00,80.91,0
55.00,78.87,0
63.00,76.61,0
54.00,74.31,0
66.00,72.06,0
38.00,69.82,0
56.00,67.45,0
80.00,65.32,0
62.00,63.84,0
91.00,63.03,0
73.00,62.97,0
75.00,63.41,0
87.00,64.21,0
68.00,65.31,0
77.00,66.47,0
72.00,67.59,0
113.00,68.96,0
77.00,70.83,0
104.00,72.97,0
86.00,75.24,0
79.00,77.43,0
95.00,79.32,0
53.00,80.81,0
82.00,81.60,0
63.00,81.82,0
72.00,81.59,0
39.00,80.75,0
48.00,79.09,0
35.00,76.61,0
35.00,73.47,0
57.00,69.99,0
45.00,66.64,0
36.00,63.41,0
63.00,60.34,0
51.00,57.78,0
45.00,55.65,0
86.00,54.07,0
58.00,53.36,0
64.00,53.25,0
100.00,53.78,0
81.00,55.25,0
99.00,57.51,0
78.00,60.28,0
79.00,63.14,0
84.00,65.88,0
93.00,68.59,0
72.00,71.20,0
84.00,73.49,0
66.00,75.33,0
86.00,76.73,0
91.00,77.98,0
82.00,79.24,0
76.00,80.31,0
71.00,81.00,0
83.00,81.32,0
62.00,81.36,0
81.00,81.07,0
36.00,80.32,0
74.00,78.98,0
36.00,77.16,0
51.00,74.85,0
52.00,72.19,0
35.00,69.36,0
40.00,66.26,0
60.00,63.15,0
67.00,60.58,0
39.00,58.54,0
58.00,56.74,0
40.00,55.11,0
70.00,53.76,0
127.00,53.49,0
96.00,55.01,0
105.00,57.85,0
71.00,61.21,0
79.00,64.44,0
94.00,67.43,0
132.00,70.77,0
79.00,74.57,0
129.00,78.46,0
77.00,82.24,0
74.00,85.34,0
82.00,87.42,0
163.00,89.43,0
44.00,91.73,0
53.00,92.96,0
101.00,92.90,0
45.00,92.26,0
75.00,90.93,0
46.00,88.91,0
48.00,86.20,0
74.00,83.08,0
38.00,79.89,0
45.00,76.45,0
36.00,72.65,0
43.00,68.69,0
44.00,64.78,0
56.00,61.21,0
68.00,58.33,0
49.00,56.20,0
75.00,54.72,0
42.00,53.77,0
127.00,53.63,0
82.00,54.88,0
58.00,56.91,0
80.00,58.87,0
74.00,60.82,0
93.00,62.95,0
93.00,65.40,0
39.00,67.73,0
69.00,69.25,0
72.00,70.18,0
46.00,70.70,0
69.00,70.68,0
168.00,71.24,0
96.00,73.45,0
50.00,76.09,0
84.00,77.90,0
46.00,78.88,0
79.00,79.13,0
39.00,78.71,0
69.00,77.66,0
50.00,76.18,0
66.00,74.48,0
57.00,72.70,0
56.00,70.89,0
48.00,68.98,0
115.00,67.44,0
40.00,66.67,0
58.00,65.98,0
37.00,64.86,0
41.00,63.30,0
75.00,61.62,0
81.00,60.55,0
81.00,60.37,0
62.00,60.75,0
74.00,61.34,0
83.00,62.18,0
86.00,63.46,0
76.00,65.07,0
60.00,66.61,0
79.00,67.84,0
53.00,68.78,0
122.00,69.76,0
61.00,71.14,0
65.00,72.40,0
87.00,73.26,0
68.00,74.04,0
78.00,74.66,0
56.00,74.98,0
94.00,75.10,0
43.00,75.07,0
75.00,74.67,0
35.00,73.79,0
61.00,72.38,0
38.00,70.52,0
46.00,68.30,0
62.00,65.93,0
42.00,63.71,0
47.00,61.51,0
74.00,59.54,0
47.00,58.07,0
63.00,56.95,0
79.00,56.29,0
54.00,56.21,0
86.00,56.54,0
146.00,58.01,0
77.00,60.96,0
68.00,64.23,0
78.00,67.00,0
106.00,69.61,0
56.00,72.16,0
109.00,74.41,0
77.00,76.56,0
80.00,78.50,0
90.00,80.08,0
64.00,81.31,0
86.00,82.07,0
59.00,82.37,0
65.00,82.09,0
54.00,81.17,0
69.00,79.80,0
34.00,77.97,0
80.00,75.79,0
39.00,73.56,0
40.00,71.07,0
118.00,68.79,0
47.00,67.45,0
71.00,66.54,0
70.00,65.79,0
71.00,65.38,0
80.00,65.32,0
85.00,65.72,0
49.00,66.33,0
75.00,66.73,0
83.00,67.16,0
74.00,67.88,0
74.00,68.70,0
85.00,69.59,0
93.00,70.75,0
60.00,72.04,0
117.00,73.36,0
56.00,74.84,0
106.00,76.26,0
98.00,77.84,0
93.00,79.73,0
61.00,81.39,0
80.00,82.39,0
80.00,82.92,0
56.00,83.03,0
85.00,82.65,0
36.00,81.80,0
69.00,80.31,0
34.00,78.25,0
47.00,75.62,0
111.00,73.09,0
42.00,71.33,0
50.00,69.66,0
50.00,67.67,0
52.00,65.59,0
46.00,63.50,0
76.00,61.62,0
52.00,60.23,0
86.00,59.38,0
77.00,59.26,0
80.00,59.85,0
64.00,60.82,0
79.00,61.91,0
88.00,63.26,0
41.00,64.64,0
130.00,66.03,0
54.00,67.84,0
82.00,69.62,0
59.00,70.95,0
77.00,71.91,0
92.00,72.78,0
96.00,73.99,0
70.00,75.39,0
44.00,76.27,0
79.00,76.39,0
51.00,76.03,0
43.00,75.10,0
40.00,73.37,0
45.00,71.01,0
73.00,68.55,0
36.00,66.29,0
38.00,63.89,0
45.00,61.25,0
46.00,58.66,0
85.00,56.59,0
67.00,55.48,0
73.00,55.22,0
67.00,55.51,0
90.00,56.35,0
103.00,58.02,0
64.00,60.35,0
86.00,62.74,0
92.00,65.19,0
84.00,67.83,0
140.00,70.90,0
81.00,74.56,0
76.00,77.99,0
91.00,80.71,0
92.00,83.00,0
72.00,84.86,0
81.00,86.09,0
77.00,86.75,0
61.00,86.83,0
66.00,86.20,0
46.00,84.85,0
80.00,82.98,0
81.00,81.19,0
49.00,79.56,0
48.00,77.56,0
37.00,74.99,0
36.00,71.85,0
35.00,68.28,0
49.00,64.60,0
44.00,61.12,0
63.00,58.11,0
48.00,55.70,0
83.00,54.03,0
61.00,53.24,0
77.00,53.22,0
69.00,53.78,0
64.00,54.75,0
88.00,56.03,0
79.00,57.78,0
71.00,59.81,0
71.00,61.80,0
94.00,63.81,0
77.00,66.00,0
144.00,68.73,0
78.00,72.19,0
81.00,75.58,0
85.00,78.34,0
73.00,80.52,0
77.00,82.07,0
110.00,83.31,0
70.00,84.54,0
35.00,85.03,0
59.00,84.24,0
48.00,82.53,0
55.00,80.23,0
39.00,77.47,0
46.00,74.29,0
37.00,70.81,0
42.00,67.16,0
50.00,63.59,0
42.00,60.29,0
62.00,57.41,0
68.00,55.25,0
76.00,54.05,0
68.00,53.73,0
70.00,54.04,0
58.00,54.69,0
93.00,55.68,0
139.00,57.75,0
57.00,60.98,0
97.00,64.31,0
77.00,67.42,0
90.00,70.37,0
84.00,73.10,0
79.00,75.55,0
88.00,77.64,0
86.00,79.48,0
76.00,81.03,0
79.00,82.15,0
59.00,82.70,0
104.00,82.87,0
60.00,82.97,0
48.00,82.55,0
72.00,81.38,0
57.00,79.86,0
50.00,78.02,0
111.00,76.26,0
36.00,74.94,0
36.00,73.27,0
51.00,70.90,0
37.00,68.19,0
71.00,65.49,0
78.00,63.40,0
36.00,61.89,0
96.00,60.73,0
79.00,60.37,0
100.00,61.03,0
46.00,62.20,0
53.00,63.05,0
94.00,63.65,0
63.00,64.51,0
91.00,65.61,0
68.00,66.85,0
116.00,68.43,0
88.00,70.56,0
127.00,73.32,0
89.00,76.55,0
45.00,79.37,0
84.00,81.05,0
74.00,82.02,0
106.00,82.84,0
93.00,83.86,0
69.00,84.85,0
49.00,85.10,0
70.00,84.45,0
45.00,83.09,0
43.00,80.99,0
132.00,78.89,0
43.00,77.58,0
43.00,76.17,0
86.00,74.37,0
42.00,72.66,0
76.00,71.00,0
70.00,69.57,0
64.00,68.49,0
77.00,67.69,0
69.00,67.21,0
76.00,67.03,0
56.00,66.96,0
83.00,66.94,0
53.00,66.99,0
64.00,66.90,0
119.00,67.09,0
66.00,68.06,0
118.00,69.60,0
95.00,71.75,0
113.00,74.48,0
85.00,77.46,0
94.00,80.28,0
89.00,82.76,0
110.00,85.06,0
47.00,86.94,0
61.00,87.69,0
64.00,87.28,0
54.00,86.09,0
55.00,84.21,0
50.00,81.77,0
66.00,79.03,0
44.00,76.21,0
38.00,73.13,0
44.00,69.74,0
40.00,66.22,0
48.00,62.78,0
36.00,59.51,0
55.00,56.51,0
39.00,53.89,0
64.00,51.74,0
76.00,50.40,0
75.00,50.12,0
66.00,50.66,0
75.00,51.72,0
86.00,53.31,0
75.00,55.42,0
134.00,58.24,0
98.00,62.10,0
93.00,66.48,0
64.00,70.48,0
87.00,73.74,0
85.00,76.45,0
86.00,78.82,0
84.00,80.83,0
96.00,82.57,0
91.00,84.21,0
73.00,85.56,0
103.00,86.58,0
86.00,87.50,0
55.00,88.04,0
46.00,87.52,0
74.00,86.07,0
48.00,84.12,0
52.00,81.69,0
37.00,78.70,0
58.00,75.36,0
66.00,72.14,0
54.00,69.32,0
53.00,66.76,0
55.00,64.39,0
78.00,62.45,0
73.00,61.26,0
70.00,60.76,0
54.00,60.58,0
74.00,60.52,0
71.00,60.73,0
96.00,61.45,0
100.00,62.97,0
81.00,65.16,0
93.00,67.61,0
74.00,70.05,0
74.00,72.19,0
50.00,73.68,0
175.00,75.25,0
82.00,77.95,0
78.00,80.87,0
76.00,83.02,0
86.00,84.51,0
43.00,85.25,0
61.00,84.93,0
74.00,83.85,0
61.00,82.49,0
64.00,80.88,0
48.00,78.95,0
41.00,76.53,0
56.00,73.70,0
36.00,70.67,0
39.00,67.42,0
80.00,64.32,0
42.00,61.83,0
37.00,59.56,0
78.00,57.47,0
80.00,56.24,0
65.00,55.95,0
86.00,56.32,0
76.00,57.32,0
77.00,58.80,0
78.00,60.53,0
73.00,62.37,0
81.00,64.22,0
97.00,66.25,0
84.00,68.57,0
94.00,71.03,0
79.00,73.45,0
94.00,75.72,0
82.00,77.83,0
104.00,79.85,0
74.00,81.75,0
66.00,83.13,0
77.00,83.76,0
75.00,83.91,0
55.00,83.58,0
98.00,82.91,0
55.00,82.18,0
108.00,81.53,0
65.00,81.11,0
40.00,80.41,0
48.00,78.81,0
62.00,76.62,0
38.00,74.16,0
59.00,71.46,0
59.00,68.82,0
72.00,66.60,0
54.00,64.84,0
49.00,63.24,0
58.00,61.68,0
58.00,60.29,0
141.00,59.85,0
71.00,60.93,0
89.00,62.81,0
72.00,64.81,0
78.00,66.76,0
81.00,68.59,0
119.00,70.67,0
76.00,73.19,0
87.00,75.64,0
80.00,77.74,0
76.00,79.43,0
74.00,80.61,0
116.00,81.66,0
79.00,82.93,0
53.00,83.86,0
72.00,83.92,0
48.00,83.21,0
56.00,81.78,0
138.00,80.45,0
51.00,79.94,0
76.00,79.52,0
36.00,78.55,0
46.00,76.83,0
35.00,74.32,0
52.00,71.35,0
63.00,68.41,0
67.00,65.94,0
46.00,63.88,0
70.00,62.11,0
64.00,60.77,0
72.00,59.97,0
104.00,59.96,0
56.00,60.76,0
84.00,61.83,0
80.00,63.12,0
79.00,64.68,0
87.00,66.41,0
110.00,68.53,0
73.00,71.02,0
83.00,73.36,0
67.00,75.25,0
79.00,76.64,0
60.00,77.51,0
62.00,77.77,0
71.00,77.50,0
81.00,77.09,0
70.00,76.74,0
51.00,76.18,0
79.00,75.31,0
63.00,74.41,0
47.00,73.34,0
73.00,72.02,0
38.00,70.54,0
54.00,68.76,0
54.00,66.79,0
40.00,64.75,0
49.00,62.57,0
76.00,60.62,0
55.00,59.24,0
58.00,58.25,0
72.00,57.58,0
87.00,57.57,0
73.00,58.29,0
74.00,59.45,0
92.00,60.95,0
88.00,62.94,0
97.00,65.37,0
81.00,68.06,0
83.00,70.68,0
67.00,72.94,0
98.00,74.84,0
84.00,76.68,0
82.00,78.42,0
77.00,79.83,0
57.00,80.69,0
71.00,80.83,0
55.00,80.37,0
65.00,79.39,0
104.00,78.41,0
50.00,77.74,0
53.00,76.79,0
77.00,75.46,0
42.00,74.00,0
38.00,72.10,0
58.00,69.73,0
36.00,67.19,0
58.00,64.59,0
122.00,62.74,0
42.00,62.10,0
58.00,61.75,0
73.00,61.35,0
68.00,61.26,0
73.00,61.50,0
140.00,62.58,0
90.00,64.98,0
86.00,68.03,0
79.00,70.91,0
115.00,73.72,0
65.00,76.51,0
79.00,78.78,0
74.00,80.35,0
80.00,81.43,0
81.00,82.16,0
64.00,82.52,0
68.00,82.36,0
72.00,81.77,0
62.00,80.88,0
45.00,79.52,0
61.00,77.62,0
44.00,75.35,0
39.00,72.69,0
51.00,69.69,0
37.00,66.58,0
39.00,63.38,0
62.00,60.31,0
58.00,57.81,0
46.00,55.85,0
62.00,54.27,0
54.00,53.12,0
66.00,52.44,0
95.00,52.51,0
76.00,53.57,0
89.00,55.38,0
72.00,57.62,0
84.00,60.03,0
77.00,62.49,0
92.00,65.02,0
83.00,67.64,0
82.00,70.21,0
81.00,72.54,0
92.00,74.70,0
86.00,76.77,0
68.00,78.55,0
78.00,79.79,0
74.00,80.56,0
61.00,80.84,0
70.00,80.59,0
66.00,79.95,0
46.00,78.86,0
70.00,77.32,0
43.00,75.49,0
38.00,73.20,0
74.00,70.63,0
46.00,68.26,0
34.00,65.86,0
64.00,63.32,0
53.00,61.08,0
36.00,59.07,0
52.00,57.04,0
53.00,55.22,0
68.00,53.87,0
72.00,53.23,0
78.00,53.37,0
71.00,54.20,0
69.00,55.42,0
80.00,56.90,0
71.00,58.62,0
86.00,60.54,0
47.00,62.40,0
101.00,64.06,0
79.00,65.93,0
91.00,68.06,0
89.00,70.32,0
66.00,72.48,0
70.00,74.13,0
78.00,75.28,0
65.00,76.07,0
69.00,76.44,0
66.00,76.42,0
116.00,76.49,0
60.00,76.99,0
39.00,77.09,0
54.00,76.20,0
39.00,74.55,0
42.00,72.26,0
47.00,69.54,0
36.00,66.60,0
37.00,63.45,0
73.00,60.48,0
43.00,58.08,0
56.00,56.12,0
90.00,54.80,0
57.00,54.41,0
71.00,54.59,0
80.00,55.22,0
65.00,56.33,0
91.00,57.79,0
75.00,59.67,0
120.00,62.09,0
78.00,65.14,0
97.00,68.38,0
85.00,71.53,0
92.00,74.53,0
82.00,77.24,0
84.00,79.56,0
64.00,81.29,0
63.00,82.19,0
80.00,82.38,0
56.00,82.11,0
67.00,81.34,0
49.00,80.04,0
62.00,78.28,0
48.00,76.18,0
37.00,73.68,0
37.00,70.66,0
56.00,67.41,0
39.00,64.27,0
34.00,61.15,0
65.00,58.18,0
39.00,55.67,0
63.00,53.63,0
93.00,52.44,0
64.00,52.39,0
48.00,52.85,0
71.00,53.35,0
76.00,54.17,0
67.00,55.41,0
108.00,57.14,0
80.00,59.57,0
96.00,62.46,0
85.00,65.54,0
82.00,68.59,0
78.00,71.34,0
114.00,73.98,0
82.00,76.75,0
73.00,79.22,0
72.00,80.96,0
120.00,82.39,0
94.00,84.10,0
112.00,86.09,0
81.00,88.06,0
39.00,89.24,0
78.00,89.14,0
39.00,88.05,0
44.00,85.96,0
91.00,83.35,0
37.00,80.77,0
46.00,77.89,0
102.00,75.03,0
54.00,72.89,0
36.00,70.89,0
77.00,68.69,0
64.00,66.86,0
72.00,65.54,0
127.00,65.14,0
84.00,66.07,0
65.00,67.56,0
72.00,68.83,0
76.00,69.87,0
94.00,70.98,0
110.00,72.56,0
86.00,74.68,0
74.00,76.76,0
105.00,78.61,0
91.00,80.51,0
80.00,82.32,0
115.00,84.01,0
76.00,85.70,0
97.00,87.16,0
90.00,88.36,0
70.00,89.22,0
79.00,89.48,0
53.00,89.05,0
72.00,87.90,0
39.00,86.08,0
56.00,83.55,0
58.00,80.59,0
44.00,77.46,0
45.00,74.10,0
84.00,70.91,0
44.00,68.26,0
71.00,66.00,0
70.00,64.21,0
44.00,62.84,0
71.00,61.62,0
94.00,60.96,0
80.00,61.25,0
67.00,62.10,0
55.00,62.92,0
86.00,63.64,0
86.00,64.67,0
102.00,66.29,0
102.00,68.56,0
86.00,71.26,0
75.00,73.84,0
96.00,76.10,0
54.00,77.96,0
125.00,79.51,0
95.00,81.36,0
59.00,83.17,0
73.00,84.15,0
65.00,84.35,0
46.00,83.77,0
83.00,82.54,0
74.00,81.25,0
35.00,79.78,0
83.00,77.90,0
39.00,75.89,0
44.00,73.53,0
74.00,70.97,0
36.00,68.57,0
40.00,66.01,0
86.00,63.56,0
58.00,61.83,0
50.00,60.55,0
76.00,59.51,0
51.00,58.84,0
81.00,58.53,0
87.00,58.84,0
75.00,59.86,0
97.00,61.42,0
72.00,63.39,0
105.00,65.66,0
99.00,68.36,0
144.00,71.83,0
97.00,76.10,0
90.00,80.37,0
75.00,83.86,0
100.00,86.56,0
74.00,88.63,0
149.00,90.55,0
54.00,92.54,0
65.00,93.65,0
82.00,93.60,0
38.00,92.67,0
65.00,90.74,0
100.00,88.49,0
45.00,86.42,0
45.00,83.93,0
69.00,80.95,0
49.00,77.93,0
47.00,74.83,0
73.00,71.78,0
46.00,69.07,0
70.00,66.66,0
106.00,65.05,0
70.00,64.58,0
68.00,64.69,0
73.00,64.94,0
88.00,65.47,0
47.00,66.16,0
110.00,66.91,0
92.00,68.23,0
84.00,70.10,0
82.00,72.03,0
92.00,73.92,0
91.00,75.87,0
93.00,77.87,0
90.00,79.85,0
75.00,81.59,0
73.00,82.81,0
89.00,83.56,0
61.00,83.94,0
73.00,83.81,0
71.00,83.23,0
48.00,82.22,0
64.00,80.63,0
65.00,78.76,0
64.00,76.87,0
41.00,74.82,0
80.00,72.66,0
36.00,70.58,0
35.00,68.21,0
44.00,65.40,0
56.00,62.58,0
47.00,60.05,0
48.00,57.78,0
65.00,55.86,0
57.00,54.50,0
80.00,53.80,0
78.00,53.93,0
72.00,54.79,0
81.00,56.14,0
78.00,57.89,0
80.00,59.92,0
77.00,62.09,0
110.00,64.52,0
74.00,67.30,0
91.00,70.07,0
79.00,72.63,0
88.00,74.95,0
80.00,77.01,0
76.00,78.71,0
68.00,79.87,0
90.00,80.62,0
71.00,81.15,0
58.00,81.27,0
65.00,80.76,0
52.00,79.69,0
58.00,78.11,0
37.00,76.03,0
53.00,73.47,0
66.00,70.81,0
43.00,68.34,0
42.00,65.81,0
57.00,63.23,0
50.00,60.88,0
43.00,58.74,0
71.00,56.88,0
52.00,55.54,0
100.00,54.97,0
66.00,55.34,0
80.00,56.37,0
70.00,57.74,0
88.00,59.41,0
55.00,61.21,0
77.00,62.83,0
97.00,64.51,0
81.00,66.56,0
135.00,69.17,0
67.00,72.34,0
96.00,75.37,0
81.00,77.99,0
69.00,80.11,0
74.00,81.48,0
55.00,82.08,0
73.00,81.95,0
48.00,81.19,0
71.00,79.90,0
46.00,78.24,0
51.00,76.15,0
107.00,74.16,0
61.00,72.88,0
52.00,71.83,0
78.00,70.66,0
63.00,69.67,0
42.00,68.66,0
39.00,67.15,0
55.00,65.23,0
64.00,63.38,0
44.00,61.75,0
79.00,60.38,0
65.00,59.55,0
70.00,59.26,0
82.00,59.45,0
65.00,60.10,0
78.00,61.00,0
76.00,62.13,0
72.00,63.42,0
79.00,64.78,0
138.00,66.70,0
81.00,69.56,0
94.00,72.69,0
73.00,75.49,0
83.00,77.80,0
77.00,79.59,0
127.00,81.33,0
72.00,83.30,0
53.00,84.72,0
75.00,85.09,0
46.00,84.62,0
39.00,83.16,0
94.00,81.11,0
51.00,79.16,0
43.00,77.04,0
86.00,74.73,0
35.00,72.57,0
38.00,70.13,0
81.00,67.55,0
47.00,65.40,0
58.00,63.53,0
131.00,62.43,0
80.00,62.83,0
68.00,64.03,0
76.00,65.24,0
89.00,66.56,0
74.00,68.07,0
144.00,70.12,0
75.00,72.96,0
83.00,75.82,0
77.00,78.12,0
92.00,80.00,0
83.00,81.63,0
91.00,83.05,0
83.00,84.26,0
111.00,85.44,0
81.00,86.70,0
69.00,87.62,0
74.00,87.84,0
58.00,87.38,0
66.00,86.25,0
46.00,84.49,0
46.00,82.04,0
51.00,79.03,0
53.00,75.80,0
48.00,72.53,0
50.00,69.30,0
36.00,66.07,0
39.00,62.77,0
56.00,59.58,0
39.00,56.77,0
46.00,54.24,0
55.00,52.06,0
73.00,50.58,0
77.00,50.07,0
71.00,50.50,0
85.00,51.66,0
45.00,53.20,0
113.00,54.99,0
86.00,57.48,0
90.00,60.56,0
72.00,63.69,0
88.00,66.63,0
78.00,69.35,0
132.00,72.23,0
92.00,75.63,0
88.00,79.04,0
76.00,81.87,0
70.00,83.87,0
77.00,85.04,0
110.00,85.88,0
72.00,86.73,0
49.00,87.01,0
54.00,86.21,0
48.00,84.43,0
44.00,81.90,0
35.00,78.68,0
43.00,74.92,0
36.00,70.88,0
88.00,67.15,0
38.00,64.16,0
42.00,61.47,0
66.00,58.95,0
40.00,56.85,0
47.00,54.97,0
63.00,53.36,0
70.00,52.37,0
67.00,52.12,0
54.00,52.34,0
78.00,52.87,0
82.00,53.93,0
89.00,55.69,0
71.00,57.93,0
84.00,60.32,0
76.00,62.74,0
80.00,65.12,0
76.00,67.36,0
75.00,69.37,0
70.00,71.05,0
74.00,72.36,0
84.00,73.47,0
75.00,74.50,0
82.00,75.43,0
57.00,76.09,0
48.00,76.10,0
48.00,75.25,0
57.00,73.78,0
54.00,72.01,0
34.00,69.93,0
36.00,67.34,0
40.00,64.34,0
42.00,61.25,0
36.00,58.20,0
68.00,55.47,0
45.00,53.34,0
71.00,51.86,0
86.00,51.27,0
78.00,51.78,0
71.00,53.04,0
74.00,54.66,0
78.00,56.55,0
64.00,58.55,0
117.00,60.80,0
74.00,63.56,0
72.00,66.35,0
66.00,68.63,0
94.00,70.55,0
76.00,72.41,0
83.00,74.15,0
82.00,75.69,0
82.00,77.08,0
76.00,78.25,0
53.00,78.93,0
82.00,79.01,0
71.00,78.84,0
57.00,78.43,0
58.00,77.53,0
72.00,76.31,0
88.00,75.27,0
48.00,74.43,0
74.00,73.46,0
35.00,72.21,0
46.00,70.44,0
57.00,68.29,0
66.00,66.27,0
42.00,64.45,0
68.00,62.74,0
54.00,61.29,0
57.00,60.08,0
57.00,59.04,0
74.00,58.32,0
96.00,58.32,0
51.00,59.02,0
101.00,60.07,0
75.00,61.60,0
89.00,63.53,0
95.00,65.77,0
83.00,68.30,0
81.00,70.79,0
83.00,73.05,0
82.00,75.07,0
86.00,76.88,0
74.00,78.43,0
76.00,79.57,0
78.00,80.31,0
49.00,80.55,0
72.00,80.11,0
50.00,79.14,0
59.00,77.70,0
46.00,75.81,0
48.00,73.50,0
54.00,70.94,0
34.00,68.22,0
35.00,65.19,0
39.00,61.92,0
41.00,58.65,0
46.00,55.61,0
65.00,53.10,0
72.00,51.49,0
76.00,50.92,0
73.00,51.27,0
66.00,52.22,0
135.00,54.02,0
71.00,56.99,0
82.00,60.33,0
77.00,63.45,0
103.00,66.53,0
82.00,69.69,0
104.00,72.85,0
78.00,75.89,0
88.00,78.56,0
77.00,80.73,0
59.00,82.20,0
77.00,82.84,0
71.00,82.94,0
58.00,82.55,0
62.00,81.60,0
59.00,80.16,0
47.00,78.28,0
79.00,76.19,0
37.00,74.08,0
37.00,71.60,0
64.00,68.79,0
37.00,66.04,0
52.00,63.34,0
58.00,60.84,0
55.00,58.78,0
58.00,57.13,0
71.00,55.99,0
68.00,55.49,0
61.00,55.49,0
104.00,56.08,0
81.00,57.57,0
86.00,59.71,0
51.00,61.87,0
126.00,64.06,0
70.00,66.70,0
92.00,69.45,0
88.00,72.08,0
89.00,74.64,0
84.00,77.01,0
56.00,78.86,0
89.00,80.01,0
65.00,80.71,0
62.00,80.89,0
83.00,80.60,0
62.00,80.12,0
44.00,79.17,0
74.00,77.68,0
36.00,75.87,0
38.00,73.49,0
60.00,70.68,0
34.00,67.79,0
38.00,64.73,0
64.00,61.70,0
62.00,59.24,0
53.00,57.40,0
69.00,56.07,0
75.00,55.40,0
55.00,55.32,0
139.00,56.12,0
50.00,58.04,0
81.00,60.23,0
82.00,62.33,0
100.00,64.73,0
96.00,67.53,0
80.00,70.51,0
81.00,73.22,0
86.00,75.58,0
80.00,77.62,0
80.00,79.30,0
75.00,80.56,0
61.00,81.26,0
46.00,81.11,0
120.00,80.57,0
45.00,80.24,0
38.00,79.38,0
66.00,77.65,0
41.00,75.52,0
40.00,72.95,0
56.00,70.05,0
37.00,67.09,0
45.00,64.07,0
50.00,61.12,0
60.00,58.55,0
49.00,56.48,0
71.00,54.92,0
49.00,53.91,0
68.00,53.32,0
117.00,53.60,0
40.00,54.86,0
85.00,56.33,0
88.00,58.05,0
86.00,60.30,0
77.00,62.80,0
86.00,65.33,0
103.00,67.99,0
86.00,70.89,0
66.00,73.58,0
101.00,75.82,0
74.00,77.84,0
71.00,79.45,0
84.00,80.53,0
82.00,81.34,0
48.00,81.71,0
68.00,81.31,0
39.00,80.17,0
73.00,78.46,0
61.00,76.60,0
41.00,74.61,0
62.00,72.32,0
41.00,69.90,0
38.00,67.25,0
42.00,64.32,0
37.00,61.29,0
67.00,58.48,0
38.00,56.13,0
75.00,54.29,0
74.00,53.26,0
44.00,52.92,0
97.00,53.05,0
66.00,53.92,0
63.00,55.20,0
90.00,56.69,0
121.00,58.94,0
87.00,62.17,0
104.00,65.85,0
113.00,69.86,0
76.00,73.95,0
86.00,77.51,0
83.00,80.39,0
92.00,82.77,0
104.00,84.90,0
84.00,86.89,0
76.00,88.40,0
75.00,89.20,0
60.00,89.22,0
63.00,88.41,0
56.00,86.88,0
54.00,84.74,0
43.00,82.03,0
48.00,78.80,0
34.00,75.17,0
42.00,71.24,0
50.00,67.28,0
36.00,63.52,0
40.00,59.90,0
88.00,56.86,0
72.00,55.06,0
65.00,54.32,0
59.00,54.12,0
74.00,54.30,0
72.00,54.96,0
96.00,56.23,0
73.00,58.12,0
86.00,60.36,0
78.00,62.73,0
82.00,65.14,0
84.00,67.51,0
108.00,70.03,0
86.00,72.82,0
129.00,75.91,0
79.00,79.25,0
86.00,82.25,0
84.00,84.58,0
125.00,86.68,0
49.00,88.58,0
58.00,89.42,0
72.00,89.06,0
39.00,87.84,0
54.00,85.69,0
112.00,83.37,0
49.00,81.55,0
38.00,79.52,0
64.00,76.91,0
41.00,74.10,0
36.00,71.03,0
43.00,67.63,0
57.00,64.30,0
47.00,61.32,0
40.00,58.62,0
72.00,56.27,0
54.00,54.59,0
75.00,53.61,0
122.00,53.79,0
65.00,55.33,0
97.00,57.56,0
77.00,60.13,0
76.00,62.80,0
87.00,65.36,0
122.00,68.21,0
86.00,71.57,0
83.00,74.88,0
72.00,77.60,0
81.00,79.64,0
80.00,81.16,0
127.00,82.67,0
76.00,84.47,0
70.00,85.93,0
77.00,86.63,0
49.00,86.55,0
51.00,85.50,0
46.00,83.52,0
44.00,80.80,0
45.00,77.54,0
38.00,73.92,0
42.00,70.07,0
37.00,66.14,0
46.00,62.31,0
57.00,58.88,0
74.00,56.26,0
45.00,54.48,0
70.00,53.26,0
54.00,52.54,0
64.00,52.26,0
81.00,52.49,0
75.00,53.42,0
76.00,54.90,0
84.00,56.77,0
78.00,58.99,0
87.00,61.43,0
94.00,64.10,0
96.00,67.09,0
86.00,70.21,0
79.00,73.13,0
84.00,75.65,0
81.00,77.77,0
70.00,79.42,0
68.00,80.44,0
59.00,80.74,0
68.00,80.41,0
51.00,79.52,0
51.00,78.05,0
55.00,76.07,0
37.00,73.68,0
47.00,70.89,0
51.00,67.93,0
36.00,64.97,0
37.00,61.88,0
60.00,58.90,0
42.00,56.33,0
55.00,54.16,0
86.00,52.69,0
84.00,52.39,0
59.00,53.02,0
71.00,54.00,0
112.00,55.55,0
67.00,57.87,0
158.00,61.06,0
82.00,65.32,0
90.00,69.80,0
77.00,73.70,0
95.00,77.03,0
73.00,79.82,0
72.00,81.90,0
74.00,83.17,0
77.00,83.84,0
69.00,84.03,0
74.00,83.79,0
73.00,83.23,0
121.00,82.87,0
68.00,83.02,0
64.00,83.05,0
62.00,82.45,0
39.00,81.15,0
51.00,79.05,0
102.00,76.86,0
38.00,75.07,0
38.00,73.02,0
83.00,70.67,0
49.00,68.65,0
65.00,66.87,0
69.00,65.36,0
60.00,64.23,0
59.00,63.29,0
91.00,62.71,0
91.00,62.94,0
100.00,64.12,0
70.00,65.88,0
71.00,67.60,0
70.00,69.01,0
153.00,70.81,0
72.00,73.53,0
105.00,76.48,0
76.00,79.16,0
86.00,81.41,0
83.00,83.17,0
81.00,84.51,0
80.00,85.42,0
80.00,85.94,0
74.00,86.09,0
59.00,85.72,0
77.00,84.83,0
60.00,83.61,0
57.00,82.02,0
43.00,79.89,0
52.00,77.24,0
56.00,74.35,0
34.00,71.33,0
78.00,68.35,0
45.00,65.76,0
37.00,63.32,0
101.00,61.19,0
65.00,60.05,0
57.00,59.59,0
75.00,59.37,0
75.00,59.56,0
60.00,60.10,0
71.00,60.71,0
50.00,61.26,0
80.00,61.72,0
73.00,62.37,0
101.00,63.50,0
77.00,65.17,0
88.00,67.12,0
84.00,69.17,0
85.00,71.26,0
71.00,73.18,0
81.00,74.76,0
71.00,76.01,0
64.00,76.82,0
62.00,77.04,0
70.00,76.81,0
66.00,76.30,0
46.00,75.44,0
64.00,74.13,0
117.00,73.09,0
45.00,72.72,0
36.00,72.04,0
82.00,70.79,0
48.00,69.55,0
42.00,68.12,0
77.00,66.51,0
56.00,65.18,0
71.00,64.16,0
107.00,63.78,0
64.00,64.26,0
72.00,65.04,0
74.00,65.82,0
68.00,66.62,0
83.00,67.44,0
123.00,68.79,0
70.00,70.83,0
91.00,72.97,0
74.00,74.87,0
88.00,76.55,0
82.00,78.04,0
101.00,79.51,0
69.00,80.91,0
92.00,82.04,0
72.00,82.87,0
62.00,83.23,0
86.00,83.08,0
69.00,82.72,0
72.00,82.16,0
41.00,81.12,0
59.00,79.41,0
47.00,77.19,0
37.00,74.51,0
68.00,71.58,0
44.00,68.78,0
36.00,65.96,0
84.00,63.29,0
43.00,61.22,0
40.00,59.35,0
72.00,57.58,0
75.00,56.47,0
57.00,56.07,0
78.00,56.11,0
68.00,56.62,0
70.00,57.47,0
73.00,58.54,0
82.00,59.88,0
84.00,61.57,0
124.00,63.91,0
76.00,66.96,0
83.00,70.03,0
70.00,72.63,0
106.00,74.92,0
91.00,77.27,0
115.00,79.83,0
86.00,82.50,0
88.00,84.90,0
60.00,86.58,0
54.00,87.15,0
63.00,86.61,0
57.00,85.29,0
54.00,83.39,0
35.00,80.83,0
44.00,77.59,0
36.00,73.88,0
35.00,69.87,0
51.00,65.81,0
41.00,62.02,0
60.00,58.69,0
88.00,56.27,0
62.00,55.04,0
84.00,54.73,0
71.00,55.17,0
85.00,56.25,0
70.00,57.78,0
98.00,59.71,0
77.00,62.03,0
76.00,64.46,0
73.00,66.67,0
107.00,68.86,0
83.00,71.31,0
133.00,74.17,0
89.00,77.51,0
81.00,80.73,0
71.00,83.17,0
89.00,84.85,0
59.00,85.87,0
160.00,86.84,0
39.00,88.16,0
36.00,88.52,0
70.00,87.37,0
41.00,85.41,0
41.00,82.69,0
34.00,79.20,0
50.00,75.24,0
36.00,71.15,0
36.00,66.99,0
60.00,63.00,0
41.00,59.52,0
48.00,56.48,0
50.00,53.84,0
64.00,51.81,0
79.00,50.68,0
62.00,50.49,0
69.00,50.92,0
71.00,51.80,0
125.00,53.53,0
82.00,56.41,0
75.00,59.74,0
72.00,62.80,0
89.00,65.61,0
94.00,68.41,0
140.00,71.72,0
82.00,75.63,0
80.00,79.28,0
76.00,82.06,0
72.00,83.97,0
54.00,84.89,0
127.00,85.33,0
69.00,85.96,0
55.00,86.24,0
73.00,85.68,0
39.00,84.42,0
53.00,82.36,0
42.00,79.62,0
40.00,76.37,0
37.00,72.69,0
36.00,68.73,0
40.00,64.68,0
42.00,60.77,0
49.00,57.21,0
60.00,54.27,0
61.00,52.15,0
60.00,50.82,0
94.00,50.39,0
70.00,51.04,0
64.00,52.30,0
64.00,53.69,0
79.00,55.22,0
83.00,57.07,0
80.00,59.29,0
93.00,61.78,0
72.00,64.43,0
84.00,66.97,0
74.00,69.28,0
98.00,71.47,0
81.00,73.67,0
70.00,75.64,0
76.00,77.09,0
86.00,78.19,0
76.00,79.11,0
45.00,79.54,0
62.00,79.13,0
37.00,77.89,0
55.00,75.95,0
47.00,73.57,0
36.00,70.87,0
37.00,67.76,0
51.00,64.49,0
37.00,61.32,0
44.00,58.29,0
70.00,55.66,0
72.00,53.94,0
59.00,53.11,0
81.00,52.96,0
73.00,53.52,0
47.00,54.45,0
66.00,55.28,0
86.00,56.28,0
62.00,57.65,0
117.00,59.48,0
68.00,61.93,0
93.00,64.60,0
73.00,67.20,0
91.00,69.69,0
77.00,72.01,0
75.00,74.05,0
71.00,75.61,0
100.00,76.91,0
80.00,78.26,0
50.00,79.26,0
71.00,79.46,0
62.00,79.10,0
38.00,78.12,0
100.00,76.77,0
53.00,75.60,0
45.00,74.29,0
40.00,72.36,0
43.00,69.89,0
39.00,67.06,0
48.00,64.09,0
42.00,61.18,0
63.00,58.56,0
45.00,56.40,0
70.00,54.73,0
66.00,53.73,0
67.00,53.42,0
79.00,53.71,0
66.00,54.57,0
58.00,55.64,0
81.00,56.78,0
89.00,58.33,0
69.00,60.29,0
115.00,62.61,0
87.00,65.51,0
102.00,68.78,0
78.00,72.04,0
66.00,74.81,0
85.00,76.89,0
76.00,78.50,0
62.00,79.60,0
53.00,79.90,0
72.00,79.47,0
46.00,78.53,0
61.00,77.08,0
100.00,75.65,0
57.00,74.68,0
42.00,73.59,0
78.00,72.15,0
37.00,70.61,0
35.00,68.65,0
40.00,66.12,0
49.00,63.36,0
81.00,60.98,0
62.00,59.42,0
60.00,58.46,0
60.00,57.79,0
64.00,57.40,0
80.00,57.41,0
70.00,57.96,0
126.00,59.32,0
74.00,61.66,0
93.00,64.44,0
66.00,67.11,0
100.00,69.61,0
81.00,72.07,0
90.00,74.47,0
92.00,76.75,0
90.00,78.96,0
82.00,80.95,0
78.00,82.53,0
72.00,83.56,0
55.00,83.87,0
60.00,83.33,0
51.00,82.03,0
58.00,80.15,0
66.00,78.00,0
51.00,75.79,0
37.00,73.29,0
51.00,70.42,0
54.00,67.51,0
35.00,64.66,0
55.00,61.85,0
61.00,59.37,0
48.00,57.38,0
66.00,55.81,0
74.00,54.87,0
63.00,54.63,0
64.00,54.82,0
72.00,55.33,0
81.00,56.27,0
159.00,58.36,0
77.00,61.95,0
74.00,65.83,0
74.00,69.07,0
82.00,71.76,0
82.00,74.08,0
87.00,76.14,0
76.00,77.94,0
76.00,79.33,0
80.00,80.31,0
74.00,80.96,0
73.00,81.27,0
60.00,81.13,0
64.00,80.47,0
50.00,79.27,0
47.00,77.48,0
81.00,75.43,0
50.00,73.51,0
43.00,71.48,0
60.00,69.20,0
39.00,66.84,0
35.00,64.27,0
58.00,61.57,0
46.00,59.12,0
64.00,57.06,0
76.00,55.68,0
64.00,55.10,0
53.00,54.96,0
61.00,54.95,0
75.00,55.19,0
72.00,55.88,0
103.00,57.22,0
64.00,59.17,0
66.00,61.14,0
69.00,62.81,0
87.00,64.41,0
69.00,66.08,0
84.00,67.71,0
80.00,69.33,0
84.00,70.99,0
71.00,72.53,0
78.00,73.82,0
91.00,74.99,0
102.00,76.39,0
59.00,77.85,0
49.00,78.61,0
80.00,78.55,0
37.00,77.94,0
40.00,76.50,0
50.00,74.26,0
42.00,71.61,0
40.00,68.66,0
35.00,65.46,0
57.00,62.23,0
46.00,59.34,0
60.00,56.90,0
56.00,55.00,0
58.00,53.64,0
54.00,52.71,0
66.00,52.17,0
72.00,52.17,0
57.00,52.65,0
74.00,53.43,0
71.00,54.53,0
99.00,56.17,0
77.00,58.42,0
78.00,60.92,0
57.00,63.21,0
99.00,65.27,0
87.00,67.50,0
78.00,69.86,0
78.00,72.01,0
74.00,73.80,0
79.00,75.24,0
83.00,76.45,0
83.00,77.56,0
46.00,78.27,0
63.00,78.19,0
55.00,77.41,0
51.00,76.11,0
46.00,74.28,0
35.00,71.90,0
72.00,69.27,0
48.00,66.85,0
44.00,64.56,0
67.00,62.36,0
55.00,60.55,0
58.00,59.12,0
54.00,57.94,0
69.00,57.06,0
65.00,56.63,0
84.00,56.77,0
72.00,57.53,0
89.00,58.82,0
63.00,60.44,0
88.00,62.17,0
72.00,64.01,0
88.00,65.93,0
79.00,67.91,0
90.00,69.95,0
75.00,71.95,0
98.00,73.89,0
44.00,75.52,0
80.00,76.45,0
58.00,76.80,0
54.00,76.60,0
63.00,75.80,0
65.00,74.72,0
51.00,73.44,0
48.00,71.82,0
56.00,69.89,0
39.00,67.76,0
35.00,65.30,0
88.00,62.90,0
66.00,61.29,0
46.00,60.24,0
102.00,59.60,0
50.00,59.62,0
58.00,59.82,0
74.00,59.98,0
65.00,60.35,0
73.00,60.93,0
144.00,62.29,0
68.00,64.81,0
82.00,67.58,0
80.00,70.04,0
91.00,72.33,0
63.00,74.38,0
118.00,76.24,0
77.00,78.24,0
84.00,80.12,0
86.00,81.63,0
82.00,82.87,0
93.00,83.91,0
88.00,84.87,0
65.00,85.55,0
75.00,85.66,0
70.00,85.27,0
41.00,84.26,0
54.00,82.41,0
56.00,79.98,0
39.00,77.17,0
35.00,73.89,0
44.00,70.22,0
54.00,66.58,0
42.00,63.21,0
69.00,60.27,0
38.00,57.85,0
82.00,55.98,0
70.00,54.94,0
70.00,54.76,0
82.00,55.22,0
71.00,56.27,0
84.00,57.76,0
58.00,59.43,0
76.00,61.02,0
78.00,62.59,0
84.00,64.33,0
73.00,66.15,0
85.00,67.96,0
86.00,69.80,0
93.00,71.78,0
63.00,73.69,0
63.00,75.03,0
70.00,75.71,0
53.00,75.83,0
76.00,75.49,0
51.00,74.86,0
41.00,73.72,0
84.00,72.21,0
50.00,70.81,0
36.00,69.23,0
36.00,67.04,0
42.00,64.41,0
34.00,61.55,0
42.00,58.60,0
61.00,55.90,0
53.00,53.80,0
49.00,52.20,0
76.00,51.14,0
62.00,50.81,0
78.00,51.18,0
89.00,52.30,0
66.00,54.08,0
87.00,56.19,0
65.00,58.46,0
88.00,60.77,0
80.00,63.17,0
117.00,65.92,0
59.00,68.92,0
80.00,71.52,0
76.00,73.57,0
88.00,75.34,0
75.00,76.90,0
102.00,78.35,0
70.00,79.75,0
62.00,80.69,0
59.00,80.83,0
58.00,80.23,0
59.00,79.05,0
71.00,77.59,0
47.00,75.96,0
49.00,73.98,0
37.00,71.54,0
42.00,68.69,0
38.00,65.57,0
50.00,62.42,0
48.00,59.50,0
66.00,57.06,0
49.00,55.22,0
63.00,53.87,0
60.00,53.00,0
66.00,52.65,0
75.00,52.86,0
72.00,53.64,0
83.00,54.96,0
74.00,56.73,0
86.00,58.82,0
88.00,61.22,0
90.00,63.93,0
60.00,66.58,0
75.00,68.75,0
73.00,70.47,0
82.00,71.95,0
69.00,73.23,0
94.00,74.37,0
81.00,75.57,0
54.00,76.55,0
53.00,76.76,0
59.00,76.19,0
51.00,75.08,0
65.00,73.62,0
43.00,71.93,0
36.00,69.81,0
60.00,67.34,0
78.00,65.17,0
37.00,63.45,0
58.00,61.79,0
44.00,60.11,0
59.00,58.54,0
110.00,57.65,0
72.00,57.98,0
51.00,58.83,0
76.00,59.60,0
78.00,60.54,0
62.00,61.68,0
140.00,63.33,0
82.00,65.99,0
84.00,69.03,0
75.00,71.75,0
75.00,73.99,0
82.00,75.79,0
142.00,77.81,0
79.00,80.45,0
76.00,82.90,0
69.00,84.51,0
79.00,85.36,0
44.00,85.42,0
54.00,84.47,0
50.00,82.62,0
40.00,80.08,0
46.00,76.97,0
48.00,73.54,0
39.00,70.00,0
59.00,66.52,0
60.00,63.47,0
59.00,61.03,0
113.00,59.56,0
56.00,59.29,0
55.00,59.44,0
69.00,59.54,0
55.00,59.69,0
65.00,59.85,0
115.00,60.47,0
64.00,61.91,0
85.00,63.66,0
73.00,65.42,0
90.00,67.25,0
74.00,69.12,0
84.00,70.91,0
69.00,72.50,0
80.00,73.81,0
71.00,74.84,0
103.00,75.84,0
90.00,77.12,0
78.00,78.54,0
88.00,79.78,0
54.00,80.63,0
78.00,80.87,0
63.00,80.63,0
74.00,80.09,0
49.00,79.18,0
66.00,77.84,0
38.00,76.06,0
41.00,73.71,0
85.00,71.18,0
62.00,69.17,0
36.00,67.37,0
80.00,65.55,0
55.00,64.07,0
42.00,62.75,0
70.00,61.40,0
61.00,60.35,0
70.00,59.73,0
117.00,59.91,0
64.00,61.10,0
80.00,62.67,0
84.00,64.34,0
89.00,66.26,0
82.00,68.37,0
130.00,70.89,0
112.00,74.21,0
81.00,77.87,0
73.00,80.95,0
74.00,83.09,0
78.00,84.45,0
71.00,85.18,0
78.00,85.39,0
52.00,85.03,0
56.00,83.91,0
47.00,82.04,0
66.00,79.68,0
36.00,77.03,0
51.00,74.04,0
39.00,70.77,0
47.00,67.40,0
72.00,64.31,0
37.00,61.71,0
44.00,59.27,0
42.00,56.84,0
45.00,54.54,0
64.00,52.61,0
59.00,51.32,0
73.00,50.75,0
72.00,50.94,0
97.00,51.98,0
78.00,53.89,0
91.00,56.41,0
76.00,59.24,0
96.00,62.22,0
79.00,65.31,0
80.00,68.26,0
78.00,70.86,0
90.00,73.19,0
75.00,75.29,0
92.00,77.14,0
60.00,78.64,0
70.00,79.51,0
66.00,79.74,0
46.00,79.33,0
74.00,78.32,0
49.00,76.97,0
34.00,75.10,0
78.00,72.81,0
47.00,70.62,0
36.00,68.34,0
57.00,65.80,0
50.00,63.35,0
41.00,61.02,0
59.00,58.82,0
43.00,56.87,0
64.00,55.23,0
88.00,54.31,0
70.00,54.38,0
60.00,55.02,0
62.00,55.76,0
95.00,56.80,0
61.00,58.29,0
130.00,60.36,0
68.00,63.16,0
107.00,66.28,0
75.00,69.41,0
85.00,72.32,0
74.00,74.77,0
89.00,76.83,0
82.00,78.61,0
68.00,80.02,0
75.00,80.87,0
66.00,81.18,0
65.00,80.98,0
40.00,80.10,0
66.00,78.52,0
43.00,76.51,0
47.00,74.09,0
37.00,71.23,0
80.00,68.36,0
99.00,66.37,0
36.00,65.26,0
79.00,64.33,0
38.00,63.41,0
69.00,62.47,0
54.00,61.58,0
75.00,60.96,0
95.00,60.95,0
72.00,61.70,0
102.00,63.06,0
59.00,64.77,0
109.00,66.66,0
57.00,68.64,0
72.00,70.32,0
83.00,71.62,0
78.00,72.85,0
86.00,74.06,0
71.00,75.19,0
65.00,75.98,0
90.00,76.47,0
81.00,77.02,0
46.00,77.34,0
72.00,77.06,0
41.00,76.21,0
42.00,74.65,0
143.00,73.21,0
38.00,72.72,0
40.00,72.07,0
81.00,70.85,0
64.00,69.78,0
39.00,68.71,0
74.00,67.41,0
37.00,66.04,0
54.00,64.48,0
62.00,62.88,0
62.00,61.56,0
79.00,60.72,0
74.00,60.51,0
76.00,60.85,0
82.00,61.65,0
92.00,62.96,0
72.00,64.68,0
138.00,66.93,0
75.00,69.93,0
106.00,73.16,0
75.00,76.19,0
84.00,78.79,0
72.00,80.75,0
88.00,82.19,0
68.00,83.18,0
42.00,83.38,0
72.00,82.62,0
41.00,81.18,0
36.00,78.97,0
54.00,76.06,0
37.00,72.82,0
36.00,69.31,0
50.00,65.65,0
41.00,62.17,0
44.00,58.92,0
68.00,56.13,0
50.00,54.06,0
62.00,52.60,0
64.00,51.71,0
79.00,51.56,0
70.00,52.15,0
69.00,53.25,0
73.00,54.65,0
80.00,56.34,0
69.00,58.27,0
67.00,60.16,0
83.00,61.97,0
78.00,63.87,0
84.00,65.87,0
75.00,67.86,0
58.00,69.55,0
73.00,70.71,0
68.00,71.50,0
70.00,72.05,0
52.00,72.23,0
70.00,72.00,0
43.00,71.39,0
62.00,70.36,0
79.00,69.28,0
37.00,68.29,0
35.00,66.84,0
57.00,64.88,0
82.00,63.16,0
40.00,61.92,0
52.00,60.70,0
43.00,59.31,0
49.00,57.84,0
86.00,56.69,0
54.00,56.21,0
67.00,56.15,0
86.00,56.51,0
82.00,57.57,0
80.00,59.19,0
89.00,61.21,0
82.00,63.52,0
94.00,66.05,0
71.00,68.61,0
78.00,70.88,0
82.00,72.82,0
84.00,74.58,0
67.00,76.07,0
82.00,77.16,0
79.00,78.01,0
45.00,78.43,0
62.00,78.07,0
82.00,77.28,0
63.00,76.52,0
52.00,75.56,0
50.00,74.13,0
35.00,72.13,0
37.00,69.53,0
36.00,66.46,0
72.00,63.42,0
46.00,60.88,0
39.00,58.62,0
64.00,56.51,0
46.00,54.80,0
60.00,53.48,0
57.00,52.55,0
76.00,52.17,0
114.00,52.83,0
56.00,54.55,0
75.00,56.55,0
70.00,58.48,0
87.00,60.51,0
78.00,62.71,0
130.00,65.40,0
80.00,68.74,0
86.00,72.11,0
69.00,74.95,0
93.00,77.24,0
67.00,79.10,0
94.00,80.54,0
78.00,81.73,0
41.00,82.34,0
59.00,81.90,0
37.00,80.47,0
47.00,78.21,0
42.00,75.34,0
41.00,72.09,0
56.00,68.72,0
35.00,65.45,0
108.00,62.73,0
35.00,60.96,0
74.00,59.68,0
48.00,58.65,0
45.00,57.70,0
106.00,57.08,0
65.00,57.39,0
65.00,58.22,0
70.00,59.11,0
82.00,60.20,0
95.00,61.76,0
82.00,63.83,0
76.00,66.06,0
88.00,68.23,0
52.00,70.14,0
76.00,71.49,0
69.00,72.40,0
79.00,73.13,0
75.00,73.76,0
56.00,74.15,0
76.00,74.17,0
59.00,73.94,0
82.00,73.60,0
82.00,73.42,0
55.00,73.35,0
48.00,72.86,0
74.00,71.93,0
38.00,70.78,0
37.00,69.11,0
130.00,67.56,0
43.00,66.96,0
62.00,66.59,0
89.00,66.22,0
60.00,66.23,0
60.00,66.28,0
77.00,66.25,0
56.00,66.26,0
59.00,66.13,0
105.00,66.16,0
71.00,66.79,0
80.00,67.78,0
63.00,68.71,0
83.00,69.54,0
60.00,70.26,0
99.00,70.98,0
83.00,71.99,0
75.00,73.20,0
69.00,74.20,0
68.00,74.82,0
58.00,75.00,0
54.00,74.61,0
65.00,73.76,0
47.00,72.59,0
58.00,71.09,0
40.00,69.27,0
39.00,67.07,0
38.00,64.47,0
38.00,61.62,0
37.00,58.67,0
66.00,55.96,0
71.00,54.03,0
78.00,53.15,0
59.00,53.07,0
56.00,53.35,0
77.00,53.84,0
63.00,54.69,0
80.00,55.86,0
82.00,57.44,0
80.00,59.42,0
95.00,61.74,0
55.00,64.15,0
94.00,66.33,0
60.00,68.30,0
97.00,70.11,0
80.00,71.92,0
77.00,73.69,0
73.00,75.13,0
75.00,76.21,0
62.00,76.86,0
115.00,77.41,0
75.00,78.30,0
48.00,78.98,0
67.00,78.85,0
46.00,78.03,0
38.00,76.45,0
52.00,74.17,0
38.00,71.47,0
33.00,68.38,0
94.00,65.41,0
73.00,63.42,0
38.00,62.10,0
69.00,60.85,0
55.00,59.80,0
63.00,59.02,0
59.00,58.46,0
79.00,58.25,0
69.00,58.53,0
64.00,59.13,0
81.00,59.93,0
58.00,60.91,0
86.00,61.97,0
76.00,63.26,0
87.00,64.83,0
74.00,66.56,0
84.00,68.31,0
86.00,70.09,0
94.00,72.02,0
76.00,74.00,0
41.00,75.43,0
67.00,75.89,0
69.00,75.74,0
60.00,75.32,0
54.00,74.52,0
63.00,73.35,0
39.00,71.85,0
49.00,69.91,0
72.00,67.86,0
38.00,65.96,0
42.00,63.91,0
92.00,62.01,0
72.00,60.99,0
39.00,60.47,0
69.00,59.88,0
41.00,59.26,0
78.00,58.72,0
95.00,58.78,0
80.00,59.76,0
77.00,61.27,0
73.00,62.92,0
84.00,64.64,0
67.00,66.35,0
123.00,68.27,0
71.00,70.65,0
91.00,73.06,0
87.00,75.28,0
83.00,77.36,0
70.00,79.06,0
85.00,80.28,0
74.00,81.15,0
104.00,81.91,0
71.00,82.70,0
68.00,83.16,0
58.00,82.95,0
51.00,81.99,0
63.00,80.40,0
46.00,78.38,0
46.00,75.90,0
70.00,73.23,0
35.00,70.61,0
37.00,67.74,0
51.00,64.65,0
80.00,61.97,0
38.00,59.94,0
67.00,58.26,0
43.00,56.84,0
58.00,55.62,0
111.00,55.08,0
60.00,55.67,0
70.00,56.76,0
73.00,57.97,0
87.00,59.48,0
81.00,61.37,0
131.00,63.91,0
78.00,67.20,0
87.00,70.57,0
69.00,73.46,0
68.00,75.64,0
91.00,77.25,0
124.00,79.00,0
78.00,81.17,0
75.00,83.07,0
78.00,84.30,0
60.00,84.85,0
55.00,84.55,0
122.00,83.94,0
53.00,83.61,0
40.00,82.82,0
45.00,80.95,0
36.00,78.21,0
35.00,74.79,0
82.00,71.28,0
73.00,68.50,0
53.00,66.45,0
78.00,64.82,0
72.00,63.75,0
53.00,63.11,0
74.00,62.62,0
56.00,62.30,0
56.00,61.99,0
69.00,61.67,0
80.00,61.65,0
83.00,62.18,0
78.00,63.19,0
93.00,64.62,0
82.00,66.43,0
70.00,68.31,0
68.00,69.87,0
95.00,71.24,0
78.00,72.70,0
99.00,74.30,0
78.00,75.98,0
66.00,77.41,0
68.00,78.23,0
35.00,78.22,0
61.00,77.27,0
58.00,75.78,0
53.00,74.04,0
51.00,72.05,0
76.00,70.06,0
36.00,68.22,0
36.00,66.08,0
72.00,63.76,0
70.00,61.95,0
63.00,60.80,0
36.00,59.83,0
65.00,58.77,0
61.00,57.90,0
68.00,57.43,0
61.00,57.31,0
53.00,57.33,0
80.00,57.49,0
75.00,58.09,0
65.00,59.06,0
84.00,60.24,0
121.00,62.07,0
75.00,64.71,0
98.00,67.63,0
74.00,70.46,0
94.00,73.09,0
87.00,75.56,0
110.00,78.06,0
73.00,80.52,0
77.00,82.48,0
76.00,83.75,0
41.00,84.17,0
73.00,83.63,0
62.00,82.50,0
60.00,81.05,0
38.00,79.08,0
36.00,76.40,0
41.00,73.09,0
35.00,69.42,0
41.00,65.60,0
50.00,61.91,0
58.00,58.70,0
63.00,56.21,0
56.00,54.45,0
54.00,53.20,0
94.00,52.62,0
106.00,53.31,0
63.00,55.11,0
91.00,57.33,0
77.00,59.78,0
101.00,62.52,0
79.00,65.50,0
113.00,68.68,0
68.00,71.91,0
76.00,74.67,0
77.00,76.76,0
95.00,78.49,0
75.00,80.04,0
94.00,81.37,0
69.00,82.44,0
55.00,82.90,0
49.00,82.39,0
59.00,81.04,0
60.00,79.20,0
64.00,77.20,0
62.00,75.19,0
36.00,73.02,0
68.00,70.63,0
68.00,68.47,0
37.00,66.55,0
82.00,64.74,0
58.00,63.37,0
51.00,62.29,0
43.00,61.09,0
69.00,59.86,0
58.00,58.92,0
56.00,58.25,0
73.00,57.82,0
64.00,57.79,0
116.00,58.47,0
69.00,60.07,0
96.00,62.19,0
79.00,64.57,0
122.00,67.34,0
67.00,70.45,0
137.00,73.73,0
74.00,77.22,0
88.00,80.40,0
75.00,82.84,0
76.00,84.56,0
82.00,85.62,0
64.00,86.11,0
58.00,85.85,0
48.00,84.70,0
46.00,82.69,0
38.00,79.89,0
40.00,76.46,0
52.00,72.74,0
39.00,69.01,0
38.00,65.29,0
35.00,61.55,0
76.00,58.19,0
46.00,55.64,0
59.00,53.74,0
61.00,52.38,0
74.00,51.72,0
53.00,51.67,0
69.00,51.98,0
85.00,52.78,0
59.00,54.11,0
78.00,55.65,0
70.00,57.34,0
79.00,59.19,0
67.00,61.06,0
96.00,63.03,0
76.00,65.20,0
127.00,67.80,0
86.00,70.96,0
69.00,74.07,0
74.00,76.44,0
71.00,78.10,0
68.00,79.12,0
103.00,79.85,0
68.00,80.59,0
34.00,80.73,0
80.00,79.97,0
38.00,78.66,0
38.00,76.67,0
91.00,74.31,0
36.00,72.19,0
47.00,69.92,0
65.00,67.49,0
67.00,65.43,0
44.00,63.71,0
69.00,62.15,0
46.00,60.79,0
80.00,59.74,0
95.00,59.46,0
60.00,60.00,0
78.00,60.86,0
63.00,61.80,0
84.00,62.86,0
66.00,64.04,0
76.00,65.23,0
65.00,66.32,0
93.00,67.43,0
77.00,68.75,0
80.00,70.18,0
68.00,71.47,0
53.00,72.31,0
70.00,72.57,0
56.00,72.43,0
59.00,71.92,0
39.00,70.92,0
40.00,69.28,0
41.00,67.07,0
39.00,64.50,0
37.00,61.70,0
38.00,58.78,0
39.00,55.87,0
35.00,53.06,0
103.00,50.92,0
46.00,50.00,0
72.00,49.85,0
35.00,49.94,0
49.00,49.94,0
101.00,50.23,0
80.00,51.51,0
88.00,53.68,0
66.00,56.21,0
83.00,58.78,0
82.00,61.38,0
124.00,64.40,0
66.00,67.84,0
84.00,71.02,0
73.00,73.63,0
67.00,75.63,0
80.00,77.02,0
76.00,78.04,0
76.00,78.77,0
52.00,79.05,0
63.00,78.65,0
38.00,77.52,0
59.00,75.74,0
54.00,73.62,0
37.00,71.26,0
38.00,68.48,0
58.00,65.52,0
40.00,62.71,0
36.00,59.94,0
86.00,57.49,0
54.00,55.89,0
82.00,55.10,0
118.00,55.48,0
70.00,57.12,0
70.00,59.19,0
64.00,61.07,0
72.00,62.71,0
51.00,64.02,0
84.00,65.04,0
65.00,66.01,0
83.00,67.02,0
73.00,68.08,0
113.00,69.46,0
69.00,71.27,0
54.00,72.80,0
64.00,73.55,0
73.00,73.81,0
76.00,73.92,0
72.00,74.02,0
54.00,73.91,0
54.00,73.31,0
58.00,72.25,0
42.00,70.82,0
35.00,68.86,0
56.00,66.47,0
42.00,64.02,0
36.00,61.50,0
52.00,58.93,0
46.00,56.56,0
42.00,54.42,0
63.00,52.60,0
41.00,51.20,0
55.00,50.10,0
86.00,49.57,0
59.00,49.88,0
60.00,50.65,0
77.00,51.67,0
88.00,53.23,0
73.00,55.36,0
125.00,58.11,0
59.00,61.44,0
81.00,64.61,0
76.00,67.34,0
100.00,69.94,0
73.00,72.49,0
83.00,74.75,0
70.00,76.55,0
63.00,77.74,0
61.00,78.21,0
80.00,78.17,0
67.00,77.93,0
40.00,77.27,0
52.00,75.87,0
43.00,73.83,0
45.00,71.35,0
49.00,68.62,0
35.00,65.74,0
36.00,62.66,0
54.00,59.59,0
38.00,56.78,0
39.00,54.17,0
75.00,51.97,0
49.00,50.55,0
81.00,49.90,0
57.00,49.97,0
54.00,50.42,0
58.00,50.95,0
76.00,51.69,0
81.00,52.95,0
72.00,54.72,0
76.00,56.74,0
69.00,58.82,0
79.00,60.88,0
74.00,62.92,0
76.00,64.89,0
66.00,66.66,0
140.00,68.67,0
60.00,71.28,0
74.00,73.67,0
70.00,75.35,0
68.00,76.47,0
40.00,76.83,0
98.00,76.59,0
52.00,76.26,0
48.00,75.56,0
46.00,74.13,0
41.00,72.09,0
38.00,69.54,0
35.00,66.55,0
45.00,63.35,0
40.00,60.19,0
54.00,57.28,0
61.00,54.90,0
49.00,53.14,0
75.00,51.97,0
78.00,51.66,0
57.00,52.08,0
75.00,52.90,0
75.00,54.09,0
72.00,55.66,0
68.00,57.40,0
110.00,59.44,0
77.00,62.05,0
77.00,64.79,0
60.00,67.14,0
80.00,69.00,0
85.00,70.65,0
115.00,72.59,0
60.00,74.76,0
64.00,76.41,0
70.00,77.27,0
62.00,77.57,0
66.00,77.39,0
66.00,76.84,0
54.00,75.96,0
44.00,74.59,0
50.00,72.67,0
41.00,70.35,0
38.00,67.65,0
35.00,64.63,0
44.00,61.45,0
54.00,58.47,0
36.00,55.82,0
67.00,53.56,0
48.00,51.87,0
64.00,50.76,0
58.00,50.16,0
68.00,50.10,0
67.00,50.55,0
65.00,51.43,0
81.00,52.69,0
77.00,54.41,0
119.00,56.85,0
80.00,60.10,0
78.00,63.53,0
62.00,66.50,0
86.00,68.94,0
60.00,70.94,0
90.00,72.57,0
82.00,74.06,0
50.00,75.27,0
72.00,75.79,0
43.00,75.65,0
57.00,74.81,0
50.00,73.41,0
47.00,71.61,0
43.00,69.43,0
42.00,66.91,0
41.00,64.17,0
36.00,61.30,0
52.00,58.45,0
62.00,56.02,0
50.00,54.19,0
69.00,52.91,0
74.00,52.36,0
35.00,52.30,0
62.00,52.22,0
75.00,52.37,0
63.00,53.02,0
86.00,54.14,0
79.00,55.79,0
72.00,57.81,0
68.00,59.85,0
105.00,62.00,0
75.00,64.50,0
107.00,67.26,0
75.00,70.14,0
61.00,72.64,0
76.00,74.40,0
66.00,75.57,0
81.00,76.36,0
111.00,77.23,0
63.00,78.37,0
38.00,78.92,0
72.00,78.48,0
44.00,77.41,0
49.00,75.77,0
139.00,74.34,0
41.00,73.83,0
37.00,73.14,0
85.00,71.85,0
46.00,70.58,0
39.00,69.07,0
67.00,67.21,0
55.00,65.47,0
82.00,64.11,0
91.00,63.53,0
60.00,63.66,0
73.00,64.00,0
74.00,64.46,0
102.00,65.34,0
80.00,66.82,0
110.00,68.80,0
79.00,71.17,0
107.00,73.72,0
71.00,76.22,0
79.00,78.31,0
41.00,79.55,0
98.00,80.00,0
64.00,80.18,0
56.00,80.01,0
70.00,79.26,0
48.00,78.09,0
72.00,76.58,0
58.00,74.97,0
40.00,73.15,0
37.00,70.80,0
62.00,68.13,0
39.00,65.50,0
35.00,62.78,0
66.00,60.09,0
45.00,57.81,0
43.00,55.81,0
37.00,53.83,0
65.00,52.06,0
49.00,50.77,0
40.00,49.79,0
64.00,49.00,0
81.00,48.84,0
60.00,49.46,0
75.00,50.58,0
64.00,52.03,0
69.00,53.66,0
84.00,55.48,0
67.00,57.55,0
125.00,60.06,0
83.00,63.29,0
86.00,66.77,0
68.00,69.87,0
72.00,72.35,0
79.00,74.25,0
63.00,75.65,0
63.00,76.43,0
46.00,76.44,0
41.00,75.53,0
35.00,73.68,0
39.00,71.09,0
41.00,68.04,0
40.00,64.79,0
74.00,61.79,0
38.00,59.34,0
45.00,57.12,0
95.00,55.39,0
58.00,54.67,0
50.00,54.47,0
68.00,54.39,0
64.00,54.60,0
76.00,55.20,0
118.00,56.60,0
69.00,58.94,0
89.00,61.63,0
44.00,64.04,0
86.00,65.93,0
82.00,67.65,0
72.00,69.38,0
83.00,70.96,0
95.00,72.56,0
97.00,74.44,0
65.00,76.33,0
72.00,77.72,0
53.00,78.37,0
40.00,78.06,0
44.00,76.71,0
66.00,74.76,0
45.00,72.64,0
38.00,70.21,0
46.00,67.43,0
36.00,64.47,0
67.00,61.60,0
44.00,59.16,0
53.00,57.07,0
48.00,55.23,0
70.00,53.81,0
59.00,53.00,0
75.00,52.80,0
63.00,53.16,0
54.00,53.78,0
56.00,54.35,0
81.00,55.03,0
99.00,56.36,0
72.00,58.40,0
66.00,60.57,0
60.00,62.40,0
100.00,64.10,0
66.00,65.96,0
64.00,67.64,0
49.00,68.69,0
112.00,69.48,0
73.00,70.64,0
77.00,71.95,0
79.00,73.10,0
39.00,73.83,0
69.00,73.80,0
104.00,73.67,0
36.00,73.72,0
40.00,73.10,0
63.00,71.71,0
77.00,70.29,0
34.00,68.96,0
69.00,67.44,0
49.00,65.88,0
70.00,64.47,0
80.00,63.50,0
71.00,63.15,0
36.00,62.92,0
75.00,62.48,0
50.00,62.02,0
65.00,61.61,0
87.00,61.47,0
71.00,61.88,0
95.00,62.83,0
94.00,64.42,0
156.00,67.12,0
71.00,70.89,0
88.00,74.60,0
70.00,77.57,0
144.00,80.34,0
75.00,83.38,0
35.00,85.65,0
93.00,86.50,0
48.00,86.52,0
48.00,85.63,0
39.00,83.63,0
61.00,80.90,0
41.00,77.83,0
40.00,74.43,0
116.00,71.34,0
66.00,69.43,0
45.00,68.10,0
80.00,66.79,0
36.00,65.58,0
34.00,64.03,0
63.00,62.11,0
66.00,60.46,0
95.00,59.61,0
78.00,59.76,0
90.00,60.72,0
68.00,62.14,0
64.00,63.56,0
52.00,64.59,0
83.00,65.31,0
77.00,66.13,0
46.00,66.91,0
144.00,67.88,0
74.00,69.74,0
60.00,71.75,0
65.00,73.05,0
49.00,73.59,0
74.00,73.53,0
96.00,73.47,0
75.00,73.82,0
37.00,73.98,0
74.00,73.50,0
50.00,72.65,0
40.00,71.37,0
52.00,69.54,0
36.00,67.34,0
99.00,65.28,0
143.00,64.66,0
48.00,65.66,0
37.00,66.54,0
67.00,66.56,0
59.00,66.28,0
66.00,65.95,0
108.00,65.99,0
82.00,66.84,0
91.00,68.30,0
55.00,69.78,0
72.00,70.86,0
44.00,71.34,0
76.00,71.30,0
61.00,71.03,0
35.00,70.41,0
67.00,69.25,0
94.00,68.25,0
69.00,67.91,0
87.00,68.05,0
58.00,68.39,0
83.00,68.76,0
65.00,69.15,0
56.00,69.39,0
64.00,69.27,0
88.00,69.14,0
40.00,69.06,0
64.00,68.64,0
42.00,67.79,0
43.00,66.48,0
35.00,64.64,0
67.00,62.59,0
36.00,60.66,0
62.00,58.85,0
212.00,58.59,0
64.00,61.01,0
41.00,63.97,0
64.00,65.84,0
74.00,67.10,0
64.00,68.12,0
114.00,69.25,0
83.00,70.92,0
55.00,72.61,0
75.00,73.71,0
70.00,74.38,0
66.00,74.75,0
105.00,75.10,0
96.00,75.96,0
68.00,77.11,0
86.00,78.06,0
46.00,78.57,0
71.00,78.42,0
163.00,78.61,0
59.00,79.91,0
36.00,80.88,0
76.00,80.65,0
36.00,79.65,0
37.00,77.79,0
110.00,75.62,0
38.00,73.92,0
91.00,72.47,0
46.00,71.17,0
40.00,69.66,0
60.00,67.75,0
84.00,66.08,0
50.00,64.92,0
61.00,63.92,0
104.00,63.33,0
76.00,63.64,0
61.00,64.40,0
66.00,65.03,0
96.00,65.75,0
41.00,66.59,0
90.00,67.25,0
68.00,67.91,0
67.00,68.60,0
84.00,69.21,0
57.00,69.80,0
76.00,70.21,0
65.00,70.46,0
66.00,70.57,0
103.00,70.80,0
58.00,71.37,0
43.00,71.61,0
75.00,71.24,0
36.00,70.49,0
41.00,69.14,0
58.00,67.28,0
49.00,65.35,0
46.00,63.39,0
95.00,61.76,0
47.00,60.82,0
36.00,59.95,0
174.00,59.73,0
50.00,61.17,0
63.00,63.04,0
67.00,64.39,0
81.00,65.58,0
73.00,66.81,0
74.00,68.03,0
58.00,69.01,0
88.00,69.77,0
81.00,70.65,0
70.00,71.62,0
122.00,72.83,0
72.00,74.53,0
40.00,75.88,0
93.00,76.43,0
68.00,76.75,0
74.00,76.96,0
57.00,76.83,0
58.00,76.22,0
85.00,75.37,0
37.00,74.43,0
68.00,73.13,0
49.00,71.55,0
40.00,69.69,0
37.00,67.34,0
36.00,64.56,0
118.00,62.19,0
48.00,60.98,0
54.00,60.26,0
68.00,59.58,0
46.00,59.04,0
48.00,58.39,0
128.00,58.20,0
70.00,59.24,0
81.00,60.96,0
71.00,62.75,0
102.00,64.72,0
121.00,67.35,0
129.00,71.03,0
77.00,75.24,0
171.00,79.71,0
92.00,84.69,0
130.00,89.68,0
74.00,94.02,0
96.00,97.31,0
59.00,99.27,0
36.00,99.54,0
74.00,98.15,0
42.00,95.71,0
92.00,92.76,0
63.00,89.85,0
40.00,86.79,0
48.00,83.17,0
96.00,79.59,0
115.00,77.19,0
114.00,76.43,0
138.00,77.30,0
177.00,80.07,0
68.00,84.18,0
189.00,88.66,0
92.00,93.59,0
49.00,97.72,0
213.00,100.96,0
316.00,106.61,0
100.00,115.23,0
177.00,123.69,0
79.00,130.45,0
43.00,134.40,0
90.00,135.09,0
60.00,133.47,0
112.00,130.47,0
114.00,127.18,0
140.00,124.44,0
35.00,121.79,0
77.00,118.12,0
164.00,114.34,0
86.00,111.74,0
242.00,110.86,0
77.00,111.87,0
43.00,112.56,0
74.00,111.34,0
43.00,108.67,0
42.00,104.70,0
109.00,100.18,0
36.00,95.87,0
102.00,91.77,0
167.00,88.98,0
112.00,88.45,0
163.00,89.69,0
69.00,91.86,0
105.00,93.82,0
126.00,95.56,0
60.00,97.17,0
165.00,98.58,0
40.00,99.95,0
76.00,100.34,0
60.00,99.41,0
72.00,97.63,0
86.00,95.45,0
89.00,93.39,0
164.00,92.28,0
92.00,92.59,0
94.00,93.42,0
172.00,94.69,0
89.00,96.88,0
127.00,99.28,0
36.00,100.95,0
93.00,101.28,0
42.00,100.37,0
86.00,98.54,0
40.00,96.00,0
78.00,92.90,0
51.00,89.52,0
38.00,85.80,0
55.00,81.65,0
109.00,77.91,0
50.00,75.17,0
47.00,72.71,0
54.00,70.07,0
34.00,67.32,0
261.00,66.15,0
38.00,67.98,0
104.00,70.77,0
53.00,73.03,0
97.00,74.87,0
36.00,76.12,0
71.00,76.55,0
152.00,77.07,0
70.00,78.61,0
80.00,80.26,0
104.00,81.61,0
70.00,82.91,0
77.00,83.80,0
74.00,84.17,0
71.00,84.12,0
42.00,83.42,0
73.00,82.03,0
41.00,80.15,0
61.00,77.87,0
57.00,75.37,0
54.00,72.87,0
46.00,70.31,0
70.00,67.82,0
34.00,65.51,0
164.00,64.08,0
41.00,64.21,0
42.00,64.57,0
50.00,64.16,0
45.00,63.27,0
53.00,62.10,0
149.00,61.64,0
76.00,62.79,0
40.00,64.41,0
75.00,65.41,0
75.00,66.21,0
35.00,66.77,0
88.00,66.91,0
58.00,67.03,0
59.00,67.08,0
78.00,67.00,0
64.00,67.03,0
82.00,67.21,0
78.00,67.66,0
52.00,68.16,0
58.00,68.27,0
67.00,68.04,0
42.00,67.55,0
79.00,66.84,0
46.00,66.13,0
57.00,65.29,0
40.00,64.14,0
66.00,62.83,0
41.00,61.52,0
38.00,60.03,0
47.00,58.25,0
35.00,56.36,0
36.00,54.33,0
44.00,52.23,0
74.00,50.55,0
39.00,49.51,0
126.00,49.39,0
55.00,50.54,0
70.00,52.27,0
65.00,54.00,0
84.00,55.88,0
68.00,57.95,0
52.00,59.86,0
68.00,61.31,0
74.00,62.55,0
51.00,63.63,0
79.00,64.46,0
90.00,65.43,0
92.00,66.90,0
58.00,68.55,0
54.00,69.70,0
60.00,70.14,0
66.00,70.15,0
43.00,69.78,0
72.00,69.04,0
68.00,68.31,0
76.00,67.84,0
108.00,67.94,0
46.00,68.57,0
34.00,68.70,0
77.00,68.12,0
36.00,67.27,0
46.00,66.02,0
70.00,64.52,0
39.00,63.11,0
64.00,61.70,0
39.00,60.30,0
142.00,59.59,0
72.00,60.35,0
77.00,61.93,0
59.00,63.45,0
76.00,64.74,0
61.00,65.82,0
77.00,66.75,0
71.00,67.61,0
64.00,68.36,0
59.00,68.81,0
79.00,69.03,0
45.00,69.08,0
91.00,68.99,0
69.00,69.09,0
73.00,69.37,0
55.00,69.52,0
61.00,69.36,0
64.00,68.93,0
56.00,68.36,0
48.00,67.51,0
52.00,66.32,0
70.00,65.06,0
36.00,63.83,0
43.00,62.33,0
104.00,60.99,0
57.00,60.50,0
155.00,61.21,0
263.00,64.92,0
94.00,72.03,0
127.00,79.84,0
98.00,86.82,0
77.00,92.55,0
149.00,97.16,0
206.00,102.26,0
217.00,109.17,0
106.00,116.99,0
244.00,124.61,0
105.00,132.07,0
282.00,139.46,0
263.00,148.16,0
102.00,157.39,0
108.00,163.95,0
144.00,167.32,0
154.00,168.88,0
45.00,168.60,0
113.00,165.77,0
250.00,162.44,0
76.00,160.23,0
108.00,157.48,0
113.00,153.51,0
66.00,148.73,0
100.00,143.04,0
60.00,136.66,0
92.00,129.89,0
60.00,122.95,0
42.00,115.72,0
72.00,108.17,0
60.00,100.90,0
287.00,96.00,0
52.00,94.81,0
183.00,95.50,0
48.00,96.72,0
80.00,97.42,0
136.00,97.57,0
66.00,97.92,0
91.00,97.91,0
78.00,97.37,0
93.00,96.55,0
82.00,95.59,0
114.00,94.77,0
62.00,94.09,0
62.00,92.94,0
74.00,91.14,0
71.00,89.08,0
86.00,87.06,0
86.00,85.37,0
80.00,84.06,0
113.00,83.25,0
73.00,83.01,0
62.00,82.74,0
111.00,82.35,0
89.00,82.41,0
60.00,82.61,0
50.00,82.18,0
86.00,81.17,0
112.00,80.47,0
142.00,81.02,0
125.00,83.06,0
60.00,85.60,0
66.00,87.27,0
59.00,87.73,0
123.00,87.72,0
38.00,87.64,0
87.00,87.05,0
47.00,85.86,0
110.00,84.53,0
79.00,83.58,0
127.00,83.36,0
304.00,85.70,0
130.00,91.77,0
179.00,99.50,0
120.00,107.11,0
298.00,115.28,0
74.00,124.21,0
152.00,131.83,0
79.00,137.03,0
40.00,139.34,0
192.00,139.39,0
200.00,139.98,0
77.00,141.34,0
105.00,141.50,0
118.00,140.29,0
60.00,138.03,0
96.00,134.51,0
145.00,130.68,0
52.00,127.06,0
77.00,122.80,0
110.00,118.12,0
49.00,113.52,0
102.00,108.82,0
182.00,105.25,0
86.00,103.61,0
66.00,102.41,0
138.00,101.05,0
72.00,100.10,0
122.00,99.41,0
181.00,99.71,0
87.00,101.36,0
151.00,103.44,0
224.00,106.66,0
92.00,111.30,0
170.00,115.92,0
200.00,120.82,0
85.00,125.96,0
46.00,129.16,0
90.00,129.53,0
130.00,128.47,0
250.00,128.39,0
90.00,130.03,0
47.00,130.92,0
85.00,129.50,0
37.00,126.25,0
94.00,121.70,0
68.00,116.64,0
51.00,111.25,0
122.00,105.90,0
73.00,101.37,0
147.00,98.00,0
103.00,96.10,0
91.00,95.14,0
74.00,94.24,0
270.00,94.63,0
50.00,97.30,0
122.00,100.18,0
46.00,101.87,0
114.00,102.50,0
106.00,102.74,0
363.00,105.21,0
95.00,111.25,0
101.00,117.58,0
102.00,121.80,0
153.00,124.77,0
233.00,128.20,0
198.00,133.32,0
155.00,139.28,0
158.00,144.71,0
47.00,148.32,0
119.00,149.21,0
58.00,147.82,0
115.00,144.74,0
68.00,140.56,0
70.00,135.39,0
51.00,129.13,0
70.00,122.10,0
385.00,117.48,0
97.00,117.82,0
138.00,120.13,0
173.00,122.43,0
118.00,125.10,0
65.00,126.91,0
109.00,127.05,0
100.00,126.12,0
153.00,125.06,0
66.00,124.03,0
117.00,122.46,0
35.00,119.98,0
118.00,116.66,0
136.00,113.64,0
99.00,111.64,0
63.00,109.71,0
98.00,107.28,0
241.00,106.01,0
161.00,107.68,0
116.00,111.02,0
126.00,114.17,0
57.00,116.31,0
94.00,116.84,0
36.00,115.70,0
88.00,113.11,0
76.00,109.79,0
75.00,106.24,0
114.00,102.85,0
162.00,100.70,0
169.00,100.79,0
155.00,102.93,0
121.00,106.11,0
68.00,108.86,0
118.00,110.44,0
59.00,110.99,0
121.00,110.69,0
134.00,110.40,0
132.00,110.83,0
31.00,111.04,0
110.00,110.02,0
38.00,107.99,0
110.00,105.33,0
231.00,103.87,0
98.00,104.88,0
183.00,107.22,0
158.00,110.59,0
43.00,113.99,0
104.00,115.68,0
50.00,115.63,0
86.00,114.17,0
92.00,111.88,0
68.00,109.24,0
64.00,106.03,0
69.00,102.26,0
108.00,98.58,0
47.00,95.27,0
99.00,92.09,0
37.00,88.96,0
38.00,85.39,0
79.00,81.44,0
38.00,77.67,0
50.00,73.93,0
65.00,70.32,0
42.00,67.09,0
57.00,64.12,0
180.00,62.51,0
60.00,63.19,0
54.00,64.55,0
50.00,65.24,0
53.00,65.33,0
97.00,65.33,0
59.00,65.69,0
74.00,66.19,0
138.00,67.23,0
75.00,69.31,0
48.00,71.38,0
67.00,72.55,0
71.00,73.14,0
77.00,73.53,0
56.00,73.72,0
63.00,73.50,0
66.00,72.95,0
68.00,72.30,0
44.00,71.44,0
37.00,70.02,0
55.00,68.06,0
37.00,65.85,0
112.00,63.98,0
44.00,62.96,0
47.00,62.15,0
48.00,61.01,0
70.00,59.89,0
50.00,59.03,0
63.00,58.34,0
152.00,58.61,0
69.00,60.49,0
110.00,63.21,0
91.00,66.34,0
58.00,69.41,0
81.00,71.84,0
61.00,73.62,0
96.00,75.02,0
222.00,77.52,0
73.00,81.92,0
77.00,86.25,0
67.00,89.11,0
50.00,90.50,0
87.00,90.67,0
52.00,90.08,0
73.00,88.84,0
97.00,87.40,0
44.00,85.99,0
339.00,86.39,0
92.00,90.55,0
122.00,96.05,0
120.00,100.82,0
169.00,105.50,0
78.00,110.00,0
76.00,113.10,0
139.00,114.77,0
72.00,115.75,0
82.00,115.70,0
97.00,114.57,0
35.00,112.50,0
453.00,112.33,0
81.00,116.98,0
106.00,122.62,0
62.00,125.77,0
144.00,127.09,0
47.00,127.16,0
139.00,126.12,0
202.00,125.52,0
127.00,126.48,0
122.00,127.80,0
115.00,128.59,0
230.00,129.76,0
305.00,133.63,0
109.00,140.02,0
90.00,145.30,0
68.00,147.47,0
242.00,148.11,0
157.00,149.55,0
143.00,151.48,0
234.00,153.54,0
82.00,155.75,0
43.00,155.90,0
51.00,152.66,0
138.00,147.50,0
100.00,142.23,0
61.00,136.82,0
194.00,131.62,0
153.00,128.30,0
204.00,127.37,0
209.00,128.81,0
408.00,134.16,0
139.00,143.41,0
51.00,151.79,0
130.00,156.20,0
64.00,157.52,0
120.00,156.40,0
42.00,153.25,0
126.00,148.54,0
69.00,143.05,0
93.00,137.08,0
52.00,130.56,0
126.00,123.95,0
213.00,119.12,0
131.00,117.15,0
81.00,116.37,0
118.00,115.32,0
67.00,113.88,0
93.00,111.88,0
59.00,109.23,0
94.00,106.13,0
45.00,102.68,0
78.00,98.82,0
75.00,94.90,0
44.00,91.03,0
71.00,87.01,0
91.00,83.37,0
118.00,80.92,0
167.00,80.47,0
142.00,82.41,0
40.00,85.22,0
96.00,87.17,0
49.00,88.10,0
67.00,88.03,0
60.00,87.08,0
79.00,85.68,0
38.00,83.90,0
77.00,81.69,0
78.00,79.54,0
81.00,77.87,0
71.00,76.60,0
77.00,75.59,0
52.00,74.61,0
77.00,73.52,0
45.00,72.34,0
58.00,70.92,0
78.00,69.46,0
65.00,68.37,0
38.00,67.31,0
85.00,66.14,0
37.00,65.10,0
40.00,63.79,0
70.00,62.24,0
35.00,60.78,0
37.00,59.12,0
79.00,57.46,0
239.00,57.91,0
50.00,61.37,0
144.00,65.96,0
64.00,70.59,0
90.00,74.77,0
51.00,77.91,0
48.00,79.71,0
80.00,80.30,0
96.00,80.61,0
72.00,81.02,0
78.00,81.28,0
87.00,81.39,0
86.00,81.58,0
56.00,81.64,0
56.00,81.08,0
50.00,79.77,0
57.00,77.90,0
62.00,75.78,0
54.00,73.60,0
46.00,71.30,0
61.00,68.90,0
31.00,66.45,0
37.00,63.70,0
57.00,60.85,0
41.00,58.27,0
66.00,56.07,0
54.00,54.42,0
50.00,53.21,0
40.00,52.14,0
69.00,51.25,0
47.00,50.74,0
127.00,51.06,0
127.00,53.16,0
88.00,56.87,0
74.00,60.93,0
80.00,64.61,0
65.00,67.74,0
54.00,70.06,0
133.00,72.04,0
82.00,74.49,0
61.00,76.85,0
70.00,78.37,0
55.00,79.05,0
61.00,78.94,0
82.00,78.39,0
73.00,77.84,0
51.00,77.16,0
73.00,76.14,0
54.00,74.92,0
72.00,73.61,0
42.00,72.16,0
38.00,70.27,0
38.00,67.80,0
74.00,65.24,0
37.00,62.98,0
36.00,60.70,0
40.00,58.20,0
40.00,55.66,0
49.00,53.28,0
36.00,51.15,0
50.00,49.26,0
36.00,47.61,0
54.00,46.24,0
81.00,45.53,0
88.00,46.00,0
94.00,47.75,0
78.00,50.43,0
71.00,53.46,0
84.00,56.50,0
74.00,59.52,0
69.00,62.34,0
74.00,64.79,0
72.00,66.89,0
83.00,68.77,0
80.00,70.55,0
119.00,72.56,0
77.00,74.95,0
56.00,77.01,0
74.00,78.20,0
51.00,78.63,0
59.00,78.31,0
40.00,77.20,0
87.00,75.68,0
45.00,74.17,0
50.00,72.43,0
43.00,70.28,0
68.00,68.00,0
36.00,65.80,0
55.00,63.56,0
68.00,61.53,0
42.00,59.88,0
49.00,58.31,0
52.00,56.78,0
41.00,55.34,0
90.00,54.26,0
72.00,54.07,0
57.00,54.55,0
77.00,55.28,0
78.00,56.39,0
77.00,57.93,0
123.00,60.12,0
76.00,63.10,0
60.00,66.04,0
74.00,68.32,0
71.00,70.11,0
76.00,71.56,0
120.00,73.13,0
53.00,74.95,0
52.00,76.16,0
73.00,76.45,0
49.00,76.19,0
56.00,75.36,0
77.00,74.20,0
78.00,73.24,0
76.00,72.65,0
57.00,72.16,0
52.00,71.41,0
38.00,70.13,0
35.00,68.19,0
42.00,65.70,0
72.00,63.21,0
68.00,61.34,0
70.00,60.19,0
48.00,59.44,0
143.00,59.45,0
43.00,60.62,0
74.00,62.01,0
102.00,63.44,0
100.00,65.55,0
159.00,68.80,0
119.00,73.43,0
203.00,79.47,0
227.00,87.62,0
84.00,97.06,0
146.00,105.49,0
63.00,112.04,0
34.00,115.85,0
73.00,116.58,0
108.00,115.66,0
266.00,115.73,0
106.00,118.14,0
65.00,120.55,0
68.00,120.93,0
46.00,119.26,0
43.00,115.71,0
51.00,110.71,0
48.00,104.86,0
35.00,98.44,0
39.00,91.61,0
44.00,84.70,0
36.00,78.00,0
60.00,71.78,0
56.00,66.44,0
128.00,62.65,0
74.00,60.88,0
190.00,61.40,0
39.00,63.84,0
128.00,66.86,0
43.00,69.75,0
115.00,72.35,0
72.00,74.79,0
93.00,77.08,0
83.00,79.09,0
109.00,81.04,0
80.00,83.00,0
80.00,84.62,0
64.00,85.57,0
67.00,85.74,0
58.00,85.15,0
78.00,84.05,0
64.00,82.72,0
66.00,81.24,0
36.00,79.34,0
67.00,76.97,0
60.00,74.53,0
36.00,72.05,0
86.00,69.59,0
36.00,67.44,0
39.00,65.20,0
72.00,62.88,0
37.00,60.86,0
40.00,58.85,0
76.00,56.97,0
51.00,55.67,0
38.00,54.63,0
120.00,54.07,0
138.00,55.29,0
95.00,58.47,0
76.00,62.29,0
79.00,65.83,0
79.00,68.93,0
107.00,71.86,0
64.00,74.66,0
84.00,76.95,0
72.00,78.66,0
85.00,79.95,0
82.00,80.97,0
153.00,82.39,0
80.00,84.61,0
54.00,86.54,0
77.00,87.33,0
54.00,87.20,0
67.00,86.30,0
98.00,85.13,0
44.00,83.97,0
42.00,82.19,0
85.00,79.89,0
37.00,77.56,0
37.00,74.83,0
83.00,71.89,0
36.00,69.26,0
66.00,66.79,0
59.00,64.59,0
62.00,62.81,0
52.00,61.33,0
288.00,61.93,0
97.00,66.35,0
123.00,72.52,0
109.00,78.55,0
85.00,84.05,0
69.00,88.33,0
70.00,91.09,0
63.00,92.41,0
79.00,92.64,0
59.00,92.06,0
90.00,90.95,0
67.00,89.63,0
80.00,88.17,0
67.00,86.58,0
86.00,84.99,0
62.00,83.46,0
58.00,81.75,0
41.00,79.55,0
66.00,76.96,0
64.00,74.41,0
48.00,72.01,0
65.00,69.66,0
38.00,67.36,0
316.00,67.16,0
56.00,70.79,0
177.00,76.21,0
215.00,82.97,0
146.00,91.58,0
91.00,100.04,0
414.00,109.29,0
54.00,120.74,0
157.00,131.05,0
38.00,137.89,0
141.00,141.61,0
46.00,142.79,0
103.00,141.74,0
34.00,138.62,0
130.00,134.18,0
36.00,129.10,0
99.00,123.45,0
122.00,118.02,0
108.00,113.72,0
250.00,111.53,0
96.00,112.04,0
153.00,113.63,0
84.00,115.10,0
75.00,115.68,0
83.00,114.92,0
126.00,113.57,0
108.00,112.46,0
165.00,112.09,0
110.00,112.63,0
111.00,113.41,0
84.00,113.69,0
91.00,113.21,0
61.00,111.80,0
61.00,109.31,0
112.00,106.23,0
161.00,104.07,0
83.00,103.25,0
93.00,102.70,0
167.00,102.48,0
189.00,104.01,0
152.00,107.50,0
83.00,111.35,0
38.00,113.55,0
131.00,113.87,0
155.00,114.11,0
148.00,115.40,0
170.00,117.69,0
125.00,120.61,0
39.00,122.62,0
97.00,122.58,0
99.00,121.25,0
99.00,119.49,0
274.00,118.93,0
96.00,120.70,0
89.00,122.64,0
73.00,122.93,0
79.00,121.69,0
99.00,119.45,0
59.00,116.59,0
113.00,113.28,0
64.00,109.91,0
72.00,106.30,0
79.00,102.42,0
64.00,98.52,0
87.00,94.73,0
57.00,91.15,0
150.00,88.33,0
201.00,87.90,0
99.00,90.05,0
163.00,93.34,0
194.00,97.89,0
79.00,103.31,0
123.00,107.94,0
35.00,110.87,0
126.00,112.07,0
50.00,112.05,0
108.00,111.09,0
38.00,109.19,0
127.00,106.71,0
78.00,104.36,0
92.00,102.22,0
286.00,101.75,0
147.00,104.71,0
202.00,109.95,0
122.00,115.85,0
66.00,120.75,0
136.00,123.70,0
71.00,125.24,0
144.00,125.75,0
58.00,125.43,0
98.00,124.00,0
66.00,121.45,0
80.00,118.07,0
59.00,113.96,0
41.00,109.04,0
111.00,103.78,0
203.00,100.20,0
59.00,98.92,0
227.00,99.20,0
474.00,104.28,0
84.00,115.09,0
115.00,125.75,0
68.00,132.84,0
67.00,136.46,0
35.00,136.65,0
88.00,134.15,0
36.00,129.85,0
100.00,124.43,0
90.00,118.89,0
129.00,114.13,0
36.00,109.92,0
72.00,105.33,0
95.00,100.64,0
100.00,96.74,0
64.00,93.55,0
58.00,90.39,0
42.00,86.83,0
59.00,82.92,0
41.00,78.86,0
42.00,74.68,0
48.00,70.47,0
42.00,66.42,0
36.00,62.54,0
40.00,58.79,0
54.00,55.41,0
41.00,52.57,0
73.00,50.40,0
62.00,49.14,0
60.00,48.68,0
92.00,48.98,0
100.00,50.44,0
63.00,52.81,0
42.00,55.09,0
70.00,56.78,0
128.00,58.76,0
210.00,62.74,0
92.00,69.00,0
72.00,75.32,0
76.00,80.22,0
211.00,84.89,0
77.00,90.40,0
75.00,95.23,0
73.00,98.23,0
87.00,99.80,0
51.00,100.16,0
43.00,99.05,0
82.00,96.73,0
50.00,93.90,0
45.00,90.52,0
130.00,87.19,0
35.00,84.59,0
38.00,81.79,0
88.00,78.61,0
47.00,75.75,0
39.00,72.90,0
77.00,69.99,0
46.00,67.45,0
39.00,65.00,0
195.00,63.62,0
86.00,64.72,0
58.00,66.93,0
164.00,69.42,0
56.00,72.67,0
51.00,75.44,0
156.00,77.64,0
106.00,80.62,0
90.00,84.01,0
80.00,86.84,0
59.00,88.65,0
68.00,89.30,0
105.00,89.33,0
102.00,89.53,0
119.00,90.27,0
69.00,91.22,0
49.00,91.46,0
54.00,90.44,0
72.00,88.57,0
52.00,86.30,0
63.00,83.69,0
75.00,81.04,0
38.00,78.41,0
35.00,75.36,0
69.00,72.01,0
42.00,68.86,0
46.00,65.84,0
146.00,63.68,0
72.00,63.31,0
38.00,63.66,0
119.00,64.02,0
62.00,64.97,0
64.00,66.09,0
136.00,67.44,0
107.00,69.91,0
57.00,72.84,0
79.00,75.14,0
62.00,76.69,0
79.00,77.66,0
120.00,78.64,0
72.00,80.01,0
88.00,81.32,0
67.00,82.23,0
65.00,82.58,0
62.00,82.25,0
72.00,81.44,0
73.00,80.44,0
49.00,79.23,0
69.00,77.66,0
49.00,75.86,0
38.00,73.68,0
64.00,71.15,0
55.00,68.70,0
37.00,66.31,0
48.00,63.76,0
35.00,61.11,0
41.00,58.39,0
62.00,55.87,0
60.00,53.97,0
82.00,52.93,0
104.00,53.10,0
80.00,54.53,0
67.00,56.56,0
60.00,58.50,0
70.00,60.16,0
96.00,61.88,0
109.00,64.21,0
66.00,66.99,0
78.00,69.53,0
69.00,71.57,0
87.00,73.25,0
58.00,74.60,0
100.00,75.66,0
74.00,76.71,0
57.00,77.49,0
67.00,77.63,0
49.00,77.15,0
51.00,76.02,0
58.00,74.38,0
45.00,72.43,0
37.00,70.08,0
50.00,67.37,0
34.00,64.51,0
36.00,61.46,0
47.00,58.38,0
34.00,55.47,0
35.00,52.65,0
51.00,50.06,0
53.00,48.00,0
124.00,47.17,0
72.00,48.07,0
78.00,50.04,0
126.00,52.79,0
70.00,56.46,0
56.00,60.05,0
124.00,63.31,0
84.00,66.91,0
77.00,70.48,0
68.00,73.39,0
87.00,75.66,0
68.00,77.44,0
61.00,78.59,0
48.00,78.83,0
79.00,78.36,0
35.00,77.40,0
92.00,76.11,0
48.00,74.82,0
62.00,73.43,0
47.00,71.75,0
38.00,69.72,0
39.00,67.21,0
60.00,64.53,0
47.00,62.07,0
36.00,59.72,0
90.00,57.69,0
40.00,56.35,0
36.00,55.18,0
75.00,54.01,0
39.00,53.20,0
50.00,52.50,0
161.00,52.70,0
72.00,54.77,0
40.00,57.38,0
80.00,59.39,0
81.00,61.27,0
65.00,63.21,0
108.00,65.23,0
62.00,67.45,0
90.00,69.56,0
83.00,71.55,0
77.00,73.45,0
64.00,74.96,0
41.00,75.66,0
64.00,75.41,0
91.00,74.89,0
83.00,74.73,0
63.00,74.79,0
58.00,74.56,0
43.00,73.76,0
66.00,72.45,0
36.00,70.81,0
99.00,69.18,0
68.00,68.15,0
40.00,67.38,0
41.00,66.13,0
50.00,64.41,0
49.00,62.55,0
40.00,60.62,0
100.00,59.04,0
35.00,58.16,0
47.00,57.37,0
154.00,57.20,0
40.00,58.46,0
62.00,59.93,0
80.00,61.09,0
63.00,62.30,0
77.00,63.50,0
150.00,65.35,0
60.00,68.19,0
89.00,71.07,0
80.00,73.53,0
121.00,76.03,0
87.00,78.80,0
134.00,81.84,0
92.00,85.14,0
72.00,88.06,0
84.00,90.00,0
52.00,90.92,0
73.00,90.76,0
66.00,89.82,0
61.00,88.33,0
35.00,86.12,0
79.00,83.34,0
41.00,80.40,0
48.00,77.24,0
74.00,74.03,0
41.00,71.10,0
45.00,68.19,0
141.00,65.96,0
54.00,65.25,0
44.00,64.98,0
92.00,64.56,0
56.00,64.45,0
69.00,64.49,0
120.00,64.99,0
57.00,66.24,0
79.00,67.59,0
66.00,68.70,0
79.00,69.67,0
82.00,70.63,0
108.00,71.93,0
88.00,73.73,0
74.00,75.62,0
78.00,77.15,0
61.00,78.17,0
53.00,78.46,0
84.00,78.15,0
67.00,77.72,0
50.00,77.04,0
61.00,75.86,0
40.00,74.21,0
55.00,72.10,0
71.00,69.95,0
42.00,67.98,0
46.00,65.89,0
51.00,63.65,0
36.00,61.37,0
37.00,58.93,0
90.00,56.78,0
65.00,55.60,0
39.00,55.01,0
103.00,54.76,0
67.00,55.36,0
35.00,56.23,0
64.00,56.69,0
64.00,57.04,0
50.00,57.42,0
131.00,58.25,0
54.00,59.98,0
68.00,61.84,0
52.00,63.22,0
110.00,64.50,0
50.00,66.00,0
90.00,67.44,0
50.00,68.62,0
68.00,69.38,0
70.00,69.77,0
50.00,69.90,0
84.00,69.78,0
105.00,70.05,0
57.00,70.85,0
38.00,71.23,0
34.00,70.56,0
63.00,69.11,0
40.00,67.38,0
38.00,65.33,0
76.00,63.21,0
34.00,61.35,0
38.00,59.42,0
88.00,57.63,0
36.00,56.42,0
34.00,55.25,0
112.00,54.31,0
71.00,54.51,0
41.00,55.30,0
107.00,56.22,0
64.00,57.69,0
78.00,59.48,0
75.00,61.32,0
54.00,63.02,0
68.00,64.30,0
88.00,65.44,0
114.00,67.11,0
36.00,69.07,0
64.00,70.34,0
58.00,70.82,0
112.00,71.26,0
59.00,72.05,0
120.00,73.16,0
42.00,74.41,0
37.00,74.89,0
87.00,74.47,0
66.00,73.97,0
83.00,73.65,0
66.00,73.43,0
59.00,73.10,0
46.00,72.33,0
69.00,71.18,0
38.00,69.79,0
42.00,67.97,0
137.00,66.48,0
86.00,66.47,0
50.00,67.22,0
104.00,67.97,0
89.00,69.16,0
42.00,70.45,0
38.00,70.85,0
42.00,70.14,0
48.00,68.68,0
108.00,67.34,0
76.00,66.90,0
104.00,67.37,0
78.00,68.49,0
99.00,70.03,0
65.00,71.71,0
62.00,73.02,0
101.00,74.00,0
61.00,74.98,0
88.00,75.82,0
112.00,76.83,0
61.00,78.15,0
70.00,79.07,0
67.00,79.38,0
51.00,79.10,0
72.00,78.27,0
40.00,76.99,0
66.00,75.28,0
42.00,73.26,0
52.00,70.97,0
55.00,68.55,0
33.00,66.05,0
36.00,63.26,0
45.00,60.29,0
65.00,57.62,0
53.00,55.57,0
69.00,54.16,0
50.00,53.29,0
67.00,52.82,0
55.00,52.69,0
71.00,52.90,0
100.00,53.77,0
77.00,55.53,0
87.00,57.85,0
86.00,60.49,0
64.00,63.16,0
70.00,65.46,0
84.00,67.42,0
71.00,69.23,0
73.00,70.79,0
78.00,72.08,0
65.00,73.10,0
68.00,73.74,0
124.00,74.47,0
69.00,75.75,0
38.00,76.70,0
85.00,76.78,0
39.00,76.36,0
41.00,75.18,0
70.00,73.38,0
39.00,71.41,0
102.00,69.61,0
55.00,68.41,0
37.00,67.29,0
35.00,65.57,0
101.00,63.82,0
39.00,62.65,0
51.00,61.60,0
191.00,61.50,0
94.00,63.77,0
78.00,67.17,0
66.00,70.14,0
111.00,72.73,0
69.00,75.25,0
111.00,77.65,0
86.00,80.03,0
102.00,82.37,0
62.00,84.33,0
81.00,85.58,0
61.00,86.05,0
145.00,86.44,0
83.00,87.47,0
38.00,88.24,0
73.00,87.83,0
65.00,86.67,0
64.00,85.13,0
72.00,83.34,0
52.00,81.37,0
37.00,78.94,0
84.00,76.22,0
35.00,73.62,0
47.00,70.86,0
66.00,68.04,0
37.00,65.43,0
49.00,62.85,0
88.00,60.65,0
54.00,59.28,0
36.00,58.20,0
66.00,57.04,0
51.00,56.08,0
47.00,55.28,0
98.00,54.84,0
109.00,55.61,0
115.00,57.93,0
90.00,61.32,0
39.00,64.63,0
82.00,67.07,0
120.00,69.39,0
42.00,71.86,0
100.00,73.88,0
97.00,75.77,0
74.00,77.74,0
72.00,79.29,0
42.00,80.00,0
60.00,79.67,0
43.00,78.49,0
48.00,76.60,0
46.00,74.14,0
62.00,71.50,0
79.00,69.18,0
66.00,67.50,0
63.00,66.26,0
104.00,65.57,0
60.00,65.61,0
108.00,66.23,0
87.00,67.50,0
44.00,68.93,0
66.00,69.74,0
60.00,69.99,0
67.00,69.96,0
70.00,69.80,0
38.00,69.40,0
107.00,68.90,0
90.00,69.06,0
79.00,69.92,0
62.00,70.83,0
90.00,71.60,0
80.00,72.48,0
75.00,73.44,0
58.00,74.12,0
67.00,74.32,0
83.00,74.29,0
55.00,74.19,0
68.00,73.82,0
74.00,73.28,0
44.00,72.60,0
51.00,71.45,0
61.00,69.92,0
38.00,68.19,0
42.00,66.10,0
35.00,63.63,0
39.00,60.90,0
48.00,58.14,0
36.00,55.53,0
36.00,53.01,0
51.00,50.65,0
57.00,48.80,0
74.00,47.75,0
61.00,47.57,0
50.00,47.89,0
69.00,48.45,0
53.00,49.27,0
62.00,50.22,0
107.00,51.63,0
65.00,53.82,0
123.00,56.66,0
87.00,60.25,0
94.00,64.21,0
63.00,67.90,0
78.00,70.91,0
75.00,73.29,0
61.00,75.06,0
83.00,76.24,0
77.00,77.13,0
82.00,77.90,0
38.00,78.21,0
74.00,77.78,0
72.00,77.02,0
40.00,76.02,0
82.00,74.69,0
157.00,74.20,0
35.00,74.95,0
55.00,75.38,0
43.00,74.77,0
36.00,73.28,0
69.00,71.25,0
46.00,69.16,0
68.00,67.19,0
62.00,65.48,0
75.00,64.22,0
39.00,63.22,0
72.00,62.22,0
73.00,61.53,0
61.00,61.27,0
127.00,61.70,0
70.00,63.18,0
75.00,65.04,0
74.00,66.74,0
133.00,68.76,0
79.00,71.48,0
142.00,74.76,0
64.00,78.31,0
127.00,81.70,0
124.00,85.22,0
83.00,88.87,0
86.00,91.81,0
155.00,94.39,0
72.00,97.10,0
97.00,99.23,0
128.00,100.81,0
59.00,102.09,0
53.00,102.16,0
139.00,101.34,0
82.00,100.78,0
71.00,100.12,0
368.00,101.18,0
162.00,106.62,0
206.00,114.65,0
71.00,122.29,0
70.00,127.51,0
129.00,130.05,0
40.00,130.72,0
112.00,129.58,0
38.00,126.92,0
107.00,123.14,0
44.00,118.63,0
98.00,113.71,0
76.00,108.82,0
66.00,104.12,0
62.00,99.33,0
59.00,94.47,0
50.00,89.55,0
47.00,84.55,0
85.00,79.84,0
85.00,76.13,0
69.00,73.46,0
91.00,71.60,0
78.00,70.53,0
70.00,70.02,0
57.00,69.58,0
54.00,68.92,0
48.00,67.89,0
61.00,66.61,0
40.00,65.17,0
96.00,63.88,0
115.00,63.66,0
60.00,64.57,0
69.00,65.64,0
36.00,66.21,0
90.00,66.37,0
73.00,66.68,0
79.00,67.31,0
53.00,67.92,0
74.00,68.27,0
125.00,68.98,0
72.00,70.50,0
78.00,72.20,0
44.00,73.35,0
115.00,74.13,0
100.00,75.36,0
63.00,76.93,0
82.00,78.13,0
61.00,78.83,0
89.00,79.18,0
118.00,79.78,0
102.00,81.12,0
39.00,82.45,0
82.00,82.90,0
39.00,82.50,0
69.00,81.37,0
75.00,79.90,0
52.00,78.38,0
62.00,76.63,0
53.00,74.65,0
46.00,72.45,0
117.00,70.54,0
64.00,69.60,0
37.00,68.92,0
51.00,67.68,0
44.00,66.02,0
45.00,64.08,0
39.00,61.93,0
78.00,59.91,0
155.00,59.29,0
52.00,60.50,0
65.00,62.10,0
43.00,63.11,0
95.00,63.83,0
86.00,64.90,0
67.00,66.33,0
80.00,67.70,0
162.00,69.72,0
93.00,73.07,0
70.00,76.65,0
92.00,79.52,0
47.00,81.56,0
110.00,82.87,0
58.00,83.81,0
91.00,84.37,0
41.00,84.33,0
65.00,83.48,0
34.00,81.77,0
61.00,79.36,0
112.00,77.13,0
175.00,76.67,0
40.00,77.96,0
64.00,78.99,0
39.00,78.87,0
38.00,77.65,0
70.00,75.68,0
36.00,73.46,0
73.00,71.12,0
127.00,69.56,0
58.00,69.24,0
63.00,69.23,0
74.00,69.07,0
68.00,68.97,0
75.00,68.97,0
154.00,69.76,0
57.00,71.70,0
112.00,73.94,0
113.00,76.45,0
49.00,79.04,0
81.00,80.80,0
96.00,82.02,0
89.00,83.22,0
52.00,84.07,0
93.00,84.30,0
51.00,84.09,0
70.00,83.33,0
80.00,82.24,0
70.00,81.17,0
38.00,79.81,0
162.00,78.69,0
36.00,78.51,0
91.00,78.47,0
104.00,78.51,0
50.00,78.83,0
38.00,78.47,0
55.00,77.10,0
74.00,75.35,0
50.00,73.62,0
72.00,71.90,0
41.00,70.17,0
64.00,68.33,0
68.00,66.63,0
108.00,65.68,0
60.00,65.63,0
98.00,66.12,0
136.00,67.54,0
52.00,69.88,0
109.00,72.24,0
92.00,74.63,0
60.00,76.90,0
77.00,78.47,0
53.00,79.28,0
89.00,79.52,0
54.00,79.43,0
96.00,79.16,0
59.00,78.85,0
69.00,78.35,0
38.00,77.32,0
48.00,75.58,0
87.00,73.59,0
60.00,71.97,0
50.00,70.48,0
75.00,68.97,0
57.00,67.66,0
43.00,66.35,0
78.00,64.98,0
37.00,63.74,0
68.00,62.52,0
94.00,61.72,0
69.00,61.76,0
38.00,61.98,0
73.00,61.90,0
73.00,61.92,0
41.00,62.03,0
69.00,61.92,0
74.00,61.88,0
112.00,62.52,0
77.00,64.04,0
93.00,66.03,0
72.00,68.14,0
79.00,70.11,0
80.00,71.84,0
72.00,73.36,0
64.00,74.46,0
61.00,75.00,0
50.00,74.88,0
60.00,74.14,0
66.00,73.08,0
60.00,71.95,0
60.00,70.74,0
50.00,69.38,0
40.00,67.71,0
47.00,65.68,0
84.00,63.76,0
36.00,62.26,0
35.00,60.65,0
81.00,58.97,0
37.00,57.68,0
60.00,56.57,0
57.00,55.62,0
70.00,55.08,0
54.00,54.93,0
63.00,54.98,0
76.00,55.32,0
73.00,56.13,0
92.00,57.48,0
96.00,59.53,0
73.00,62.06,0
72.00,64.53,0
89.00,66.80,0
120.00,69.38,0
126.00,72.80,0
70.00,76.64,0
116.00,80.19,0
76.00,83.35,0
68.00,85.78,0
49.00,86.95,0
70.00,86.92,0
90.00,86.33,0
59.00,85.59,0
80.00,84.57,0
43.00,83.16,0
58.00,81.19,0
77.00,78.96,0
68.00,76.97,0
35.00,74.96,0
35.00,72.39,0
45.00,69.29,0
93.00,66.44,0
45.00,64.36,0
88.00,62.89,0
64.00,62.05,0
96.00,61.93,0
76.00,62.55,0
44.00,63.35,0
42.00,63.58,0
121.00,63.71,0
79.00,64.70,0
88.00,66.35,0
71.00,68.10,0
177.00,70.54,0
74.00,74.19,0
81.00,77.86,0
92.00,80.79,0
68.00,83.09,0
76.00,84.61,0
69.00,85.37,0
68.00,85.45,0
64.00,84.90,0
76.00,83.93,0
40.00,82.53,0
56.00,80.48,0
53.00,77.96,0
42.00,75.16,0
113.00,72.62,0
62.00,71.01,0
41.00,69.73,0
54.00,68.10,0
91.00,66.59,0
35.00,65.48,0
40.00,64.13,0
70.00,62.52,0
77.00,61.35,0
61.00,60.79,0
61.00,60.51,0
60.00,60.29,0
70.00,60.22,0
92.00,60.58,0
44.00,61.32,0
84.00,62.03,0
74.00,62.89,0
86.00,64.08,0
66.00,65.45,0
102.00,66.97,0
59.00,68.64,0
80.00,70.11,0
85.00,71.42,0
62.00,72.64,0
65.00,73.43,0
51.00,73.61,0
68.00,73.26,0
41.00,72.45,0
58.00,71.16,0
35.00,69.41,0
67.00,67.39,0
38.00,65.34,0
50.00,63.21,0
80.00,61.31,0
37.00,59.87,0
64.00,58.60,0
173.00,58.49,0
60.00,60.35,0
86.00,62.89,0
73.00,65.27,0
62.00,67.35,0
65.00,68.87,0
125.00,70.36,0
71.00,72.37,0
71.00,74.30,0
83.00,75.75,0
81.00,76.98,0
60.00,77.89,0
66.00,78.22,0
48.00,77.87,0
72.00,76.95,0
72.00,75.90,0
74.00,74.98,0
180.00,75.11,0
57.00,76.79,0
81.00,78.62,0
56.00,79.69,0
74.00,80.08,0
60.00,79.91,0
40.00,79.07,0
37.00,77.29,0
93.00,75.09,0
41.00,73.11,0
49.00,71.05,0
94.00,69.06,0
42.00,67.57,0
34.00,65.96,0
106.00,64.34,0
87.00,63.74,0
50.00,63.90,0
77.00,64.09,0
67.00,64.36,0
69.00,64.75,0
134.00,65.71,0
71.00,67.63,0
80.00,69.79,0
66.00,71.59,0
72.00,72.93,0
78.00,73.92,0
144.00,75.30,0
62.00,77.40,0
62.00,79.17,0
76.00,80.05,0
106.00,80.73,0
105.00,81.82,0
64.00,83.08,0
70.00,83.79,0
84.00,83.94,0
135.00,84.37,0
76.00,85.45,0
61.00,86.32,0
165.00,87.13,0
53.00,88.54,0
50.00,89.33,0
74.00,88.84,0
45.00,87.55,0
39.00,85.36,0
40.00,82.22,0
66.00,78.64,0
37.00,75.06,0
40.00,71.34,0
66.00,67.67,0
55.00,64.52,0
66.00,61.99,0
121.00,60.56,0
58.00,60.50,0
96.00,61.20,0
72.00,62.37,0
66.00,63.73,0
78.00,64.99,0
153.00,66.89,0
96.00,70.12,0
95.00,73.88,0
77.00,77.30,0
77.00,80.04,0
57.00,81.85,0
93.00,82.87,0
65.00,83.45,0
47.00,83.35,0
56.00,82.30,0
44.00,80.46,0
42.00,77.94,0
58.00,74.99,0
55.00,72.02,0
40.00,69.10,0
43.00,66.07,0
42.00,62.96,0
35.00,59.87,0
55.00,56.91,0
45.00,54.36,0
38.00,52.13,0
50.00,50.13,0
54.00,48.54,0
58.00,47.51,0
71.00,47.15,0
59.00,47.45,0
72.00,48.27,0
94.00,49.75,0
72.00,51.97,0
97.00,54.71,0
68.00,57.75,0
82.00,60.75,0
72.00,63.53,0
81.00,66.09,0
76.00,68.41,0
133.00,70.93,0
85.00,74.03,0
72.00,77.04,0
84.00,79.36,0
88.00,81.22,0
70.00,82.67,0
55.00,83.39,0
64.00,83.19,0
43.00,82.16,0
39.00,80.22,0
70.00,77.67,0
44.00,75.02,0
34.00,72.10,0
101.00,69.26,0
49.00,67.17,0
75.00,65.62,0
64.00,64.45,0
58.00,63.59,0
82.00,63.00,0
99.00,63.11,0
68.00,63.99,0
78.00,65.12,0
63.00,66.20,0
89.00,67.25,0
55.00,68.28,0
73.00,69.04,0
74.00,69.62,0
54.00,70.03,0
83.00,70.21,0
78.00,70.49,0
68.00,70.91,0
68.00,71.22,0
66.00,71.33,0
69.00,71.28,0
64.00,71.10,0
75.00,70.86,0
60.00,70.60,0
52.00,70.11,0
62.00,69.29,0
122.00,68.83,0
69.00,69.31,0
57.00,70.00,0
36.00,70.02,0
37.00,69.09,0
45.00,67.37,0
47.00,65.27,0
60.00,63.16,0
66.00,61.39,0
52.00,60.04,0
60.00,58.93,0
151.00,58.80,0
54.00,60.21,0
53.00,61.87,0
105.00,63.28,0
95.00,65.22,0
69.00,67.55,0
60.00,69.51,0
99.00,71.08,0
124.00,73.09,0
75.00,75.68,0
91.00,78.17,0
78.00,80.24,0
46.00,81.58,0
72.00,81.90,0
128.00,82.06,0
68.00,82.75,0
106.00,83.59,0
71.00,84.37,0
44.00,84.59,0
54.00,83.72,0
78.00,82.19,0
48.00,80.43,0
39.00,78.20,0
60.00,75.45,0
38.00,72.49,0
47.00,69.35,0
53.00,66.21,0
36.00,63.19,0
42.00,60.18,0
45.00,57.27,0
56.00,54.72,0
84.00,52.97,0
80.00,52.40,0
133.00,53.36,0
57.00,55.67,0
54.00,58.07,0
84.00,60.03,0
116.00,62.33,0
52.00,65.07,0
61.00,67.32,0
83.00,68.94,0
52.00,70.19,0
54.00,70.81,0
87.00,70.98,0
56.00,71.11,0
78.00,71.14,0
72.00,71.17,0
56.00,71.13,0
94.00,71.05,0
47.00,71.04,0
41.00,70.58,0
110.00,69.87,0
48.00,69.58,0
39.00,69.08,0
37.00,67.76,0
61.00,65.97,0
37.00,64.04,0
60.00,62.07,0
103.00,60.67,0
37.00,60.11,0
58.00,59.64,0
59.00,59.06,0
60.00,58.62,0
67.00,58.38,0
78.00,58.52,0
46.00,58.91,0
49.00,59.07,0
97.00,59.23,0
136.00,60.52,0
80.00,63.19,0
168.00,66.97,0
81.00,71.73,0
128.00,76.76,0
120.00,81.82,0
80.00,86.67,0
120.00,90.80,0
149.00,94.80,0
111.00,99.09,0
121.00,103.13,0
284.00,108.06,0
268.00,116.12,0
88.00,125.95,0
164.00,134.29,0
192.00,141.21,0
90.00,147.07,0
88.00,150.48,0
64.00,150.82,0
120.00,148.87,0
180.00,146.47,0
66.00,144.31,0
148.00,141.71,0
72.00,138.63,0
66.00,134.67,0
93.00,129.67,0
106.00,124.55,0
82.00,119.73,0
88.00,115.08,0
180.00,111.36,0
108.00,109.44,0
375.00,110.74,0
132.00,116.25,0
206.00,123.56,0
256.00,131.66,0
72.00,140.00,0
74.00,145.64,0
178.00,148.40,0
70.00,149.73,0
143.00,149.60,0
81.00,148.17,0
127.00,145.74,0
198.00,143.49,0
53.00,141.79,0
73.00,138.94,0
64.00,134.35,0
47.00,128.49,0
43.00,121.46,0
129.00,114.27,0
98.00,108.33,0
52.00,103.35,0
299.00,100.29,0
43.00,100.40,0
41.00,100.68,0
76.00,99.24,0
138.00,97.60,0
49.00,96.44,0
58.00,94.80,0
65.00,92.32,0
57.00,89.40,0
62.00,86.23,0
84.00,83.15,0
73.00,80.57,0
82.00,78.52,0
41.00,76.67,0
97.00,74.88,0
277.00,75.30,0
158.00,79.78,0
188.00,86.99,0
155.00,95.26,0
63.00,103.05,0
131.00,108.97,0
67.00,113.11,0
106.00,115.57,0
100.00,116.75,0
82.00,117.00,0
55.00,115.97,0
80.00,113.59,0
36.00,110.10,0
38.00,105.39,0
46.00,99.60,0
44.00,93.35,0
71.00,87.21,0
47.00,81.59,0
60.00,76.48,0
57.00,71.92,0
38.00,67.83,0
125.00,64.61,0
62.00,62.91,0
85.00,62.31,0
66.00,62.24,0
90.00,62.68,0
74.00,63.58,0
83.00,64.81,0
64.00,66.12,0
58.00,67.15,0
60.00,67.70,0
84.00,68.04,0
64.00,68.47,0
382.00,71.45,0
70.00,78.75,0
40.00,86.34,0
68.00,91.06,0
78.00,93.74,0
49.00,94.94,0
53.00,94.62,0
53.00,92.97,0
45.00,90.33,0
34.00,86.79,0
60.00,82.66,0
48.00,78.46,0
49.00,74.36,0
69.00,70.57,0
64.00,67.43,0
39.00,64.77,0
63.00,62.30,0
53.00,60.16,0
52.00,58.38,0
87.00,57.11,0
62.00,56.63,0
73.00,56.75,0
53.00,57.12,0
68.00,57.55,0
88.00,58.27,0
71.00,59.49,0
63.00,60.87,0
66.00,62.07,0
68.00,63.12,0
82.00,64.17,0
46.00,65.14,0
349.00,68.03,0
57.00,74.63,0
48.00,81.40,0
49.00,85.52,0
51.00,87.45,0
58.00,87.75,0
64.00,86.99,0
192.00,86.65,0
40.00,87.59,0
44.00,88.02,0
38.00,86.81,0
44.00,84.39,0
42.00,81.15,0
42.00,77.40,0
44.00,73.41,0
70.00,69.60,0
61.00,66.42,0
59.00,63.89,0
61.00,61.84,0
64.00,60.26,0
61.00,59.13,0
76.00,58.49,0
61.00,58.34,0
63.00,58.45,0
60.00,58.65,0
69.00,58.94,0
59.00,59.34,0
118.00,60.20,0
77.00,61.94,0
69.00,64.03,0
78.00,65.93,0
71.00,67.63,0
92.00,69.27,0
67.00,70.89,0
71.00,72.23,0
36.00,72.89,0
60.00,72.65,0
36.00,71.65,0
64.00,70.15,0
104.00,68.90,0
42.00,68.27,0
35.00,67.38,0
75.00,66.02,0
44.00,64.70,0
110.00,63.81,0
59.00,63.69,0
48.00,63.78,0
56.00,63.48,0
100.00,63.30,0
77.00,63.83,0
62.00,64.74,0
64.00,65.48,0
75.00,66.07,0
75.00,66.72,0
83.00,67.55,0
36.00,68.24,0
71.00,68.38,0
60.00,68.19,0
38.00,67.68,0
67.00,66.74,0
115.00,66.19,0
68.00,66.60,0
49.00,67.19,0
65.00,67.33,0
41.00,67.03,0
61.00,66.30,0
43.00,65.26,0
57.00,63.99,0
35.00,62.51,0
63.00,60.88,0
39.00,59.29,0
34.00,57.56,0
40.00,55.56,0
45.00,53.52,0
46.00,51.66,0
50.00,50.08,0
41.00,48.77,0
48.00,47.65,0
36.00,46.66,0
58.00,45.83,0
57.00,45.41,0
81.00,45.68,0
71.00,46.78,0
71.00,48.50,0
72.00,50.56,0
73.00,52.83,0
56.00,55.08,0
52.00,56.93,0
65.00,58.31,0
81.00,59.60,0
132.00,61.59,0
63.00,64.42,0
77.00,67.22,0
44.00,69.29,0
88.00,70.66,0
57.00,71.66,0
51.00,72.13,0
48.00,71.82,0
39.00,70.76,0
37.00,68.95,0
56.00,66.69,0
36.00,64.30,0
44.00,61.78,0
41.00,59.19,0
35.00,56.60,0
38.00,53.99,0
56.00,51.60,0
43.00,49.67,0
114.00,48.68,0
51.00,48.98,0
62.00,49.89,0
66.00,50.93,0
92.00,52.40,0
56.00,54.32,0
74.00,56.28,0
74.00,58.21,0
69.00,60.16,0
56.00,61.87,0
101.00,63.45,0
68.00,65.25,0
215.00,68.20,0
68.00,72.84,0
58.00,77.34,0
38.00,80.04,0
53.00,80.99,0
51.00,80.65,0
54.00,79.44,0
73.00,77.81,0
61.00,76.16,0
49.00,74.40,0
43.00,72.28,0
39.00,69.72,0
36.00,66.76,0
36.00,63.52,0
37.00,60.15,0
43.00,56.87,0
40.00,53.84,0
38.00,51.09,0
69.00,48.84,0
58.00,47.45,0
65.00,46.88,0
72.00,47.06,0
