221.00,146.21,0
231.00,158.06,0
267.00,169.72,0
307.00,181.85,0
260.00,194.49,0
238.00,206.48,0
270.00,217.08,0
263.00,226.57,0
230.00,234.76,0
274.00,241.47,0
197.00,246.64,0
216.00,249.70,0
131.00,250.04,0
139.00,247.10,0
116.00,241.00,0
127.00,232.49,0
37.00,221.69,0
59.00,208.22,0
40.00,192.67,0
65.00,176.15,0
125.00,160.19,0
119.00,146.36,0
177.00,135.48,0
222.00,128.52,0
185.00,125.69,0
223.00,126.11,0
247.00,129.56,0
243.00,135.83,0
285.00,144.52,0
275.00,155.41,0
294.00,167.89,0
274.00,181.20,0
267.00,194.52,0
246.00,206.92,0
277.00,218.07,0
228.00,227.83,0
255.00,235.88,0
178.00,241.76,0
226.00,245.15,0
152.00,246.09,0
150.00,244.30,0
98.00,239.39,0
100.00,231.39,0
53.00,220.55,0
69.00,207.26,0
46.00,192.23,0
61.00,176.27,0
127.00,160.76,0
110.00,147.16,0
160.00,136.17,0
138.00,128.02,0
198.00,122.83,0
223.00,121.13,0
248.00,123.20,0
258.00,128.82,0
280.00,137.51,0
293.00,148.77,0
267.00,161.77,0
260.00,175.31,0
251.00,188.38,0
253.00,200.48,0
270.00,211.54,0
236.00,221.46,0
259.00,229.95,0
214.00,236.80,0
210.00,241.58,0
186.00,244.02,0
206.00,244.33,0
100.00,242.26,0
108.00,236.96,0
52.00,228.13,0
33.00,215.90,0
72.00,201.06,0
75.00,185.21,0
74.00,169.50,0
58.00,154.27,0
118.00,140.14,0
114.00,128.14,0
162.00,118.99,0
97.00,112.52,0
212.00,108.56,0
196.00,107.90,0
243.00,110.87,0
255.00,117.23,0
249.00,126.46,0
259.00,137.73,0
272.00,150.33,0
241.00,163.58,0
274.00,176.75,0
268.00,189.65,0
314.00,202.47,0
241.00,214.90,0
268.00,226.04,0
229.00,235.35,0
224.00,242.49,0
175.00,246.94,0
192.00,248.49,0
130.00,247.11,0
164.00,243.00,0
54.00,236.07,0
129.00,226.31,0
66.00,214.55,0
68.00,201.19,0
35.00,186.34,0
51.00,170.46,0
91.00,154.64,0
104.00,140.28,0
127.00,128.25,0
158.00,119.12,0
198.00,113.54,0
172.00,111.54,0
241.00,112.80,0
220.00,117.23,0
238.00,124.36,0
254.00,133.51,0
241.00,144.22,0
259.00,155.82,0
265.00,167.95,0
279.00,180.43,0
303.00,193.24,0
256.00,206.04,0
238.00,217.65,0
199.00,226.98,0
213.00,233.56,0
210.00,237.74,0
201.00,239.95,0
186.00,240.30,0
170.00,238.73,0
115.00,234.93,0
127.00,228.66,0
49.00,219.73,0
72.00,208.15,0
43.00,194.43,0
33.00,179.18,0
70.00,163.13,0
75.00,147.60,0
94.00,133.52,0
100.00,121.41,0
147.00,111.83,0
148.00,105.35,0
201.00,102.30,0
220.00,102.98,0
226.00,107.27,0
239.00,114.58,0
244.00,124.16,0
258.00,135.49,0
280.00,148.19,0
230.00,161.62,0
242.00,174.59,0
236.00,186.53,0
252.00,197.42,0
236.00,207.24,0
260.00,215.98,0
198.00,223.36,0
206.00,228.71,0
177.00,231.70,0
163.00,232.28,0
141.00,230.35,0
110.00,225.84,0
93.00,218.70,0
85.00,209.16,0
51.00,197.58,0
35.00,184.08,0
90.00,169.44,0
101.00,155.32,0
114.00,142.81,0
101.00,132.14,0
156.00,123.56,0
195.00,117.99,0
205.00,116.05,0
250.00,117.87,0
266.00,123.36,0
263.00,132.07,0
237.00,142.80,0
269.00,154.55,0
289.00,167.16,0
260.00,180.37,0
286.00,193.50,0
254.00,206.05,0
261.00,217.50,0
201.00,227.09,0
262.00,234.50,0
211.00,240.11,0
231.00,243.99,0
185.00,245.94,0
171.00,245.67,0
107.00,242.58,0
138.00,236.51,0
51.00,227.64,0
120.00,216.35,0
51.00,203.45,0
31.00,188.98,0
98.00,173.50,0
55.00,158.34,0
87.00,144.02,0
102.00,131.11,0
177.00,120.85,0
206.00,114.52,0
241.00,112.78,0
221.00,115.23,0
241.00,120.90,0
264.00,129.23,0
252.00,139.69,0
281.00,151.68,0
307.00,165.03,0
263.00,179.28,0
254.00,193.16,0
268.00,205.91,0
281.00,217.64,0
253.00,228.30,0
250.00,237.44,0
234.00,244.69,0
227.00,249.91,0
192.00,252.86,0
224.00,253.64,0
151.00,252.37,0
167.00,248.77,0
95.00,242.58,0
94.00,233.56,0
54.00,221.75,0
33.00,207.39,0
60.00,191.10,0
61.00,174.17,0
113.00,157.98,0
121.00,143.82,0
145.00,132.45,0
169.00,124.24,0
185.00,119.42,0
214.00,118.06,0
218.00,120.01,0
231.00,124.82,0
275.00,132.28,0
252.00,142.12,0
288.00,153.72,0
256.00,166.42,0
284.00,179.52,0
271.00,192.59,0
265.00,205.18,0
279.00,216.89,0
275.00,227.69,0
165.00,236.59,0
226.00,242.38,0
183.00,245.37,0
175.00,245.88,0
120.00,243.54,0
122.00,238.09,0
69.00,229.65,0
84.00,218.47,0
39.00,204.97,0
42.00,189.61,0
98.00,173.51,0
81.00,158.17,0
135.00,144.54,0
127.00,133.35,0
181.00,125.19,0
202.00,120.56,0
225.00,119.74,0
251.00,122.63,0
260.00,128.92,0
275.00,138.06,0
253.00,149.23,0
277.00,161.59,0
277.00,174.57,0
236.00,187.50,0
314.00,199.93,0
267.00,212.11,0
261.00,223.53,0
272.00,233.59,0
254.00,242.26,0
210.00,249.02,0
257.00,253.62,0
157.00,256.02,0
156.00,255.36,0
111.00,251.23,0
107.00,243.75,0
71.00,233.28,0
90.00,220.44,0
35.00,205.73,0
40.00,189.37,0
78.00,172.28,0
77.00,155.86,0
143.00,141.33,0
118.00,129.59,0
195.00,121.13,0
194.00,116.53,0
252.00,116.08,0
205.00,119.34,0
256.00,125.43,0
238.00,133.79,0
253.00,143.89,0
267.00,155.16,0
244.00,167.12,0
283.00,179.27,0
280.00,191.60,0
232.00,203.51,0
234.00,213.92,0
222.00,222.37,0
241.00,229.04,0
236.00,234.30,0
219.00,238.25,0
146.00,240.15,0
248.00,239.93,0
43.00,237.46,0
160.00,231.79,0
71.00,223.43,0
95.00,212.95,0
57.00,200.60,0
38.00,186.63,0
68.00,171.49,0
71.00,156.30,0
109.00,142.22,0
136.00,130.34,0
163.00,121.50,0
172.00,116.01,0
167.00,113.55,0
257.00,114.26,0
219.00,118.48,0
227.00,125.39,0
283.00,134.43,0
265.00,145.62,0
294.00,158.47,0
257.00,172.17,0
304.00,186.11,0
244.00,199.72,0
254.00,212.10,0
224.00,222.56,0
228.00,230.84,0
202.00,236.80,0
230.00,240.63,0
185.00,242.58,0
168.00,242.40,0
122.00,239.57,0
127.00,233.96,0
102.00,225.88,0
108.00,215.92,0
42.00,204.17,0
38.00,190.35,0
50.00,174.94,0
64.00,159.10,0
98.00,144.08,0
81.00,130.72,0
166.00,119.77,0
127.00,111.97,0
212.00,107.57,0
217.00,107.00,0
220.00,110.18,0
278.00,116.66,0
258.00,126.25,0
273.00,138.17,0
245.00,151.32,0
275.00,164.87,0
245.00,178.33,0
288.00,191.36,0
261.00,203.87,0
245.00,215.37,0
267.00,225.40,0
201.00,233.67,0
267.00,239.96,0
199.00,244.52,0
186.00,246.94,0
158.00,246.63,0
163.00,243.71,0
96.00,238.21,0
95.00,229.88,0
55.00,218.72,0
61.00,205.20,0
37.00,189.94,0
59.00,173.65,0
99.00,157.64,0
98.00,143.20,0
199.00,131.58,0
148.00,123.76,0
198.00,119.44,0
208.00,118.42,0
231.00,120.69,0
240.00,125.95,0
221.00,133.50,0
301.00,142.94,0
243.00,154.24,0
143.00,165.40,0
282.00,175.12,0
296.00,185.02,0
219.00,195.45,0
245.00,205.02,0
291.00,213.77,0
221.00,222.01,0
219.00,228.81,0
187.00,233.41,0
264.00,236.28,0
127.00,237.61,0
207.00,236.77,0
115.00,233.71,0
130.00,228.35,0
76.00,220.44,0
110.00,210.38,0
35.00,198.50,0
50.00,184.78,0
118.00,170.36,0
82.00,156.80,0
129.00,144.72,0
111.00,134.47,0
111.00,126.06,0
181.00,119.75,0
245.00,116.91,0
224.00,118.31,0
214.00,122.99,0
232.00,129.78,0
254.00,138.37,0
291.00,148.82,0
251.00,160.81,0
278.00,173.47,0
253.00,186.13,0
272.00,198.32,0
248.00,209.68,0
303.00,220.23,0
178.00,229.50,0
156.00,235.70,0
353.00,239.57,0
146.00,242.92,0
167.00,244.16,0
186.00,242.50,0
206.00,239.40,0
65.00,234.62,0
112.00,226.92,0
56.00,216.40,0
44.00,203.44,0
59.00,188.54,0
45.00,172.65,0
100.00,156.91,0
91.00,142.54,0
123.00,130.25,0
162.00,120.76,0
202.00,114.92,0
255.00,113.52,0
242.00,116.62,0
279.00,123.52,0
255.00,133.45,0
274.00,145.37,0
236.00,158.21,0
288.00,171.31,0
350.00,185.20,0
206.00,199.52,0
283.00,212.44,0
244.00,223.64,0
207.00,232.83,0
204.00,239.24,0
249.00,243.34,0
171.00,245.64,0
150.00,245.39,0
130.00,242.07,0
111.00,235.85,0
53.00,226.69,0
115.00,215.01,0
41.00,201.72,0
34.00,186.87,0
99.00,171.12,0
55.00,155.86,0
130.00,141.90,0
112.00,130.13,0
166.00,121.17,0
162.00,115.37,0
224.00,113.05,0
230.00,114.52,0
236.00,119.53,0
302.00,127.66,0
250.00,138.61,0
259.00,151.13,0
274.00,164.28,0
274.00,177.78,0
241.00,190.94,0
279.00,203.18,0
264.00,214.56,0
240.00,224.76,0
257.00,233.36,0
197.00,240.02,0
210.00,244.27,0
196.00,246.14,0
159.00,245.69,0
146.00,242.66,0
143.00,237.24,0
90.00,229.54,0
50.00,219.19,0
180.00,207.11,0
161.00,195.80,0
147.00,186.10,0
35.00,176.62,0
118.00,166.34,0
152.00,156.53,0
164.00,148.73,0
177.00,143.31,0
211.00,140.48,0
238.00,140.58,0
224.00,143.55,0
234.00,148.66,0
264.00,155.56,0
262.00,164.13,0
269.00,173.94,0
278.00,184.55,0
260.00,195.48,0
266.00,206.12,0
261.00,216.09,0
226.00,224.90,0
247.00,232.11,0
210.00,237.59,0
219.00,241.21,0
190.00,242.91,0
196.00,242.73,0
114.00,240.31,0
128.00,235.05,0
111.00,227.27,0
92.00,217.48,0
34.00,205.59,0
34.00,191.34,0
72.00,175.63,0
65.00,159.86,0
108.00,145.16,0
105.00,132.38,0
124.00,121.94,0
127.00,113.95,0
186.00,108.78,0
216.00,107.15,0
220.00,109.32,0
238.00,114.71,0
263.00,122.91,0
264.00,133.57,0
292.00,146.23,0
274.00,160.31,0
283.00,174.99,0
262.00,189.48,0
257.00,203.02,0
265.00,215.19,0
250.00,225.90,0
245.00,234.92,0
224.00,241.96,0
225.00,246.91,0
173.00,249.49,0
161.00,249.23,0
97.00,245.70,0
96.00,238.56,0
283.00,229.95,0
45.00,221.65,0
36.00,211.39,0
66.00,198.11,0
44.00,183.23,0
127.00,168.18,0
100.00,154.46,0
115.00,142.59,0
160.00,132.90,0
224.00,126.62,0
212.00,124.46,0
226.00,125.91,0
264.00,130.56,0
240.00,137.98,0
271.00,147.43,0
251.00,158.26,0
264.00,169.83,0
287.00,181.80,0
210.00,193.56,0
238.00,203.91,0
228.00,212.58,0
250.00,219.94,0
246.00,226.32,0
226.00,231.68,0
166.00,235.25,0
204.00,236.49,0
166.00,235.73,0
181.00,233.29,0
130.00,229.17,0
137.00,223.25,0
64.00,215.26,0
102.00,205.07,0
34.00,193.01,0
35.00,179.15,0
88.00,164.24,0
79.00,149.86,0
128.00,137.08,0
149.00,126.84,0
187.00,119.96,0
142.00,116.27,0
217.00,115.30,0
225.00,117.37,0
240.00,122.54,0
254.00,130.34,0
282.00,140.54,0
268.00,152.61,0
265.00,165.68,0
247.00,178.80,0
269.00,191.35,0
260.00,203.21,0
268.00,214.25,0
249.00,224.18,0
229.00,232.55,0
188.00,238.61,0
204.00,241.99,0
155.00,242.77,0
172.00,241.01,0
87.00,236.51,0
105.00,228.99,0
44.00,218.52,0
31.00,205.13,0
42.00,189.38,0
45.00,172.48,0
71.00,155.63,0
81.00,139.89,0
139.00,126.38,0
130.00,115.97,0
214.00,109.32,0
206.00,106.97,0
216.00,108.63,0
221.00,113.43,0
301.00,121.26,0
259.00,132.15,0
299.00,145.29,0
259.00,159.73,0
275.00,174.46,0
280.00,188.88,0
262.00,202.67,0
246.00,215.13,0
256.00,225.83,0
219.00,234.57,0
242.00,241.18,0
136.00,245.17,0
198.00,245.93,0
93.00,243.55,0
144.00,238.05,0
113.00,230.11,0
105.00,220.36,0
40.00,208.62,0
37.00,194.63,0
60.00,178.95,0
80.00,163.06,0
97.00,148.22,0
125.00,135.34,0
162.00,125.27,0
165.00,118.54,0
196.00,115.22,0
246.00,115.57,0
243.00,119.68,0
259.00,127.01,0
267.00,136.92,0
274.00,148.71,0
259.00,161.65,0
281.00,175.06,0
273.00,188.50,0
267.00,201.53,0
251.00,213.53,0
247.00,223.99,0
251.00,232.76,0
172.00,239.32,0
222.00,243.14,0
155.00,244.38,0
187.00,243.18,0
110.00,239.50,0
121.00,233.13,0
46.00,223.90,0
66.00,211.73,0
33.00,197.21,0
56.00,181.23,0
82.00,164.93,0
114.00,149.84,0
126.00,137.02,0
150.00,127.03,0
181.00,120.26,0
211.00,117.12,0
212.00,117.58,0
232.00,121.22,0
244.00,127.57,0
249.00,136.17,0
257.00,146.50,0
269.00,158.03,0
255.00,170.24,0
246.00,182.39,0
249.00,193.84,0
239.00,204.25,0
240.00,213.41,0
218.00,221.05,0
247.00,227.18,0
193.00,231.81,0
192.00,234.49,0
143.00,234.73,0
176.00,232.58,0
148.00,228.58,0
131.00,222.95,0
47.00,215.08,0
67.00,204.42,0
34.00,191.27,0
77.00,176.73,0
78.00,162.04,0
91.00,148.20,0
127.00,135.97,0
134.00,126.15,0
164.00,119.14,0
133.00,114.81,0
198.00,112.90,0
220.00,113.92,0
246.00,118.24,0
243.00,125.52,0
266.00,135.14,0
282.00,146.70,0
280.00,159.84,0
257.00,173.64,0
266.00,187.16,0
261.00,199.93,0
248.00,211.59,0
231.00,221.62,0
241.00,229.78,0
190.00,235.84,0
218.00,239.59,0
162.00,241.05,0
185.00,240.16,0
118.00,236.92,0
94.00,230.86,0
69.00,221.69,0
58.00,209.78,0
35.00,195.60,0
52.00,179.83,0
70.00,163.64,0
70.00,148.07,0
121.00,134.09,0
132.00,122.70,0
170.00,114.57,0
185.00,110.01,0
226.00,109.24,0
238.00,112.35,0
250.00,118.88,0
263.00,128.20,0
286.00,139.87,0
259.00,153.18,0
254.00,166.97,0
236.00,180.22,0
265.00,192.52,0
278.00,204.13,0
320.00,215.65,0
204.00,226.55,0
248.00,235.41,0
179.00,241.63,0
193.00,244.94,0
162.00,245.37,0
163.00,243.21,0
75.00,238.19,0
127.00,230.13,0
69.00,219.70,0
97.00,207.52,0
32.00,193.85,0
39.00,178.72,0
61.00,162.74,0
67.00,147.12,0
129.00,133.05,0
134.00,121.75,0
182.00,113.91,0
155.00,109.63,0
218.00,108.61,0
208.00,110.83,0
277.00,116.43,0
257.00,125.30,0
251.00,136.52,0
262.00,148.98,0
268.00,162.16,0
248.00,175.46,0
265.00,188.27,0
248.00,200.28,0
252.00,211.15,0
204.00,220.33,0
236.00,227.43,0
201.00,232.55,0
240.00,236.01,0
174.00,237.91,0
172.00,237.74,0
109.00,234.91,0
109.00,229.12,0
45.00,220.23,0
109.00,208.74,0
39.00,195.60,0
66.00,181.22,0
89.00,166.45,0
66.00,152.29,0
134.00,139.43,0
136.00,128.95,0
160.00,121.40,0
124.00,116.43,0
215.00,113.98,0
253.00,115.02,0
267.00,120.14,0
247.00,128.62,0
270.00,139.33,0
266.00,151.55,0
257.00,164.56,0
282.00,177.79,0
271.00,190.99,0
251.00,203.61,0
265.00,215.04,0
223.00,224.92,0
235.00,232.81,0
222.00,238.65,0
212.00,242.55,0
182.00,244.33,0
195.00,243.97,0
101.00,241.19,0
142.00,235.56,0
55.00,227.15,0
78.00,215.98,0
32.00,202.37,0
34.00,186.78,0
74.00,170.19,0
78.00,154.07,0
138.00,139.77,0
123.00,128.22,0
173.00,119.84,0
169.00,114.78,0
212.00,113.14,0
234.00,115.02,0
225.00,120.12,0
240.00,127.66,0
290.00,137.39,0
250.00,149.09,0
267.00,161.77,0
260.00,174.69,0
321.00,187.92,0
232.00,201.12,0
259.00,213.13,0
234.00,223.35,0
245.00,231.76,0
180.00,237.95,0
215.00,241.58,0
154.00,242.67,0
175.00,241.25,0
107.00,237.27,0
118.00,230.61,0
48.00,221.13,0
90.00,209.14,0
36.00,195.26,0
57.00,180.02,0
64.00,164.26,0
48.00,148.78,0
108.00,134.31,0
132.00,122.15,0
144.00,113.13,0
176.00,107.44,0
189.00,105.21,0
226.00,106.50,0
224.00,111.12,0
241.00,118.50,0
238.00,127.99,0
272.00,139.15,0
262.00,151.64,0
258.00,164.84,0
273.00,178.13,0
262.00,191.15,0
275.00,203.59,0
247.00,215.06,0
248.00,225.08,0
218.00,233.19,0
293.00,239.72,0
159.00,244.71,0
198.00,247.09,0
134.00,246.41,0
135.00,242.67,0
81.00,235.83,0
127.00,226.34,0
51.00,214.77,0
41.00,201.07,0
49.00,185.51,0
67.00,169.22,0
105.00,153.62,0
127.00,140.03,0
164.00,129.40,0
178.00,122.26,0
201.00,118.76,0
253.00,119.11,0
232.00,123.20,0
245.00,130.22,0
260.00,139.41,0
269.00,150.32,0
258.00,162.39,0
290.00,175.07,0
248.00,187.90,0
248.00,199.99,0
266.00,210.91,0
232.00,220.61,0
242.00,228.72,0
182.00,234.75,0
225.00,238.42,0
164.00,239.91,0
190.00,239.27,0
127.00,236.43,0
142.00,231.25,0
72.00,223.68,0
79.00,213.52,0
33.00,200.87,0
45.00,186.18,0
73.00,170.47,0
103.00,155.30,0
122.00,141.96,0
141.00,131.16,0
171.00,123.36,0
211.00,119.12,0
212.00,118.59,0
182.00,121.00,0
229.00,125.48,0
236.00,131.96,0
254.00,140.38,0
262.00,150.48,0
279.00,161.97,0
264.00,174.30,0
253.00,186.68,0
226.00,198.15,0
293.00,208.57,0
229.00,218.20,0
246.00,226.54,0
172.00,232.77,0
211.00,236.44,0
156.00,237.57,0
181.00,236.40,0
107.00,232.86,0
126.00,226.75,0
54.00,218.04,0
64.00,206.67,0
34.00,193.01,0
42.00,177.69,0
64.00,161.69,0
76.00,146.22,0
146.00,132.61,0
145.00,122.15,0
164.00,115.14,0
186.00,111.43,0
190.00,110.96,0
190.00,113.20,0
209.00,117.59,0
257.00,124.23,0
270.00,133.39,0
247.00,144.57,0
257.00,156.74,0
241.00,169.08,0
263.00,181.18,0
272.00,192.97,0
264.00,204.41,0
224.00,214.81,0
259.00,223.63,0
186.00,230.61,0
218.00,235.30,0
115.00,237.18,0
146.00,235.61,0
92.00,230.72,0
97.00,222.92,0
50.00,212.36,0
47.00,199.32,0
62.00,184.49,0
70.00,169.08,0
121.00,154.45,0
129.00,141.87,0
154.00,132.04,0
168.00,125.21,0
189.00,121.52,0
216.00,121.05,0
270.00,124.07,0
261.00,130.71,0
243.00,140.03,0
247.00,150.73,0
291.00,162.36,0
259.00,174.82,0
277.00,187.48,0
241.00,199.64,0
261.00,210.70,0
228.00,220.33,0
246.00,228.32,0
204.00,234.48,0
213.00,238.56,0
158.00,240.28,0
127.00,239.06,0
94.00,234.38,0
84.00,226.37,0
57.00,215.43,0
51.00,201.99,0
54.00,186.84,0
36.00,170.79,0
69.00,154.57,0
117.00,139.55,0
99.00,126.84,0
141.00,116.76,0
167.00,109.78,0
196.00,106.39,0
192.00,106.51,0
217.00,109.66,0
244.00,115.65,0
252.00,124.33,0
265.00,135.18,0
248.00,147.52,0
278.00,160.61,0
247.00,173.94,0
238.00,186.68,0
243.00,198.17,0
249.00,208.39,0
225.00,217.25,0
261.00,224.74,0
180.00,230.66,0
242.00,234.67,0
127.00,236.47,0
179.00,235.61,0
98.00,232.02,0
127.00,225.76,0
75.00,217.04,0
61.00,206.03,0
38.00,192.79,0
33.00,177.71,0
67.00,161.79,0
78.00,146.38,0
127.00,132.72,0
140.00,121.84,0
206.00,114.61,0
167.00,111.28,0
220.00,111.38,0
217.00,114.57,0
261.00,120.78,0
240.00,129.66,0
268.00,140.46,0
233.00,152.35,0
253.00,164.50,0
270.00,176.63,0
255.00,188.67,0
236.00,199.98,0
236.00,209.92,0
232.00,218.31,0
198.00,224.88,0
196.00,229.26,0
228.00,231.75,0
160.00,232.70,0
148.00,231.49,0
131.00,227.75,0
134.00,221.88,0
92.00,214.15,0
94.00,204.61,0
47.00,193.24,0
34.00,180.04,0
56.00,165.49,0
48.00,150.54,0
127.00,136.50,0
109.00,124.72,0
149.00,115.75,0
167.00,109.84,0
197.00,107.32,0
176.00,107.94,0
193.00,110.97,0
221.00,116.06,0
250.00,123.41,0
280.00,133.18,0
256.00,145.05,0
236.00,157.76,0
255.00,170.32,0
226.00,182.30,0
262.00,193.37,0
233.00,203.52,0
246.00,212.56,0
207.00,220.11,0
225.00,225.87,0
170.00,229.63,0
205.00,231.26,0
127.00,230.69,0
161.00,227.74,0
85.00,222.37,0
110.00,214.58,0
40.00,204.43,0
55.00,192.01,0
32.00,177.69,0
35.00,162.22,0
71.00,146.54,0
78.00,131.89,0
116.00,119.23,0
122.00,109.25,0
154.00,102.30,0
178.00,98.68,0
192.00,98.49,0
214.00,101.51,0
283.00,107.96,0
238.00,117.73,0
242.00,129.55,0
252.00,142.32,0
240.00,155.50,0
242.00,168.42,0
242.00,180.67,0
206.00,191.72,0
234.00,201.12,0
217.00,208.97,0
228.00,215.43,0
173.00,220.21,0
152.00,222.54,0
126.00,221.95,0
164.00,218.88,0
94.00,213.85,0
127.00,206.93,0
49.00,198.10,0
41.00,187.04,0
48.00,173.89,0
56.00,159.75,0
114.00,145.99,0
102.00,133.90,0
137.00,124.05,0
118.00,116.53,0
180.00,111.53,0
138.00,109.13,0
195.00,109.08,0
239.00,111.79,0
230.00,117.64,0
243.00,125.98,0
236.00,136.02,0
260.00,147.21,0
242.00,159.13,0
254.00,171.19,0
252.00,182.99,0
247.00,194.22,0
251.00,204.57,0
207.00,213.58,0
173.00,220.30,0
163.00,224.03,0
192.00,225.18,0
143.00,224.33,0
168.00,221.62,0
126.00,217.23,0
124.00,211.21,0
59.00,203.23,0
86.00,193.10,0
38.00,181.28,0
53.00,168.07,0
71.00,154.27,0
62.00,140.80,0
158.00,128.82,0
138.00,119.72,0
159.00,113.78,0
190.00,110.84,0
210.00,111.13,0
231.00,114.68,0
216.00,120.91,0
247.00,129.18,0
234.00,139.00,0
246.00,149.83,0
233.00,161.02,0
266.00,172.29,0
263.00,183.67,0
247.00,194.84,0
234.00,205.07,0
215.00,213.75,0
234.00,220.70,0
167.00,225.71,0
185.00,228.24,0
133.00,228.12,0
130.00,225.26,0
110.00,219.74,0
110.00,212.08,0
39.00,202.32,0
37.00,190.03,0
58.00,175.84,0
50.00,160.91,0
93.00,146.30,0
108.00,133.21,0
124.00,122.44,0
184.00,114.69,0
150.00,110.31,0
186.00,108.88,0
184.00,110.05,0
226.00,113.73,0
224.00,119.88,0
235.00,128.12,0
230.00,137.77,0
251.00,148.39,0
233.00,159.51,0
220.00,170.43,0
257.00,180.79,0
195.00,190.35,0
244.00,198.69,0
183.00,205.62,0
216.00,210.91,0
142.00,214.21,0
174.00,215.19,0
117.00,213.79,0
143.00,210.22,0
80.00,204.52,0
90.00,196.67,0
46.00,186.73,0
32.00,174.73,0
41.00,161.07,0
61.00,146.81,0
55.00,132.91,0
107.00,120.25,0
89.00,109.62,0
165.00,101.65,0
179.00,97.15,0
221.00,96.72,0
237.00,100.29,0
266.00,107.64,0
294.00,118.50,0
239.00,131.90,0
274.00,146.37,0
236.00,161.00,0
284.00,175.30,0
204.00,188.70,0
248.00,200.41,0
174.00,209.90,0
275.00,217.36,0
140.00,222.98,0
217.00,226.25,0
115.00,226.93,0
161.00,224.95,0
66.00,220.13,0
78.00,212.30,0
46.00,201.51,0
48.00,188.42,0
67.00,173.95,0
142.00,159.89,0
119.00,147.80,0
171.00,138.29,0
192.00,131.89,0
252.00,129.35,0
240.00,130.93,0
297.00,136.31,0
294.00,145.24,0
286.00,156.94,0
319.00,170.41,0
308.00,185.17,0
319.00,200.66,0
293.00,216.03,0
312.00,230.62,0
288.00,244.03,0
324.00,256.18,0
239.00,266.66,0
284.00,274.78,0
220.00,280.36,0
296.00,283.76,0
174.00,285.13,0
257.00,284.20,0
136.00,280.91,0
142.00,274.69,0
78.00,265.00,0
107.00,252.27,0
54.00,237.11,0
115.00,220.46,0
46.00,203.26,0
68.00,185.75,0
82.00,168.47,0
139.00,152.84,0
124.00,139.91,0
168.00,130.05,0
189.00,123.65,0
236.00,121.16,0
220.00,122.56,0
286.00,127.52,0
233.00,135.55,0
294.00,145.83,0
270.00,157.84,0
312.00,171.20,0
298.00,185.55,0
266.00,200.01,0
298.00,213.73,0
238.00,226.18,0
290.00,236.96,0
204.00,245.76,0
272.00,252.34,0
173.00,256.62,0
230.00,258.40,0
163.00,257.79,0
204.00,255.07,0
110.00,250.22,0
161.00,243.06,0
59.00,233.63,0
48.00,221.41,0
36.00,206.29,0
81.00,189.65,0
89.00,173.12,0
98.00,157.79,0
124.00,144.30,0
194.00,133.74,0
158.00,126.82,0
240.00,123.55,0
249.00,124.34,0
256.00,129.03,0
261.00,136.78,0
304.00,147.09,0
302.00,159.75,0
298.00,174.08,0
315.00,189.25,0
303.00,204.69,0
330.00,219.99,0
292.00,234.71,0
296.00,248.14,0
256.00,259.56,0
313.00,268.92,0
240.00,276.41,0
285.00,281.86,0
199.00,285.03,0
220.00,285.42,0
111.00,282.46,0
138.00,275.67,0
74.00,265.16,0
66.00,251.30,0
35.00,234.43,0
33.00,215.23,0
103.00,195.19,0
114.00,176.43,0
156.00,160.36,0
192.00,147.97,0
202.00,139.80,0
242.00,135.87,0
265.00,136.28,0
289.00,140.90,0
349.00,149.60,0
334.00,162.25,0
313.00,177.46,0
323.00,193.74,0
330.00,210.34,0
318.00,226.77,0
324.00,242.41,0
295.00,256.71,0
315.00,269.24,0
313.00,280.09,0
301.00,289.35,0
248.00,296.43,0
270.00,300.79,0
197.00,302.30,0
209.00,300.64,0
116.00,295.44,0
126.00,286.38,0
58.00,273.59,0
82.00,257.53,0
36.00,238.96,0
38.00,218.51,0
85.00,197.39,0
50.00,176.95,0
112.00,158.03,0
162.00,142.02,0
198.00,130.39,0
228.00,123.78,0
250.00,122.16,0
251.00,124.96,0
275.00,131.48,0
311.00,141.33,0
298.00,154.00,0
331.00,168.77,0
354.00,185.33,0
318.00,203.01,0
349.00,220.82,0
287.00,237.83,0
319.00,253.16,0
274.00,266.35,0
334.00,277.50,0
249.00,286.64,0
267.00,293.20,0
194.00,296.55,0
251.00,296.74,0
135.00,293.93,0
178.00,287.87,0
98.00,278.55,0
85.00,266.06,0
39.00,250.32,0
53.00,231.86,0
58.00,211.82,0
73.00,191.60,0
129.00,172.67,0
133.00,156.41,0
192.00,143.72,0
172.00,135.01,0
215.00,130.12,0
253.00,129.16,0
269.00,132.32,0
292.00,139.30,0
299.00,149.53,0
326.00,162.46,0
334.00,177.57,0
318.00,194.01,0
328.00,210.86,0
328.00,227.47,0
326.00,243.40,0
301.00,258.06,0
308.00,270.89,0
254.00,281.35,0
272.00,288.98,0
200.00,293.48,0
238.00,294.71,0
167.00,292.84,0
181.00,287.98,0
127.00,280.21,0
138.00,269.78,0
60.00,256.72,0
53.00,240.87,0
53.00,222.69,0
78.00,203.44,0
118.00,184.80,0
126.00,168.16,0
170.00,154.42,0
177.00,144.18,0
199.00,137.60,0
220.00,134.64,0
240.00,135.21,0
292.00,139.39,0
320.00,147.37,0
326.00,158.95,0
316.00,173.23,0
327.00,188.95,0
336.00,205.46,0
333.00,222.29,0
320.00,238.63,0
323.00,253.88,0
319.00,267.68,0
292.00,279.68,0
281.00,289.34,0
257.00,296.29,0
262.00,300.49,0
194.00,301.81,0
200.00,299.86,0
158.00,294.71,0
142.00,286.44,0
66.00,274.83,0
101.00,259.98,0
46.00,242.67,0
47.00,223.47,0
88.00,203.41,0
121.00,184.28,0
166.00,167.75,0
180.00,154.88,0
212.00,146.12,0
240.00,141.59,0
280.00,141.51,0
246.00,145.37,0
277.00,152.22,0
283.00,161.32,0
307.00,172.41,0
311.00,185.11,0
322.00,198.97,0
330.00,213.57,0
340.00,228.52,0
289.00,243.09,0
342.00,256.52,0
281.00,268.62,0
284.00,278.74,0
254.00,286.31,0
274.00,291.41,0
214.00,294.01,0
225.00,293.93,0
105.00,290.49,0
120.00,282.78,0
57.00,270.90,0
56.00,255.35,0
36.00,236.79,0
53.00,216.26,0
86.00,195.40,0
121.00,175.95,0
140.00,159.22,0
185.00,146.09,0
195.00,137.12,0
228.00,132.41,0
267.00,132.03,0
304.00,136.18,0
298.00,144.49,0
323.00,156.19,0
313.00,170.32,0
331.00,186.03,0
345.00,202.79,0
325.00,219.94,0
325.00,236.62,0
298.00,251.99,0
373.00,266.03,0
277.00,278.82,0
292.00,289.40,0
250.00,297.05,0
265.00,301.77,0
203.00,303.53,0
203.00,302.01,0
135.00,297.01,0
158.00,288.63,0
84.00,277.16,0
41.00,262.27,0
34.00,243.92,0
45.00,223.18,0
109.00,201.96,0
108.00,182.23,0
153.00,165.16,0
178.00,151.64,0
220.00,142.38,0
245.00,137.79,0
266.00,137.82,0
273.00,141.98,0
295.00,149.64,0
327.00,160.37,0
330.00,173.79,0
316.00,189.02,0
308.00,204.83,0
318.00,220.40,0
288.00,235.13,0
294.00,248.37,0
332.00,260.20,0
275.00,270.79,0
283.00,279.51,0
251.00,285.93,0
260.00,289.99,0
218.00,291.67,0
222.00,290.91,0
122.00,287.17,0
161.00,280.02,0
110.00,269.93,0
84.00,257.17,0
44.00,241.51,0
36.00,223.34,0
117.00,204.04,0
95.00,185.63,0
166.00,169.41,0
184.00,156.54,0
241.00,148.04,0
264.00,144.39,0
267.00,145.42,0
292.00,150.40,0
294.00,158.66,0
323.00,169.61,0
310.00,182.64,0
338.00,197.12,0
306.00,212.29,0
336.00,227.44,0
305.00,242.04,0
313.00,255.55,0
291.00,267.46,0
270.00,277.30,0
328.00,285.18,0
240.00,291.38,0
274.00,295.38,0
190.00,296.75,0
201.00,295.04,0
99.00,289.68,0
116.00,280.27,0
56.00,267.07,0
70.00,250.66,0
71.00,232.13,0
47.00,212.48,0
109.00,192.77,0
118.00,174.58,0
150.00,159.08,0
188.00,147.06,0
240.00,139.39,0
236.00,136.47,0
264.00,137.77,0
306.00,143.03,0
294.00,151.94,0
330.00,163.83,0
315.00,177.93,0
326.00,193.41,0
336.00,209.59,0
318.00,225.86,0
330.00,241.54,0
281.00,255.88,0
328.00,268.40,0
278.00,279.09,0
278.00,287.57,0
208.00,293.12,0
256.00,295.50,0
166.00,294.86,0
192.00,291.08,0
75.00,283.74,0
112.00,272.51,0
44.00,257.77,0
69.00,240.27,0
50.00,220.94,0
86.00,201.00,0
122.00,182.05,0
124.00,165.38,0
181.00,151.81,0
194.00,142.10,0
230.00,136.63,0
248.00,135.48,0
275.00,138.41,0
330.00,145.41,0
336.00,156.42,0
336.00,170.75,0
344.00,187.20,0
336.00,204.72,0
318.00,222.35,0
313.00,239.03,0
316.00,254.21,0
281.00,267.48,0
293.00,278.40,0
262.00,286.84,0
276.00,292.80,0
209.00,296.09,0
240.00,296.53,0
157.00,294.04,0
145.00,288.15,0
108.00,278.75,0
118.00,266.30,0
62.00,251.35,0
34.00,233.94,0
80.00,214.69,0
85.00,195.26,0
139.00,177.24,0
165.00,162.05,0
211.00,150.76,0
221.00,143.92,0
271.00,141.63,0
276.00,143.76,0
289.00,149.82,0
329.00,159.22,0
316.00,171.55,0
312.00,185.77,0
311.00,200.79,0
346.00,216.14,0
338.00,231.77,0
290.00,246.84,0
296.00,260.17,0
292.00,271.40,0
320.00,280.88,0
274.00,288.76,0
226.00,294.25,0
139.00,295.82,0
225.00,293.25,0
98.00,287.25,0
143.00,277.78,0
64.00,265.10,0
91.00,249.66,0
36.00,232.03,0
36.00,212.56,0
149.00,192.85,0
115.00,175.21,0
152.00,160.41,0
164.00,148.69,0
224.00,140.69,0
237.00,137.01,0
272.00,137.72,0
288.00,142.50,0
284.00,150.76,0
310.00,161.69,0
304.00,174.60,0
329.00,188.92,0
324.00,204.19,0
302.00,219.61,0
315.00,234.32,0
317.00,248.09,0
348.00,261.08,0
284.00,273.04,0
309.00,283.23,0
272.00,291.32,0
253.00,296.98,0
188.00,299.47,0
228.00,298.53,0
170.00,294.62,0
151.00,287.85,0
97.00,277.89,0
101.00,264.70,0
57.00,248.86,0
37.00,230.67,0
134.00,211.37,0
121.00,193.22,0
145.00,177.35,0
124.00,163.84,0
204.00,153.09,0
226.00,146.11,0
250.00,143.48,0
277.00,145.07,0
284.00,150.47,0
290.00,158.98,0
322.00,169.98,0
332.00,183.19,0
333.00,198.05,0
342.00,213.85,0
312.00,229.80,0
272.00,244.56,0
328.00,257.48,0
264.00,268.64,0
317.00,277.93,0
273.00,285.49,0
239.00,290.90,0
211.00,293.32,0
225.00,292.79,0
154.00,289.40,0
158.00,282.95,0
87.00,273.28,0
107.00,260.55,0
53.00,245.19,0
40.00,227.45,0
95.00,208.28,0
81.00,189.41,0
111.00,171.83,0
127.00,156.34,0
186.00,143.96,0
229.00,135.84,0
238.00,132.48,0
258.00,133.50,0
251.00,138.19,0
322.00,146.13,0
314.00,157.34,0
330.00,171.23,0
305.00,186.74,0
330.00,202.83,0
329.00,219.05,0
278.00,234.62,0
319.00,248.64,0
277.00,260.94,0
337.00,271.67,0
272.00,280.94,0
273.00,288.24,0
208.00,292.74,0
206.00,293.85,0
168.00,291.45,0
174.00,285.87,0
72.00,276.98,0
84.00,264.39,0
32.00,248.30,0
44.00,229.38,0
100.00,209.23,0
94.00,189.81,0
127.00,172.21,0
132.00,157.11,0
191.00,145.26,0
184.00,137.21,0
233.00,133.14,0
284.00,133.35,0
286.00,138.05,0
303.00,146.61,0
301.00,158.12,0
317.00,171.79,0
320.00,186.89,0
328.00,202.85,0
352.00,219.26,0
276.00,235.32,0
329.00,249.94,0
281.00,262.83,0
295.00,273.74,0
248.00,282.22,0
256.00,287.99,0
177.00,290.58,0
225.00,289.82,0
130.00,285.89,0
152.00,278.72,0
81.00,268.29,0
86.00,254.76,0
37.00,238.45,0
65.00,220.06,0
82.00,200.85,0
119.00,182.46,0
150.00,166.33,0
226.00,153.93,0
246.00,146.44,0
251.00,143.90,0
277.00,145.75,0
251.00,151.08,0
290.00,158.96,0
325.00,169.28,0
312.00,181.86,0
317.00,195.87,0
322.00,210.53,0
326.00,225.36,0
288.00,239.61,0
284.00,252.32,0
296.00,263.15,0
278.00,272.23,0
305.00,279.68,0
245.00,285.45,0
248.00,289.01,0
188.00,289.84,0
198.00,287.71,0
138.00,282.53,0
138.00,274.31,0
101.00,263.22,0
42.00,249.21,0
45.00,232.25,0
41.00,213.09,0
111.00,193.43,0
111.00,175.18,0
198.00,159.91,0
197.00,148.82,0
224.00,142.27,0
235.00,139.84,0
252.00,141.16,0
247.00,145.61,0
289.00,152.73,0
335.00,162.69,0
328.00,175.49,0
324.00,190.26,0
326.00,205.95,0
308.00,221.66,0
336.00,236.83,0
361.00,251.65,0
329.00,266.05,0
302.00,279.11,0
315.00,290.13,0
257.00,298.74,0
270.00,304.50,0
228.00,307.29,0
238.00,307.25,0
156.00,304.15,0
218.00,298.12,0
103.00,289.46,0
150.00,277.96,0
66.00,263.91,0
82.00,247.54,0
72.00,229.40,0
78.00,210.50,0
115.00,192.01,0
80.00,174.82,0
155.00,159.53,0
162.00,147.19,0
217.00,138.71,0
263.00,134.80,0
288.00,135.86,0
294.00,141.55,0
310.00,151.06,0
343.00,163.72,0
321.00,178.79,0
332.00,195.19,0
313.00,211.93,0
306.00,228.09,0
352.00,243.39,0
312.00,257.88,0
319.00,271.07,0
291.00,282.39,0
312.00,291.68,0
261.00,298.81,0
230.00,303.13,0
215.00,304.16,0
226.00,302.22,0
153.00,297.54,0
158.00,289.86,0
95.00,279.13,0
89.00,265.40,0
61.00,248.95,0
87.00,230.71,0
49.00,211.60,0
42.00,191.98,0
107.00,172.71,0
121.00,155.48,0
171.00,141.53,0
175.00,131.57,0
222.00,125.79,0
280.00,124.69,0
268.00,128.38,0
308.00,136.22,0
278.00,147.25,0
351.00,160.78,0
313.00,176.41,0
320.00,193.16,0
333.00,210.16,0
328.00,226.98,0
325.00,243.13,0
322.00,258.12,0
339.00,271.78,0
308.00,284.00,0
308.00,294.33,0
271.00,302.33,0
288.00,307.83,0
213.00,310.56,0
238.00,310.27,0
162.00,306.84,0
198.00,300.39,0
71.00,290.75,0
122.00,277.65,0
38.00,261.48,0
63.00,242.69,0
87.00,222.50,0
67.00,202.31,0
154.00,183.39,0
149.00,167.28,0
206.00,154.95,0
205.00,146.80,0
246.00,142.92,0
289.00,143.43,0
301.00,148.32,0
292.00,156.89,0
318.00,168.14,0
329.00,181.50,0
336.00,196.51,0
323.00,212.40,0
335.00,228.32,0
342.00,243.91,0
343.00,258.95,0
319.00,272.94,0
317.00,285.28,0
315.00,295.71,0
329.00,304.41,0
275.00,311.26,0
275.00,315.72,0
198.00,317.15,0
213.00,315.03,0
121.00,309.20,0
160.00,299.66,0
108.00,287.07,0
112.00,272.05,0
53.00,254.85,0
49.00,235.58,0
48.00,214.78,0
55.00,193.52,0
86.00,173.00,0
133.00,154.67,0
199.00,140.21,0
214.00,130.72,0
226.00,126.25,0
246.00,126.21,0
295.00,130.38,0
306.00,138.64,0
308.00,150.38,0
312.00,164.49,0
313.00,180.10,0
340.00,196.59,0
346.00,213.68,0
361.00,231.11,0
322.00,248.21,0
330.00,264.02,0
326.00,278.13,0
314.00,290.36,0
310.00,300.50,0
243.00,307.99,0
251.00,312.12,0
215.00,312.86,0
217.00,310.46,0
112.00,304.62,0
127.00,294.76,0
40.00,280.86,0
52.00,263.08,0
63.00,242.57,0
66.00,220.95,0
141.00,199.95,0
163.00,181.60,0
190.00,167.08,0
231.00,156.95,0
266.00,151.68,0
297.00,151.42,0
293.00,155.80,0
335.00,164.05,0
305.00,175.43,0
350.00,189.04,0
334.00,204.21,0
330.00,220.16,0
349.00,236.13,0
323.00,251.62,0
350.00,266.19,0
260.00,279.08,0
305.00,289.34,0
272.00,297.00,0
270.00,302.23,0
177.00,304.36,0
185.00,302.58,0
116.00,296.63,0
134.00,286.87,0
52.00,273.59,0
46.00,256.72,0
73.00,237.22,0
91.00,216.92,0
129.00,197.50,0
173.00,180.53,0
203.00,167.27,0
214.00,158.23,0
239.00,153.34,0
256.00,152.39,0
298.00,155.27,0
302.00,161.84,0
329.00,171.71,0
341.00,184.26,0
332.00,198.80,0
349.00,214.48,0
344.00,230.67,0
364.00,246.92,0
340.00,262.77,0
308.00,277.30,0
314.00,289.67,0
267.00,299.44,0
290.00,306.39,0
276.00,310.83,0
292.00,313.30,0
208.00,313.66,0
220.00,311.25,0
154.00,305.76,0
164.00,297.23,0
109.00,285.83,0
115.00,271.85,0
60.00,255.54,0
50.00,237.08,0
65.00,217.10,0
62.00,196.76,0
117.00,177.31,0
124.00,160.14,0
162.00,146.15,0
190.00,135.99,0
227.00,130.13,0
227.00,128.57,0
310.00,131.31,0
316.00,138.63,0
294.00,149.80,0
365.00,163.83,0
328.00,180.25,0
379.00,198.31,0
349.00,217.36,0
342.00,236.36,0
339.00,254.32,0
327.00,270.70,0
354.00,285.32,0
318.00,298.18,0
326.00,308.98,0
278.00,317.27,0
278.00,322.65,0
236.00,324.92,0
237.00,324.04,0
162.00,319.82,0
192.00,312.21,0
96.00,301.44,0
110.00,287.40,0
35.00,270.16,0
35.00,249.86,0
74.00,227.63,0
77.00,205.35,0
107.00,184.37,0
168.00,166.12,0
220.00,152.23,0
212.00,143.39,0
250.00,139.31,0
256.00,139.59,0
291.00,143.85,0
305.00,151.75,0
323.00,162.85,0
359.00,176.70,0
338.00,192.82,0
366.00,210.27,0
338.00,228.20,0
356.00,245.81,0
324.00,262.42,0
323.00,277.35,0
332.00,290.28,0
289.00,301.06,0
306.00,309.33,0
263.00,315.00,0
257.00,317.90,0
200.00,317.68,0
204.00,314.14,0
143.00,307.29,0
161.00,297.33,0
81.00,284.45,0
77.00,268.55,0
34.00,249.84,0
35.00,228.88,0
84.00,206.91,0
95.00,185.85,0
147.00,167.17,0
180.00,152.17,0
200.00,141.61,0
262.00,135.83,0
245.00,134.93,0
303.00,138.59,0
303.00,146.29,0
340.00,157.62,0
303.00,171.72,0
334.00,187.32,0
324.00,203.67,0
349.00,220.36,0
331.00,236.94,0
356.00,252.99,0
341.00,268.27,0
297.00,282.04,0
317.00,293.53,0
289.00,302.64,0
286.00,309.32,0
214.00,313.03,0
234.00,313.30,0
158.00,310.07,0
176.00,303.34,0
90.00,293.11,0
126.00,279.66,0
78.00,263.69,0
67.00,245.72,0
45.00,226.10,0
54.00,205.48,0
75.00,184.91,0
132.00,165.94,0
124.00,149.87,0
193.00,137.43,0
159.00,128.95,0
226.00,124.34,0
201.00,123.42,0
263.00,125.98,0
221.00,131.61,0
291.00,139.75,0
244.00,149.95,0
243.00,161.17,0
238.00,172.37,0
231.00,183.03,0
256.00,192.98,0
206.00,202.01,0
240.00,209.69,0
173.00,215.71,0
242.00,220.00,0
134.00,222.50,0
211.00,223.00,0
112.00,221.54,0
174.00,218.15,0
84.00,212.87,0
139.00,205.81,0
64.00,197.15,0
82.00,186.89,0
38.00,175.12,0
35.00,161.98,0
32.00,147.75,0
59.00,133.37,0
40.00,119.61,0
83.00,107.04,0
58.00,96.13,0
96.00,87.10,0
64.00,79.94,0
96.00,74.50,0
78.00,70.69,0
96.00,68.32,0
89.00,67.23,0
96.00,67.24,0
97.00,68.14,0
93.00,69.73,0
97.00,71.78,0
81.00,74.01,0
110.00,76.31,0
73.00,78.62,0
108.00,80.79,0
69.00,82.73,0
105.00,84.36,0
55.00,85.58,0
98.00,86.26,0
48.00,86.40,0
77.00,85.89,0
38.00,84.64,0
68.00,82.71,0
31.00,80.21,0
52.00,77.17,0
29.00,73.66,0
38.00,69.79,0
34.00,65.69,0
31.00,61.54,0
43.00,57.50,0
40.00,53.83,0
45.00,50.64,0
46.00,48.01,0
53.00,45.99,0
53.00,44.62,0
61.00,43.93,0
49.00,43.81,0
76.00,44.20,0
58.00,45.18,0
68.00,46.58,0
56.00,48.17,0
78.00,49.91,0
51.00,51.76,0
79.00,53.59,0
52.00,55.37,0
77.00,57.04,0
49.00,58.53,0
82.00,59.85,0
43.00,60.99,0
82.00,61.91,0
38.00,62.58,0
62.00,62.84,0
35.00,62.59,0
57.00,61.88,0
30.00,60.78,0
40.00,59.22,0
35.00,57.27,0
31.00,55.06,0
40.00,52.69,0
37.00,50.37,0
49.00,48.29,0
55.00,46.68,0
57.00,45.69,0
53.00,45.27,0
68.00,45.36,0
63.00,46.00,0
74.00,47.19,0
69.00,48.84,0
86.00,50.94,0
68.00,53.41,0
92.00,56.12,0
64.00,58.94,0
106.00,61.82,0
65.00,64.79,0
114.00,67.79,0
59.00,70.75,0
103.00,73.42,0
48.00,75.61,0
94.00,77.20,0
49.00,78.21,0
93.00,78.75,0
42.00,78.84,0
66.00,78.31,0
32.00,77.02,0
58.00,75.05,0
31.00,72.56,0
31.00,69.52,0
34.00,65.97,0
41.00,62.24,0
40.00,58.63,0
55.00,55.41,0
50.00,52.78,0
67.00,50.87,0
70.00,49.83,0
72.00,49.70,0
78.00,50.37,0
80.00,51.75,0
92.00,53.82,0
86.00,56.51,0
95.00,59.66,0
80.00,63.01,0
104.00,66.45,0
78.00,69.89,0
108.00,73.24,0
71.00,76.37,0
113.00,79.23,0
61.00,81.75,0
115.00,83.84,0
54.00,85.52,0
118.00,86.78,0
47.00,87.65,0
91.00,87.92,0
36.00,87.40,0
72.00,86.05,0
34.00,83.95,0
36.00,81.05,0
35.00,77.33,0
35.00,73.12,0
42.00,68.71,0
51.00,64.49,0
49.00,60.75,0
66.00,57.67,0
63.00,55.44,0
87.00,54.22,0
74.00,54.07,0
84.00,54.81,0
95.00,56.35,0
100.00,58.75,0
108.00,61.96,0
102.00,65.80,0
119.00,70.12,0
92.00,74.65,0
129.00,79.19,0
86.00,83.63,0
126.00,87.77,0
77.00,91.45,0
137.00,94.66,0
71.00,97.46,0
129.00,99.74,0
64.00,101.42,0
109.00,102.37,0
60.00,102.54,0
130.00,102.25,0
47.00,101.68,0
68.00,100.28,0
31.00,97.67,0
42.00,93.87,0
34.00,89.10,0
75.00,84.07,0
45.00,79.36,0
87.00,75.23,0
63.00,71.95,0
107.00,69.71,0
78.00,68.64,0
126.00,68.78,0
105.00,70.21,0
139.00,72.89,0
160.00,77.03,0
132.00,82.51,0
154.00,88.71,0
135.00,95.24,0
145.00,101.77,0
130.00,107.94,0
165.00,113.78,0
113.00,119.19,0
194.00,124.20,0
100.00,128.86,0
190.00,132.97,0
92.00,136.43,0
168.00,139.02,0
74.00,140.55,0
149.00,140.90,0
64.00,140.11,0
81.00,137.85,0
45.00,133.80,0
52.00,128.12,0
32.00,121.07,0
46.00,113.05,0
37.00,104.56,0
84.00,96.34,0
62.00,89.12,0
117.00,83.37,0
83.00,79.39,0
139.00,77.23,0
95.00,76.82,0
171.00,78.08,0
137.00,81.21,0
158.00,85.88,0
166.00,91.69,0
167.00,98.51,0
164.00,105.93,0
154.00,113.43,0
194.00,120.88,0
148.00,128.26,0
197.00,135.29,0
132.00,141.74,0
204.00,147.45,0
120.00,152.38,0
187.00,156.29,0
103.00,159.04,0
189.00,160.68,0
84.00,161.28,0
135.00,160.48,0
70.00,158.05,0
93.00,154.04,0
44.00,148.37,0
55.00,141.11,0
31.00,132.45,0
36.00,122.76,0
39.00,112.51,0
122.00,102.94,0
104.00,95.47,0
146.00,90.58,0
109.00,88.03,0
185.00,87.73,0
153.00,89.83,0
180.00,94.01,0
227.00,100.22,0
212.00,108.64,0
242.00,118.80,0
206.00,130.10,0
267.00,141.98,0
208.00,154.15,0
270.00,166.17,0
204.00,177.70,0
263.00,188.35,0
171.00,197.67,0
223.00,205.06,0
167.00,210.37,0
228.00,213.94,0
122.00,215.73,0
166.00,215.22,0
96.00,212.26,0
127.00,206.99,0
31.00,199.25,0
77.00,189.01,0
39.00,176.85,0
32.00,163.27,0
50.00,148.82,0
85.00,134.73,0
84.00,122.08,0
134.00,111.63,0
149.00,104.15,0
182.00,100.11,0
186.00,99.50,0
243.00,102.33,0
201.00,108.28,0
253.00,116.63,0
216.00,126.74,0
308.00,138.42,0
266.00,151.77,0
272.00,166.09,0
278.00,180.50,0
232.00,194.25,0
299.00,206.88,0
232.00,218.42,0
274.00,228.54,0
212.00,236.88,0
247.00,243.20,0
150.00,247.04,0
208.00,248.00,0
126.00,246.23,0
178.00,241.98,0
87.00,235.45,0
94.00,226.36,0
38.00,214.48,0
43.00,200.09,0
54.00,184.01,0
85.00,167.61,0
105.00,152.32,0
122.00,139.12,0
177.00,128.85,0
168.00,122.11,0
230.00,119.11,0
258.00,120.27,0
261.00,125.53,0
248.00,133.90,0
320.00,144.79,0
292.00,158.06,0
296.00,172.85,0
261.00,187.84,0
276.00,202.07,0
255.00,215.03,0
322.00,226.93,0
236.00,237.85,0
273.00,247.11,0
195.00,254.04,0
213.00,258.14,0
141.00,259.00,0
194.00,256.77,0
107.00,251.84,0
125.00,244.17,0
52.00,233.61,0
60.00,220.17,0
50.00,204.51,0
55.00,187.61,0
101.00,170.70,0
125.00,155.35,0
172.00,142.89,0
167.00,133.98,0
226.00,128.83,0
241.00,127.79,0
257.00,130.81,0
300.00,137.55,0
283.00,147.56,0
257.00,159.63,0
306.00,172.67,0
277.00,186.34,0
259.00,199.86,0
259.00,212.24,0
274.00,223.32,0
240.00,233.01,0
259.00,241.04,0
197.00,247.06,0
218.00,250.61,0
110.00,251.14,0
140.00,247.93,0
54.00,240.98,0
54.00,230.17,0
57.00,216.03,0
51.00,199.94,0
96.00,183.21,0
102.00,167.26,0
157.00,153.38,0
152.00,142.47,0
206.00,135.01,0
221.00,131.38,0
279.00,131.95,0
270.00,136.79,0
295.00,145.22,0
313.00,156.52,0
309.00,170.18,0
259.00,184.77,0
306.00,199.14,0
292.00,213.10,0
270.00,226.25,0
233.00,237.56,0
272.00,246.63,0
218.00,253.59,0
278.00,258.63,0
166.00,261.66,0
183.00,261.84,0
105.00,258.57,0
109.00,251.67,0
57.00,241.19,0
67.00,227.63,0
67.00,211.91,0
81.00,195.25,0
112.00,178.96,0
120.00,164.17,0
150.00,151.66,0
166.00,141.99,0
199.00,135.55,0
237.00,132.84,0
272.00,134.21,0
303.00,139.81,0
281.00,149.09,0
291.00,160.79,0
297.00,173.95,0
293.00,187.96,0
312.00,202.27,0
317.00,216.65,0
285.00,230.61,0
251.00,242.99,0
269.00,253.10,0
239.00,260.91,0
262.00,266.56,0
209.00,270.09,0
248.00,271.50,0
151.00,270.66,0
170.00,267.01,0
82.00,260.15,0
120.00,250.10,0
38.00,237.07,0
53.00,221.39,0
59.00,203.81,0
75.00,185.68,0
102.00,168.34,0
109.00,152.80,0
153.00,139.86,0
189.00,130.38,0
218.00,125.07,0
230.00,123.95,0
226.00,126.48,0
294.00,132.25,0
274.00,141.23,0
266.00,152.52,0
270.00,164.97,0
304.00,178.16,0
289.00,191.92,0
285.00,205.68,0
287.00,218.81,0
277.00,230.94,0
305.00,241.99,0
237.00,251.68,0
253.00,259.25,0
218.00,264.37,0
222.00,267.03,0
143.00,266.89,0
197.00,263.81,0
99.00,257.99,0
178.00,249.78,0
114.00,240.01,0
106.00,228.90,0
53.00,216.01,0
40.00,201.16,0
86.00,185.04,0
41.00,168.77,0
94.00,153.00,0
137.00,138.98,0
158.00,128.07,0
176.00,120.76,0
200.00,117.11,0
204.00,116.89,0
276.00,120.20,0
255.00,127.16,0
267.00,136.96,0
284.00,148.79,0
312.00,162.40,0
283.00,177.22,0
297.00,192.34,0
268.00,206.95,0
309.00,220.65,0
259.00,233.22,0
274.00,244.16,0
239.00,253.04,0
227.00,259.51,0
178.00,263.05,0
199.00,263.48,0
147.00,261.09,0
193.00,256.33,0
91.00,249.42,0
105.00,239.84,0
51.00,227.53,0
36.00,212.67,0
44.00,195.67,0
65.00,177.81,0
127.00,160.85,0
105.00,146.15,0
161.00,134.27,0
189.00,125.88,0
237.00,121.77,0
249.00,122.14,0
243.00,126.48,0
267.00,133.84,0
282.00,143.75,0
252.00,155.50,0
309.00,168.34,0
311.00,182.34,0
309.00,197.19,0
259.00,211.77,0
297.00,225.15,0
269.00,237.15,0
317.00,247.95,0
238.00,257.40,0
250.00,264.69,0
204.00,269.28,0
195.00,270.93,0
149.00,269.38,0
143.00,264.57,0
131.00,256.87,0
111.00,246.82,0
44.00,234.30,0
56.00,219.19,0
32.00,202.04,0
37.00,183.64,0
106.00,165.31,0
106.00,148.84,0
134.00,135.15,0
138.00,124.51,0
189.00,117.27,0
169.00,113.54,0
259.00,113.46,0
236.00,117.36,0
297.00,124.90,0
290.00,135.76,0
272.00,149.09,0
298.00,163.68,0
291.00,178.97,0
278.00,194.26,0
277.00,208.76,0
264.00,221.95,0
282.00,233.61,0
236.00,243.55,0
248.00,251.32,0
208.00,256.68,0
187.00,259.28,0
127.00,258.52,0
162.00,254.39,0
68.00,247.11,0
148.00,237.11,0
34.00,224.93,0
42.00,210.34,0
80.00,193.96,0
36.00,177.09,0
114.00,160.58,0
154.00,146.18,0
189.00,135.44,0
197.00,128.87,0
177.00,125.87,0
235.00,125.92,0
256.00,129.27,0
236.00,135.66,0
274.00,144.30,0
288.00,154.96,0
292.00,167.40,0
329.00,181.29,0
319.00,196.37,0
294.00,211.79,0
281.00,226.34,0
278.00,239.28,0
311.00,250.69,0
255.00,260.62,0
268.00,268.56,0
201.00,273.91,0
220.00,276.24,0
154.00,275.45,0
166.00,271.47,0
63.00,263.96,0
158.00,253.27,0
49.00,240.28,0
55.00,225.03,0
83.00,207.99,0
57.00,190.44,0
86.00,173.16,0
114.00,157.15,0
152.00,143.63,0
165.00,133.43,0
247.00,127.27,0
227.00,125.71,0
236.00,128.08,0
268.00,133.61,0
303.00,142.36,0
290.00,153.93,0
316.00,167.53,0
310.00,182.58,0
294.00,198.13,0
266.00,213.01,0
298.00,226.58,0
282.00,238.85,0
287.00,249.78,0
239.00,258.88,0
269.00,265.77,0
219.00,270.45,0
237.00,272.89,0
156.00,272.75,0
209.00,269.89,0
127.00,264.60,0
175.00,257.14,0
115.00,247.88,0
124.00,237.02,0
56.00,224.36,0
65.00,209.82,0
56.00,193.79,0
95.00,177.45,0
146.00,162.42,0
136.00,149.94,0
168.00,140.37,0
202.00,134.02,0
195.00,131.09,0
242.00,131.47,0
229.00,134.89,0
270.00,141.03,0
250.00,149.44,0
293.00,159.70,0
279.00,171.44,0
259.00,183.87,0
287.00,196.22,0
241.00,207.98,0
258.00,218.53,0
218.00,227.38,0
258.00,234.47,0
192.00,239.74,0
237.00,243.10,0
174.00,244.54,0
197.00,244.00,0
125.00,241.27,0
176.00,236.38,0
90.00,229.54,0
104.00,220.58,0
64.00,209.46,0
65.00,196.55,0
34.00,182.13,0
42.00,166.61,0
38.00,150.62,0
65.00,134.99,0
49.00,120.44,0
93.00,107.52,0
57.00,96.56,0
91.00,87.51,0
70.00,80.29,0
86.00,74.77,0
87.00,70.83,0
82.00,68.32,0
89.00,66.96,0
73.00,66.47,0
84.00,66.53,0
63.00,66.90,0
73.00,67.30,0
58.00,67.58,0
89.00,67.87,0
52.00,68.22,0
78.00,68.47,0
41.00,68.45,0
70.00,68.08,0
38.00,67.35,0
66.00,66.32,0
32.00,65.01,0
51.00,63.36,0
30.00,61.36,0
41.00,59.07,0
31.00,56.55,0
33.00,53.89,0
36.00,51.18,0
31.00,48.56,0
40.00,46.10,0
39.00,43.95,0
49.00,42.24,0
43.00,41.04,0
55.00,40.34,0
54.00,40.18,0
60.00,40.58,0
56.00,41.45,0
77.00,42.80,0
57.00,44.62,0
82.00,46.79,0
58.00,49.20,0
85.00,51.75,0
56.00,54.32,0
85.00,56.81,0
48.00,59.09,0
99.00,61.18,0
49.00,63.19,0
81.00,64.92,0
38.00,66.15,0
74.00,66.81,0
34.00,66.92,0
89.00,66.70,0
32.00,66.34,0
42.00,65.48,0
36.00,63.92,0
31.00,61.82,0
38.00,59.31,0
49.00,56.74,0
62.00,54.54,0
101.00,53.33,0
92.00,53.59,0
129.00,55.43,0
116.00,58.84,0
169.00,63.84,0
186.00,70.88,0
179.00,79.83,0
234.00,90.41,0
228.00,102.71,0
243.00,116.35,0
229.00,130.66,0
256.00,145.11,0
260.00,159.56,0
321.00,174.33,0
240.00,189.22,0
294.00,203.33,0
221.00,216.00,0
260.00,226.71,0
213.00,235.24,0
244.00,241.64,0
169.00,245.71,0
200.00,247.12,0
126.00,245.77,0
143.00,241.52,0
57.00,234.19,0
108.00,223.93,0
36.00,211.23,0
52.00,196.54,0
62.00,180.55,0
66.00,164.43,0
129.00,149.39,0
95.00,136.50,0
164.00,126.19,0
174.00,119.13,0
250.00,116.13,0
225.00,117.47,0
284.00,122.82,0
293.00,131.79,0
314.00,144.00,0
248.00,158.19,0
286.00,172.78,0
277.00,187.23,0
247.00,201.00,0
297.00,213.65,0
288.00,225.53,0
221.00,236.15,0
264.00,244.62,0
220.00,250.97,0
244.00,255.33,0
153.00,257.29,0
218.00,256.62,0
122.00,253.49,0
144.00,247.72,0
55.00,238.95,0
81.00,227.14,0
36.00,212.79,0
37.00,196.38,0
92.00,179.08,0
42.00,162.17,0
195.00,147.02,0
135.00,135.32,0
185.00,127.31,0
165.00,122.59,0
245.00,121.21,0
263.00,123.77,0
296.00,130.46,0
271.00,140.55,0
250.00,152.54,0
273.00,165.23,0
284.00,178.35,0
283.00,191.74,0
320.00,205.23,0
247.00,218.39,0
271.00,230.14,0
223.00,239.82,0
262.00,247.34,0
213.00,252.80,0
258.00,256.42,0
207.00,258.43,0
195.00,258.54,0
88.00,255.74,0
143.00,249.39,0
66.00,239.88,0
68.00,227.59,0
66.00,212.97,0
53.00,196.90,0
108.00,180.50,0
78.00,164.94,0
141.00,151.01,0
127.00,139.46,0
161.00,130.66,0
135.00,124.50,0
209.00,121.01,0
203.00,120.61,0
254.00,123.49,0
271.00,129.69,0
280.00,139.08,0
256.00,150.60,0
310.00,163.47,0
264.00,177.34,0
297.00,191.37,0
275.00,205.08,0
295.00,218.18,0
248.00,230.11,0
270.00,240.35,0
213.00,248.45,0
248.00,254.18,0
201.00,257.66,0
210.00,258.88,0
127.00,257.44,0
149.00,252.89,0
77.00,245.19,0
104.00,234.57,0
31.00,221.34,0
48.00,205.73,0
92.00,188.82,0
72.00,172.24,0
140.00,157.06,0
119.00,144.22,0
177.00,134.30,0
141.00,127.40,0
206.00,123.46,0
190.00,122.52,0
262.00,124.81,0
266.00,130.53,0
254.00,139.25,0
232.00,149.61,0
287.00,160.83,0
271.00,172.96,0
270.00,185.56,0
236.00,197.67,0
270.00,208.69,0
224.00,218.44,0
276.00,226.84,0
215.00,233.91,0
255.00,239.48,0
159.00,243.11,0
192.00,244.15,0
105.00,242.16,0
88.00,236.73,0
62.00,227.57,0
70.00,215.40,0
35.00,201.00,0
40.00,184.89,0
133.00,168.55,0
110.00,153.99,0
158.00,142.07,0
173.00,133.29,0
193.00,128.00,0
178.00,125.83,0
218.00,126.35,0
240.00,129.67,0
263.00,135.87,0
268.00,144.70,0
284.00,155.61,0
269.00,167.90,0
259.00,180.68,0
206.00,192.63,0
285.00,203.25,0
226.00,212.89,0
239.00,221.24,0
212.00,227.84,0
203.00,232.46,0
159.00,234.68,0
170.00,234.31,0
92.00,231.12,0
130.00,225.02,0
46.00,216.23,0
53.00,204.60,0
64.00,190.74,0
72.00,175.97,0
120.00,161.61,0
88.00,148.66,0
180.00,137.85,0
218.00,130.61,0
176.00,127.36,0
186.00,126.97,0
278.00,129.31,0
265.00,135.15,0
238.00,143.84,0
270.00,154.06,0
248.00,165.21,0
231.00,176.49,0
216.00,186.88,0
46.00,194.46,0
288.00,198.71,0
318.00,203.14,0
170.00,208.82,0
154.00,212.94,0
247.00,215.01,0
140.00,215.98,0
112.00,214.87,0
129.00,211.00,0
138.00,205.26,0
44.00,197.83,0
54.00,187.97,0
33.00,175.72,0
58.00,162.07,0
99.00,148.38,0
74.00,135.80,0
127.00,124.84,0
146.00,116.31,0
187.00,111.05,0
168.00,109.06,0
227.00,110.13,0
216.00,114.25,0
202.00,120.73,0
242.00,128.78,0
274.00,138.58,0
270.00,150.20,0
265.00,162.97,0
234.00,175.82,0
249.00,187.89,0
245.00,198.92,0
247.00,208.88,0
216.00,217.43,0
227.00,224.22,0
164.00,228.86,0
196.00,231.01,0
162.00,230.91,0
198.00,229.15,0
110.00,225.74,0
127.00,220.14,0
51.00,212.06,0
59.00,201.27,0
46.00,188.22,0
37.00,173.57,0
82.00,158.39,0
91.00,144.02,0
115.00,131.47,0
132.00,121.34,0
169.00,114.14,0
174.00,110.20,0
186.00,109.41,0
221.00,111.55,0
234.00,116.63,0
247.00,124.44,0
262.00,134.45,0
236.00,145.93,0
257.00,158.05,0
255.00,170.34,0
276.00,182.66,0
266.00,194.87,0
250.00,206.44,0
172.00,216.17,0
226.00,223.20,0
198.00,227.94,0
191.00,230.73,0
181.00,231.51,0
158.00,230.30,0
92.00,226.65,0
116.00,220.18,0
90.00,211.40,0
75.00,200.76,0
35.00,188.31,0
34.00,174.08,0
52.00,158.77,0
50.00,143.43,0
102.00,129.13,0
104.00,116.96,0
153.00,107.67,0
130.00,101.52,0
200.00,98.59,0
208.00,99.21,0
252.00,103.56,0
214.00,111.15,0
250.00,120.94,0
251.00,132.36,0
248.00,144.94,0
230.00,157.78,0
278.00,170.47,0
237.00,182.94,0
242.00,194.59,0
221.00,204.80,0
235.00,213.38,0
200.00,220.21,0
211.00,225.11,0
161.00,227.87,0
178.00,228.29,0
115.00,226.26,0
109.00,221.52,0
45.00,213.75,0
68.00,202.98,0
38.00,189.92,0
40.00,175.23,0
85.00,159.95,0
68.00,145.34,0
108.00,132.15,0
134.00,121.21,0
143.00,113.20,0
183.00,108.37,0
219.00,107.14,0
222.00,109.65,0
218.00,115.20,0
222.00,122.87,0
237.00,132.04,0
259.00,142.57,0
289.00,154.49,0
246.00,167.42,0
247.00,180.23,0
225.00,191.99,0
245.00,202.36,0
220.00,211.28,0
234.00,218.66,0
190.00,224.29,0
234.00,228.16,0
119.00,229.98,0
176.00,229.10,0
104.00,225.63,0
127.00,219.77,0
61.00,211.51,0
148.00,201.51,0
33.00,190.43,0
34.00,177.73,0
93.00,163.82,0
61.00,150.14,0
132.00,137.65,0
106.00,127.17,0
158.00,119.17,0
176.00,114.10,0
176.00,112.15,0
172.00,112.77,0
237.00,115.78,0
252.00,121.67,0
250.00,130.30,0
244.00,140.83,0
225.00,152.16,0
261.00,163.63,0
242.00,175.13,0
246.00,186.26,0
259.00,196.78,0
218.00,206.38,0
226.00,214.47,0
188.00,220.61,0
225.00,224.81,0
162.00,227.18,0
180.00,227.50,0
123.00,225.53,0
104.00,220.93,0
60.00,213.37,0
69.00,202.98,0
40.00,190.35,0
60.00,176.18,0
77.00,161.54,0
99.00,147.66,0
127.00,135.55,0
166.00,126.16,0
188.00,120.21,0
186.00,117.77,0
230.00,118.56,0
217.00,122.38,0
245.00,128.77,0
230.00,137.14,0
284.00,147.14,0
296.00,158.95,0
254.00,171.99,0
256.00,184.97,0
251.00,197.12,0
231.00,208.02,0
255.00,217.43,0
220.00,225.33,0
236.00,231.58,0
214.00,236.16,0
224.00,239.18,0
138.00,240.18,0
157.00,238.41,0
108.00,233.84,0
162.00,227.07,0
50.00,218.42,0
75.00,207.37,0
60.00,194.27,0
71.00,180.11,0
73.00,165.63,0
66.00,151.50,0
147.00,138.67,0
136.00,128.44,0
164.00,121.26,0
186.00,117.16,0
206.00,116.29,0
230.00,118.69,0
248.00,124.11,0
260.00,132.27,0
274.00,142.76,0
257.00,154.82,0
267.00,167.59,0
293.00,180.71,0
259.00,193.93,0
266.00,206.47,0
270.00,217.94,0
251.00,228.19,0
275.00,237.09,0
210.00,244.38,0
240.00,249.55,0
199.00,252.59,0
223.00,253.68,0
109.00,252.30,0
122.00,247.53,0
53.00,239.10,0
79.00,227.30,0
39.00,212.84,0
41.00,196.44,0
91.00,179.17,0
71.00,162.55,0
153.00,147.73,0
136.00,135.83,0
179.00,127.30,0
187.00,122.25,0
216.00,120.75,0
224.00,122.58,0
246.00,127.46,0
248.00,134.90,0
245.00,144.25,0
288.00,155.11,0
294.00,167.46,0
268.00,180.76,0
269.00,194.00,0
254.00,206.40,0
255.00,217.54,0
228.00,227.01,0
259.00,234.71,0
190.00,240.55,0
202.00,244.00,0
171.00,244.89,0
177.00,243.44,0
126.00,239.69,0
129.00,233.55,0
78.00,224.98,0
109.00,214.27,0
39.00,201.81,0
52.00,187.65,0
61.00,172.35,0
55.00,156.90,0
99.00,142.21,0
112.00,129.35,0
150.00,119.22,0
159.00,112.34,0
197.00,108.93,0
224.00,109.19,0
258.00,113.31,0
233.00,120.74,0
258.00,130.52,0
256.00,141.99,0
274.00,154.64,0
279.00,168.10,0
257.00,181.76,0
270.00,194.93,0
287.00,207.45,0
252.00,219.16,0
264.00,229.54,0
216.00,238.06,0
217.00,244.21,0
162.00,247.50,0
152.00,247.53,0
108.00,244.12,0
124.00,237.46,0
65.00,228.04,0
114.00,216.40,0
33.00,203.11,0
40.00,188.10,0
85.00,172.14,0
71.00,156.62,0
122.00,142.53,0
119.00,130.70,0
157.00,121.66,0
191.00,115.96,0
218.00,114.07,0
213.00,115.81,0
263.00,120.87,0
295.00,129.27,0
249.00,140.52,0
259.00,153.11,0
258.00,166.10,0
254.00,178.99,0
284.00,191.55,0
218.00,203.38,0
257.00,213.72,0
219.00,222.37,0
231.00,229.24,0
182.00,234.01,0
223.00,236.64,0
146.00,237.20,0
156.00,235.34,0
90.00,230.65,0
104.00,223.07,0
45.00,212.75,0
34.00,199.78,0
41.00,184.57,0
49.00,168.28,0
86.00,152.19,0
107.00,137.64,0
164.00,125.87,0
160.00,117.68,0
199.00,113.21,0
183.00,112.21,0
252.00,114.47,0
228.00,119.95,0
240.00,127.99,0
272.00,137.97,0
293.00,149.89,0
276.00,163.38,0
263.00,177.44,0
260.00,191.05,0
293.00,203.97,0
269.00,216.28,0
273.00,227.62,0
225.00,237.31,0
234.00,244.73,0
203.00,249.69,0
224.00,252.34,0
156.00,252.69,0
199.00,250.66,0
124.00,246.42,0
104.00,239.60,0
40.00,229.50,0
43.00,216.09,0
92.00,200.56,0
55.00,184.43,0
117.00,168.71,0
88.00,154.29,0
160.00,141.99,0
135.00,132.44,0
168.00,125.75,0
240.00,122.43,0
262.00,123.39,0
249.00,128.45,0
261.00,136.57,0
274.00,146.86,0
266.00,158.72,0
293.00,171.61,0
265.00,184.99,0
257.00,197.98,0
247.00,209.79,0
246.00,220.07,0
255.00,228.82,0
184.00,235.65,0
183.00,239.69,0
152.00,240.63,0
141.00,238.51,0
58.00,233.06,0
103.00,224.16,0
38.00,212.44,0
44.00,198.32,0
61.00,182.53,0
83.00,166.51,0
143.00,151.88,0
132.00,139.90,0
190.00,131.10,0
195.00,125.96,0
262.00,124.91,0
273.00,128.26,0
241.00,135.27,0
254.00,144.52,0
262.00,155.14,0
267.00,166.73,0
305.00,179.17,0
268.00,192.15,0
300.00,205.09,0
229.00,217.21,0
266.00,227.71,0
210.00,236.18,0
232.00,242.41,0
185.00,246.23,0
201.00,247.64,0
145.00,246.59,0
176.00,243.17,0
103.00,237.45,0
118.00,229.40,0
54.00,218.97,0
51.00,206.11,0
39.00,191.16,0
34.00,174.85,0
44.00,157.94,0
56.00,141.35,0
123.00,126.38,0
128.00,114.36,0
202.00,106.25,0
186.00,102.56,0
212.00,102.84,0
229.00,106.58,0
244.00,113.43,0
286.00,123.16,0
306.00,135.72,0
270.00,150.46,0
282.00,166.03,0
259.00,181.40,0
252.00,195.79,0
282.00,208.88,0
308.00,221.21,0
268.00,232.91,0
255.00,243.18,0
225.00,251.24,0
236.00,256.82,0
185.00,259.88,0
221.00,260.44,0
136.00,258.57,0
175.00,254.13,0
86.00,247.09,0
140.00,237.56,0
70.00,226.10,0
47.00,212.64,0
41.00,197.10,0
46.00,180.22,0
78.00,163.20,0
57.00,147.02,0
124.00,132.48,0
109.00,120.47,0
155.00,111.46,0
171.00,105.80,0
198.00,103.78,0
214.00,105.24,0
216.00,109.80,0
257.00,117.09,0
257.00,126.89,0
274.00,138.77,0
285.00,152.22,0
261.00,166.53,0
278.00,180.92,0
279.00,194.92,0
276.00,208.30,0
275.00,220.72,0
242.00,231.69,0
269.00,240.86,0
252.00,248.40,0
226.00,254.17,0
233.00,257.91,0
178.00,259.42,0
179.00,258.37,0
147.00,254.63,0
144.00,248.50,0
97.00,240.03,0
109.00,229.38,0
44.00,216.61,0
43.00,201.77,0
33.00,185.18,0
49.00,167.71,0
99.00,150.80,0
93.00,135.78,0
134.00,123.33,0
153.00,114.04,0
179.00,108.32,0
166.00,105.98,0
204.00,106.59,0
236.00,110.26,0
244.00,117.01,0
250.00,126.32,0
265.00,137.57,0
238.00,149.97,0
277.00,162.85,0
227.00,175.68,0
271.00,187.90,0
282.00,199.66,0
252.00,210.96,0
217.00,220.87,0
299.00,229.24,0
237.00,236.71,0
247.00,243.00,0
182.00,247.30,0
217.00,249.23,0
154.00,248.84,0
202.00,246.35,0
132.00,242.02,0
127.00,235.65,0
72.00,226.82,0
60.00,215.35,0
32.00,201.35,0
41.00,185.43,0
45.00,168.50,0
84.00,151.84,0
118.00,136.90,0
136.00,124.79,0
188.00,116.24,0
148.00,111.39,0
230.00,109.93,0
202.00,111.86,0
250.00,116.92,0
283.00,125.06,0
266.00,136.03,0
272.00,148.83,0
267.00,162.52,0
268.00,176.43,0
288.00,190.20,0
251.00,203.42,0
302.00,215.77,0
228.00,226.97,0
253.00,236.34,0
263.00,243.88,0
254.00,250.08,0
210.00,254.64,0
176.00,256.66,0
148.00,255.57,0
160.00,251.50,0
70.00,244.49,0
118.00,234.50,0
32.00,221.92,0
36.00,206.76,0
84.00,189.94,0
61.00,173.05,0
124.00,157.22,0
142.00,143.72,0
172.00,133.50,0
150.00,126.55,0
218.00,122.84,0
212.00,122.53,0
220.00,125.36,0
253.00,130.90,0
277.00,139.09,0
250.00,149.45,0
237.00,160.74,0
280.00,172.31,0
274.00,184.24,0
281.00,196.38,0
256.00,208.16,0
243.00,218.79,0
259.00,227.92,0
232.00,235.52,0
251.00,241.57,0
170.00,245.66,0
210.00,247.27,0
135.00,246.34,0
216.00,243.24,0
138.00,238.66,0
141.00,232.54,0
64.00,224.21,0
97.00,213.51,0
55.00,200.90,0
38.00,186.70,0
69.00,171.34,0
74.00,156.06,0
113.00,142.02,0
136.00,130.26,0
116.00,121.15,0
185.00,114.79,0
162.00,111.49,0
212.00,111.31,0
218.00,114.10,0
233.00,119.76,0
308.00,128.30,0
309.00,140.19,0
262.00,154.41,0
279.00,169.30,0
282.00,184.14,0
280.00,198.61,0
266.00,212.21,0
287.00,224.61,0
256.00,235.66,0
245.00,244.90,0
217.00,251.79,0
177.00,255.77,0
230.00,256.97,0
174.00,256.09,0
185.00,253.27,0
119.00,248.24,0
115.00,240.66,0
59.00,230.33,0
85.00,217.52,0
31.00,202.76,0
32.00,186.35,0
57.00,168.99,0
55.00,151.88,0
90.00,135.98,0
110.00,122.25,0
147.00,111.55,0
161.00,104.39,0
196.00,100.98,0
219.00,101.40,0
224.00,105.45,0
264.00,112.74,0
249.00,122.79,0
269.00,134.87,0
295.00,148.51,0
277.00,163.35,0
300.00,178.73,0
285.00,194.11,0
303.00,209.10,0
214.00,222.71,0
254.00,233.83,0
256.00,242.64,0
224.00,249.50,0
193.00,253.87,0
214.00,255.60,0
159.00,254.88,0
193.00,251.91,0
91.00,246.60,0
129.00,238.59,0
55.00,227.90,0
113.00,215.19,0
36.00,201.02,0
33.00,185.42,0
106.00,169.14,0
46.00,153.58,0
127.00,139.36,0
103.00,127.29,0
170.00,118.05,0
160.00,112.10,0
239.00,109.90,0
205.00,111.54,0
263.00,116.60,0
246.00,124.65,0
243.00,134.89,0
268.00,146.46,0
261.00,159.01,0
253.00,171.91,0
258.00,184.50,0
295.00,196.75,0
272.00,208.81,0
245.00,220.02,0
272.00,229.82,0
214.00,237.95,0
305.00,244.57,0
199.00,249.98,0
235.00,253.57,0
190.00,255.01,0
224.00,254.60,0
134.00,252.24,0
198.00,247.81,0
90.00,241.37,0
67.00,232.13,0
42.00,219.62,0
41.00,204.43,0
74.00,187.75,0
42.00,170.81,0
110.00,154.48,0
124.00,140.16,0
163.00,128.98,0
148.00,121.17,0
200.00,116.66,0
205.00,115.58,0
262.00,118.13,0
240.00,124.14,0
266.00,132.91,0
274.00,143.83,0
242.00,156.08,0
271.00,168.74,0
264.00,181.44,0
271.00,193.94,0
253.00,205.79,0
214.00,216.17,0
263.00,224.72,0
212.00,231.66,0
233.00,236.87,0
138.00,239.76,0
273.00,240.48,0
125.00,239.78,0
202.00,237.32,0
127.00,233.03,0
126.00,226.85,0
49.00,218.19,0
103.00,207.12,0
37.00,194.27,0
56.00,180.00,0
77.00,165.08,0
45.00,150.37,0
112.00,136.52,0
126.00,124.74,0
138.00,115.81,0
164.00,109.90,0
185.00,107.14,0
189.00,107.46,0
234.00,110.72,0
250.00,117.03,0
262.00,126.15,0
261.00,137.48,0
265.00,150.24,0
260.00,163.66,0
218.00,176.74,0
295.00,189.01,0
266.00,200.97,0
252.00,212.32,0
256.00,222.41,0
225.00,230.90,0
250.00,237.62,0
184.00,242.39,0
222.00,244.95,0
144.00,245.19,0
188.00,243.04,0
121.00,238.65,0
144.00,232.16,0
114.00,223.85,0
131.00,214.31,0
32.00,203.36,0
82.00,190.63,0
48.00,176.67,0
39.00,162.04,0
112.00,147.53,0
88.00,134.54,0
140.00,123.75,0
132.00,115.58,0
173.00,110.32,0
144.00,107.79,0
190.00,107.69,0
212.00,110.14,0
222.00,115.28,0
230.00,122.73,0
250.00,132.02,0
246.00,142.77,0
297.00,154.79,0
254.00,167.88,0
250.00,180.98,0
244.00,193.20,0
243.00,204.20,0
251.00,213.92,0
274.00,222.66,0
181.00,230.04,0
257.00,235.40,0
159.00,238.73,0
163.00,239.45,0
124.00,237.08,0
132.00,231.92,0
57.00,223.99,0
73.00,213.16,0
37.00,199.84,0
52.00,184.77,0
59.00,168.84,0
46.00,152.93,0
105.00,137.91,0
89.00,124.78,0
164.00,114.37,0
159.00,107.45,0
194.00,104.22,0
228.00,104.79,0
242.00,109.12,0
215.00,116.46,0
233.00,125.70,0
262.00,136.38,0
240.00,148.21,0
257.00,160.55,0
252.00,172.93,0
223.00,184.75,0
270.00,195.62,0
252.00,205.83,0
253.00,215.26,0
212.00,223.33,0
217.00,229.46,0
166.00,233.25,0
180.00,234.43,0
100.00,232.69,0
117.00,227.76,0
86.00,219.94,0
110.00,210.01,0
32.00,198.35,0
67.00,184.90,0
63.00,170.49,0
56.00,155.97,0
113.00,142.16,0
90.00,130.05,0
146.00,120.16,0
166.00,113.24,0
190.00,109.75,0
164.00,109.34,0
225.00,111.59,0
211.00,116.44,0
250.00,123.66,0
255.00,133.03,0
260.00,144.17,0
275.00,156.54,0
233.00,169.39,0
248.00,181.73,0
244.00,193.14,0
232.00,203.43,0
254.00,212.47,0
175.00,219.88,0
237.00,225.20,0
195.00,228.76,0
191.00,230.66,0
162.00,230.56,0
188.00,228.68,0
115.00,225.09,0
127.00,219.40,0
68.00,211.43,0
63.00,201.10,0
34.00,188.46,0
81.00,174.40,0
70.00,160.14,0
113.00,146.77,0
137.00,135.33,0
127.00,126.40,0
192.00,120.29,0
158.00,117.19,0
194.00,116.76,0
210.00,118.83,0
224.00,123.43,0
227.00,130.16,0
252.00,138.66,0
267.00,148.77,0
238.00,160.00,0
264.00,171.56,0
290.00,183.38,0
287.00,195.64,0
250.00,207.72,0
216.00,218.32,0
234.00,226.72,0
199.00,232.88,0
220.00,236.91,0
175.00,238.87,0
184.00,238.66,0
114.00,236.04,0
135.00,230.77,0
53.00,222.70,0
81.00,211.82,0
32.00,198.59,0
56.00,183.56,0
62.00,167.75,0
72.00,152.29,0
127.00,138.25,0
122.00,126.71,0
166.00,118.21,0
161.00,112.91,0
209.00,110.95,0
205.00,112.24,0
250.00,116.69,0
211.00,123.77,0
255.00,132.73,0
255.00,143.20,0
227.00,154.61,0
245.00,166.06,0
261.00,177.33,0
256.00,188.49,0
262.00,199.30,0
270.00,209.61,0
241.00,219.13,0
232.00,227.25,0
240.00,233.72,0
185.00,238.32,0
210.00,240.70,0
153.00,240.83,0
157.00,238.53,0
116.00,233.73,0
110.00,226.50,0
45.00,216.68,0
45.00,204.09,0
38.00,189.23,0
46.00,173.08,0
75.00,156.76,0
45.00,141.17,0
127.00,127.06,0
114.00,115.56,0
191.00,107.52,0
168.00,103.32,0
208.00,102.77,0
198.00,105.39,0
223.00,110.76,0
237.00,118.46,0
244.00,128.14,0
262.00,139.43,0
247.00,151.80,0
219.00,164.22,0
235.00,175.85,0
235.00,186.50,0
261.00,196.41,0
253.00,205.80,0
236.00,214.41,0
222.00,221.69,0
245.00,227.55,0
182.00,231.87,0
214.00,234.30,0
126.00,234.46,0
166.00,232.07,0
134.00,227.49,0
142.00,221.22,0
72.00,213.21,0
84.00,203.12,0
33.00,191.02,0
38.00,177.07,0
62.00,162.06,0
79.00,147.27,0
97.00,133.78,0
100.00,122.20,0
132.00,112.90,0
146.00,106.32,0
177.00,102.81,0
186.00,102.39,0
235.00,105.18,0
222.00,111.12,0
248.00,119.60,0
258.00,130.15,0
269.00,142.47,0
271.00,155.92,0
232.00,169.60,0
263.00,182.65,0
243.00,194.80,0
229.00,205.67,0
239.00,214.91,0
198.00,222.29,0
205.00,227.51,0
172.00,230.40,0
184.00,231.06,0
151.00,229.60,0
177.00,226.38,0
78.00,221.26,0
105.00,213.64,0
35.00,203.43,0
51.00,190.80,0
65.00,176.48,0
59.00,161.74,0
100.00,147.54,0
133.00,135.10,0
149.00,125.45,0
174.00,118.98,0
204.00,115.96,0
229.00,116.57,0
220.00,120.52,0
261.00,127.27,0
252.00,136.43,0
279.00,147.54,0
244.00,159.87,0
277.00,172.60,0
259.00,185.31,0
264.00,197.62,0
292.00,209.37,0
230.00,220.29,0
239.00,229.49,0
178.00,236.21,0
192.00,239.99,0
130.00,240.61,0
147.00,238.06,0
73.00,232.35,0
116.00,223.68,0
42.00,212.53,0
34.00,198.92,0
75.00,183.51,0
94.00,168.00,0
117.00,153.80,0
140.00,141.80,0
174.00,132.72,0
171.00,126.88,0
213.00,124.31,0
252.00,125.30,0
222.00,129.67,0
224.00,136.34,0
268.00,144.67,0
272.00,154.76,0
251.00,166.13,0
231.00,177.59,0
222.00,188.15,0
240.00,197.52,0
268.00,206.13,0
219.00,214.07,0
233.00,220.79,0
176.00,225.71,0
218.00,228.61,0
182.00,229.81,0
166.00,229.29,0
95.00,226.33,0
112.00,220.49,0
58.00,211.84,0
91.00,200.90,0
34.00,188.18,0
46.00,174.01,0
93.00,159.30,0
94.00,145.55,0
151.00,133.86,0
134.00,124.93,0
183.00,118.98,0
186.00,116.19,0
220.00,116.64,0
208.00,120.07,0
251.00,126.05,0
283.00,134.62,0
228.00,145.34,0
278.00,157.08,0
268.00,169.51,0
272.00,182.31,0
254.00,194.83,0
261.00,206.49,0
262.00,217.12,0
243.00,226.51,0
251.00,234.42,0
209.00,240.56,0
222.00,244.64,0
188.00,246.61,0
184.00,246.40,0
142.00,243.85,0
142.00,238.89,0
58.00,231.20,0
96.00,220.63,0
30.00,207.55,0
64.00,192.60,0
48.00,176.56,0
63.00,160.39,0
134.00,145.35,0
88.00,132.57,0
152.00,122.30,0
160.00,115.00,0
183.00,111.05,0
190.00,110.30,0
201.00,112.37,0
235.00,117.06,0
221.00,124.15,0
277.00,133.30,0
261.00,144.39,0
260.00,156.82,0
245.00,169.55,0
292.00,182.22,0
268.00,194.88,0
275.00,207.19,0
265.00,218.64,0
242.00,228.78,0
265.00,237.30,0
192.00,243.89,0
216.00,247.98,0
168.00,249.39,0
182.00,248.30,0
150.00,244.92,0
118.00,239.23,0
64.00,230.65,0
86.00,219.26,0
56.00,205.75,0
44.00,190.59,0
86.00,174.69,0
92.00,159.39,0
127.00,145.76,0
179.00,134.93,0
228.00,128.11,0
188.00,125.48,0
190.00,125.89,0
235.00,128.66,0
236.00,133.90,0
228.00,141.18,0
265.00,149.95,0
270.00,160.17,0
261.00,171.45,0
290.00,183.31,0
274.00,195.48,0
276.00,207.47,0
285.00,218.89,0
261.00,229.49,0
253.00,238.71,0
239.00,246.15,0
212.00,251.45,0
220.00,254.46,0
227.00,255.59,0
169.00,254.97,0
157.00,252.04,0
84.00,246.19,0
120.00,237.31,0
67.00,225.89,0
47.00,212.26,0
36.00,196.49,0
38.00,179.29,0
78.00,161.84,0
74.00,145.45,0
127.00,131.10,0
145.00,119.79,0
183.00,112.20,0
205.00,108.66,0
236.00,109.26,0
232.00,113.62,0
263.00,121.15,0
275.00,131.41,0
313.00,144.23,0
282.00,158.98,0
266.00,174.39,0
270.00,189.31,0
280.00,203.36,0
264.00,216.36,0
295.00,228.19,0
244.00,238.72,0
231.00,247.21,0
238.00,253.29,0
229.00,257.26,0
196.00,259.14,0
182.00,258.66,0
135.00,255.49,0
153.00,249.66,0
94.00,241.39,0
86.00,230.65,0
34.00,217.30,0
66.00,201.79,0
59.00,185.21,0
57.00,168.50,0
111.00,152.57,0
95.00,138.52,0
142.00,126.92,0
160.00,118.35,0
180.00,113.22,0
193.00,111.48,0
209.00,112.86,0
247.00,117.25,0
295.00,124.98,0
268.00,135.88,0
285.00,148.85,0
274.00,163.04,0
276.00,177.58,0
305.00,192.10,0
282.00,206.44,0
269.00,219.93,0
279.00,231.99,0
245.00,242.35,0
248.00,250.61,0
257.00,256.86,0
239.00,261.39,0
172.00,263.70,0
213.00,263.32,0
176.00,260.74,0
135.00,255.96,0
96.00,248.28,0
100.00,237.78,0
45.00,224.72,0
40.00,209.30,0
36.00,192.01,0
44.00,173.83,0
127.00,156.33,0
101.00,141.16,0
161.00,129.02,0
176.00,120.49,0
160.00,115.56,0
201.00,113.75,0
196.00,114.86,0
227.00,118.67,0
252.00,125.07,0
264.00,134.02,0
303.00,145.36,0
296.00,158.78,0
282.00,173.51,0
304.00,188.58,0
293.00,203.58,0
268.00,217.81,0
276.00,230.56,0
233.00,241.34,0
258.00,249.80,0
230.00,256.06,0
267.00,260.51,0
192.00,263.18,0
220.00,263.70,0
130.00,261.64,0
154.00,256.66,0
80.00,248.64,0
79.00,237.51,0
52.00,223.56,0
48.00,207.47,0
78.00,190.19,0
75.00,173.07,0
121.00,157.23,0
110.00,143.52,0
182.00,132.69,0
179.00,125.46,0
216.00,122.12,0
253.00,122.68,0
252.00,127.11,0
280.00,134.84,0
310.00,145.57,0
275.00,158.60,0
304.00,172.90,0
282.00,187.69,0
284.00,202.25,0
269.00,215.88,0
321.00,228.55,0
249.00,240.21,0
238.00,249.86,0
224.00,256.78,0
215.00,260.97,0
178.00,262.43,0
176.00,261.04,0
149.00,256.97,0
127.00,250.34,0
59.00,240.84,0
79.00,228.35,0
61.00,213.55,0
48.00,197.33,0
58.00,180.27,0
65.00,163.24,0
107.00,147.34,0
110.00,133.60,0
170.00,122.84,0
140.00,115.48,0
195.00,111.39,0
213.00,110.72,0
215.00,113.46,0
206.00,118.82,0
241.00,126.11,0
252.00,135.24,0
273.00,146.11,0
287.00,158.54,0
313.00,172.32,0
261.00,186.79,0
283.00,200.84,0
251.00,213.79,0
304.00,225.56,0
263.00,236.32,0
284.00,245.89,0
259.00,254.04,0
237.00,260.43,0
195.00,264.36,0
254.00,265.89,0
170.00,265.48,0
202.00,263.00,0
127.00,258.18,0
128.00,250.79,0
36.00,240.37,0
69.00,226.76,0
35.00,210.63,0
40.00,192.92,0
71.00,174.63,0
80.00,157.13,0
126.00,141.59,0
117.00,128.81,0
145.00,119.01,0
132.00,112.09,0
196.00,108.15,0
204.00,107.58,0
238.00,110.52,0
260.00,116.94,0
228.00,126.10,0
305.00,137.35,0
264.00,150.52,0
240.00,164.44,0
265.00,177.91,0
274.00,190.91,0
272.00,203.46,0
260.00,215.17,0
255.00,225.61,0
205.00,234.14,0
235.00,240.33,0
172.00,244.08,0
212.00,245.38,0
172.00,244.62,0
171.00,241.96,0
69.00,236.72,0
102.00,228.34,0
78.00,217.35,0
77.00,204.60,0
39.00,190.40,0
58.00,175.07,0
59.00,159.42,0
59.00,144.19,0
132.00,130.40,0
143.00,119.46,0
164.00,112.01,0
161.00,107.89,0
211.00,106.95,0
197.00,109.14,0
230.00,114.09,0
217.00,121.31,0
245.00,130.30,0
249.00,140.71,0
257.00,152.25,0
278.00,164.60,0
265.00,177.45,0
270.00,190.27,0
278.00,202.68,0
259.00,214.38,0
267.00,224.97,0
176.00,233.58,0
220.00,239.34,0
208.00,242.63,0
172.00,243.79,0
160.00,242.50,0
153.00,238.83,0
98.00,232.81,0
135.00,224.55,0
63.00,214.41,0
61.00,202.27,0
37.00,188.22,0
41.00,172.75,0
73.00,156.84,0
85.00,141.81,0
147.00,128.92,0
152.00,119.28,0
198.00,113.36,0
225.00,111.54,0
217.00,113.63,0
260.00,119.06,0
241.00,127.31,0
247.00,137.59,0
244.00,148.94,0
278.00,161.00,0
266.00,173.68,0
265.00,186.46,0
266.00,198.78,0
245.00,210.18,0
268.00,220.36,0
255.00,229.37,0
233.00,236.99,0
172.00,242.32,0
195.00,244.72,0
151.00,244.35,0
178.00,241.56,0
135.00,236.77,0
158.00,230.31,0
118.00,222.51,0
91.00,213.22,0
55.00,202.07,0
36.00,188.89,0
76.00,174.28,0
64.00,159.45,0
98.00,145.41,0
115.00,133.02,0
160.00,123.25,0
182.00,116.86,0
216.00,114.28,0
233.00,115.61,0
256.00,120.56,0
258.00,128.64,0
264.00,139.17,0
275.00,151.36,0
282.00,164.70,0
295.00,178.82,0
313.00,193.44,0
280.00,208.10,0
244.00,221.61,0
216.00,232.69,0
234.00,240.91,0
180.00,246.32,0
210.00,248.91,0
109.00,248.52,0
146.00,244.71,0
83.00,237.71,0
85.00,227.80,0
41.00,215.10,0
32.00,199.95,0
95.00,183.46,0
78.00,167.32,0
152.00,152.85,0
124.00,140.99,0
198.00,132.27,0
193.00,127.19,0
232.00,125.85,0
216.00,127.96,0
295.00,133.28,0
260.00,141.71,0
282.00,152.53,0
234.00,164.47,0
309.00,176.87,0
294.00,189.94,0
318.00,203.63,0
285.00,217.34,0
310.00,230.49,0
249.00,242.40,0
258.00,252.26,0
186.00,259.25,0
206.00,262.88,0
166.00,263.25,0
168.00,260.69,0
106.00,255.15,0
105.00,246.48,0
42.00,234.68,0
88.00,220.28,0
48.00,204.22,0
37.00,187.06,0
118.00,169.80,0
102.00,154.16,0
151.00,141.09,0
149.00,131.07,0
200.00,124.50,0
211.00,121.67,0
247.00,122.69,0
264.00,127.44,0
301.00,135.72,0
302.00,147.21,0
310.00,161.15,0
302.00,176.54,0
287.00,192.32,0
278.00,207.51,0
285.00,221.52,0
278.00,234.15,0
298.00,245.42,0
216.00,254.88,0
247.00,261.70,0
219.00,265.93,0
241.00,268.01,0
185.00,268.06,0
189.00,265.83,0
97.00,260.82,0
136.00,252.66,0
55.00,241.57,0
89.00,227.95,0
58.00,212.49,0
41.00,195.72,0
48.00,178.08,0
80.00,160.58,0
129.00,144.76,0
139.00,131.90,0
171.00,122.53,0
173.00,116.76,0
225.00,114.62,0
222.00,116.21,0
253.00,121.22,0
272.00,129.26,0
300.00,140.16,0
314.00,153.62,0
299.00,168.88,0
312.00,184.99,0
326.00,201.44,0
305.00,217.77,0
334.00,233.48,0
288.00,248.13,0
294.00,261.01,0
271.00,271.65,0
280.00,279.98,0
230.00,285.80,0
250.00,288.94,0
182.00,289.34,0
190.00,286.71,0
99.00,280.65,0
130.00,271.03,0
58.00,258.15,0
39.00,242.17,0
74.00,223.76,0
29.00,204.16,0
102.00,184.44,0
110.00,166.20,0
156.00,150.79,0
175.00,139.05,0
214.00,131.49,0
235.00,128.33,0
258.00,129.46,0
260.00,134.37,0
295.00,142.50,0
297.00,153.42,0
341.00,166.82,0
314.00,182.15,0
324.00,198.45,0
309.00,214.78,0
332.00,230.62,0
317.00,245.69,0
322.00,259.66,0
288.00,272.01,0
304.00,282.34,0
290.00,290.66,0
310.00,297.24,0
240.00,301.90,0
229.00,303.88,0
162.00,302.47,0
194.00,297.59,0
125.00,289.64,0
152.00,278.97,0
88.00,265.93,0
73.00,250.57,0
41.00,232.84,0
36.00,213.22,0
90.00,192.95,0
101.00,173.76,0
152.00,157.11,0
177.00,144.08,0
223.00,135.45,0
174.00,130.99,0
232.00,129.89,0
289.00,132.40,0
292.00,139.04,0
300.00,149.15,0
324.00,161.93,0
325.00,176.78,0
307.00,192.80,0
292.00,208.77,0
342.00,224.18,0
330.00,239.26,0
324.00,253.77,0
313.00,267.07,0
310.00,278.76,0
303.00,288.65,0
280.00,296.50,0
241.00,301.77,0
267.00,304.29,0
153.00,303.78,0
212.00,299.82,0
107.00,292.57,0
144.00,282.06,0
45.00,268.41,0
88.00,251.85,0
59.00,233.28,0
33.00,213.38,0
106.00,193.14,0
87.00,174.11,0
148.00,157.42,0
136.00,143.82,0
174.00,133.63,0
170.00,126.86,0
240.00,123.75,0
228.00,124.53,0
253.00,128.86,0
276.00,136.20,0
269.00,146.20,0
288.00,158.05,0
269.00,171.02,0
305.00,184.60,0
290.00,198.50,0
243.00,211.82,0
259.00,223.49,0
200.00,232.92,0
222.00,239.67,0
196.00,243.81,0
202.00,245.65,0
138.00,245.04,0
167.00,241.82,0
116.00,236.20,0
166.00,228.81,0
95.00,220.09,0
84.00,209.85,0
49.00,197.67,0
40.00,183.70,0
93.00,168.85,0
90.00,154.56,0
161.00,142.19,0
143.00,132.68,0
186.00,126.33,0
204.00,123.28,0
243.00,123.79,0
251.00,127.87,0
278.00,135.20,0
246.00,144.98,0
276.00,156.26,0
311.00,168.84,0
274.00,182.47,0
299.00,196.38,0
245.00,209.68,0
279.00,221.68,0
275.00,232.39,0
279.00,241.99,0
295.00,250.61,0
245.00,258.08,0
224.00,263.56,0
203.00,266.43,0
213.00,266.76,0
141.00,264.55,0
167.00,259.60,0
101.00,252.02,0
115.00,241.96,0
58.00,229.53,0
46.00,214.77,0
65.00,198.22,0
62.00,181.09,0
135.00,164.77,0
92.00,150.43,0
118.00,138.17,0
160.00,128.32,0
190.00,121.79,0
179.00,118.78,0
231.00,119.00,0
233.00,122.44,0
241.00,128.74,0
284.00,137.57,0
286.00,148.79,0
305.00,161.98,0
286.00,176.44,0
289.00,191.24,0
294.00,205.74,0
271.00,219.44,0
278.00,231.81,0
255.00,242.48,0
278.00,251.39,0
229.00,258.44,0
243.00,263.36,0
197.00,265.93,0
193.00,265.97,0
167.00,263.41,0
183.00,258.62,0
92.00,251.63,0
99.00,241.84,0
61.00,229.25,0
44.00,214.27,0
34.00,197.34,0
64.00,179.37,0
116.00,162.08,0
62.00,146.54,0
175.00,133.32,0
175.00,123.73,0
215.00,118.52,0
244.00,117.74,0
248.00,121.14,0
284.00,128.21,0
274.00,138.46,0
306.00,151.10,0
277.00,165.34,0
308.00,180.38,0
268.00,195.43,0
300.00,209.88,0
298.00,223.57,0
243.00,235.99,0
248.00,246.16,0
210.00,253.57,0
213.00,258.10,0
177.00,259.73,0
200.00,258.70,0
112.00,255.06,0
106.00,248.19,0
48.00,237.87,0
107.00,224.73,0
33.00,209.77,0
34.00,193.21,0
101.00,175.92,0
99.00,159.72,0
144.00,145.78,0
135.00,134.70,0
197.00,126.87,0
178.00,122.58,0
220.00,121.68,0
222.00,123.97,0
286.00,129.49,0
297.00,138.43,0
302.00,150.45,0
308.00,164.58,0
292.00,179.89,0
307.00,195.48,0
295.00,210.79,0
289.00,225.25,0
268.00,238.22,0
263.00,249.19,0
257.00,257.97,0
229.00,264.43,0
241.00,268.48,0
204.00,270.24,0
245.00,270.04,0
132.00,267.81,0
159.00,262.80,0
86.00,254.74,0
123.00,243.96,0
74.00,231.06,0
33.00,216.07,0
44.00,199.06,0
76.00,181.20,0
146.00,164.46,0
142.00,150.52,0
181.00,140.00,0
192.00,133.11,0
224.00,129.98,0
225.00,130.48,0
234.00,134.05,0
263.00,140.25,0
293.00,149.07,0
276.00,160.17,0
312.00,172.88,0
321.00,186.91,0
297.00,201.73,0
303.00,216.38,0
311.00,230.40,0
300.00,243.57,0
292.00,255.46,0
279.00,265.66,0
273.00,273.91,0
219.00,279.75,0
235.00,282.77,0
180.00,282.89,0
196.00,280.17,0
147.00,274.74,0
149.00,266.81,0
60.00,256.12,0
67.00,242.31,0
58.00,225.92,0
50.00,207.91,0
75.00,189.30,0
92.00,171.33,0
131.00,155.23,0
135.00,141.91,0
195.00,132.01,0
189.00,126.03,0
233.00,124.01,0
254.00,125.94,0
252.00,131.48,0
296.00,140.13,0
302.00,151.52,0
324.00,165.31,0
301.00,180.65,0
271.00,196.26,0
304.00,211.12,0
296.00,225.14,0
302.00,238.26,0
274.00,250.06,0
284.00,260.12,0
225.00,268.00,0
268.00,273.41,0
208.00,276.49,0
252.00,277.43,0
169.00,276.28,0
177.00,272.59,0
83.00,265.77,0
121.00,255.67,0
51.00,242.64,0
63.00,227.11,0
44.00,209.64,0
48.00,191.10,0
108.00,172.72,0
128.00,156.27,0
156.00,142.89,0
188.00,133.22,0
206.00,127.57,0
216.00,125.78,0
256.00,127.65,0
265.00,133.10,0
275.00,141.62,0
307.00,152.67,0
296.00,165.85,0
314.00,180.42,0
302.00,195.69,0
312.00,211.03,0
335.00,226.14,0
279.00,240.58,0
278.00,253.28,0
208.00,263.17,0
256.00,269.83,0
202.00,273.56,0
199.00,274.45,0
154.00,272.30,0
170.00,267.23,0
127.00,259.71,0
98.00,249.69,0
48.00,236.87,0
35.00,221.14,0
35.00,203.17,0
54.00,184.14,0
111.00,165.65,0
131.00,149.49,0
185.00,136.87,0
151.00,128.16,0
243.00,123.32,0
235.00,122.76,0
244.00,126.17,0
289.00,133.03,0
288.00,143.02,0
290.00,155.45,0
280.00,169.30,0
296.00,183.72,0
291.00,198.22,0
308.00,212.50,0
312.00,226.41,0
271.00,239.44,0
268.00,250.69,0
241.00,259.61,0
268.00,266.22,0
193.00,270.42,0
211.00,271.80,0
119.00,269.93,0
143.00,264.42,0
66.00,255.39,0
90.00,243.12,0
52.00,228.21,0
40.00,211.24,0
104.00,193.32,0
73.00,175.98,0
127.00,160.09,0
155.00,146.70,0
214.00,137.06,0
200.00,131.70,0
240.00,130.35,0
256.00,132.72,0
276.00,138.61,0
264.00,147.35,0
290.00,158.18,0
333.00,170.88,0
307.00,185.30,0
315.00,200.60,0
323.00,216.02,0
298.00,231.00,0
307.00,244.90,0
288.00,257.27,0
284.00,267.82,0
226.00,275.90,0
239.00,280.98,0
223.00,283.22,0
223.00,283.06,0
146.00,280.29,0
172.00,274.58,0
110.00,266.11,0
123.00,255.14,0
69.00,241.90,0
67.00,226.59,0
42.00,209.51,0
42.00,191.19,0
90.00,172.74,0
101.00,155.68,0
142.00,141.16,0
151.00,129.88,0
199.00,122.33,0
189.00,118.62,0
221.00,118.45,0
212.00,121.37,0
260.00,127.03,0
296.00,135.61,0
305.00,147.28,0
282.00,161.10,0
295.00,175.92,0
325.00,191.24,0
347.00,207.25,0
299.00,223.47,0
325.00,238.91,0
245.00,252.62,0
289.00,263.81,0
235.00,272.34,0
262.00,278.22,0
182.00,281.27,0
224.00,281.30,0
137.00,278.33,0
144.00,272.14,0
63.00,262.51,0
94.00,249.47,0
35.00,233.65,0
56.00,215.72,0
67.00,196.72,0
80.00,178.01,0
124.00,160.81,0
111.00,146.06,0
183.00,134.41,0
188.00,126.62,0
226.00,122.99,0
229.00,123.36,0
270.00,127.48,0
292.00,135.17,0
303.00,146.10,0
314.00,159.59,0
304.00,174.76,0
320.00,190.80,0
303.00,206.98,0
308.00,222.64,0
289.00,237.16,0
286.00,250.04,0
282.00,261.01,0
229.00,269.62,0
284.00,275.73,0
194.00,279.43,0
225.00,280.43,0
169.00,278.64,0
203.00,274.40,0
86.00,267.54,0
129.00,257.66,0
80.00,245.17,0
59.00,230.46,0
51.00,213.74,0
32.00,195.54,0
100.00,177.02,0
127.00,160.05,0
176.00,146.24,0
155.00,136.14,0
183.00,129.47,0
234.00,126.40,0
218.00,127.09,0
280.00,131.26,0
297.00,139.05,0
278.00,149.89,0
290.00,162.62,0
342.00,176.87,0
327.00,192.58,0
326.00,209.09,0
322.00,225.50,0
304.00,241.04,0
290.00,254.96,0
246.00,266.46,0
273.00,275.10,0
246.00,281.16,0
248.00,284.81,0
198.00,285.93,0
221.00,284.48,0
133.00,280.33,0
133.00,273.04,0
75.00,262.35,0
128.00,248.93,0
33.00,233.46,0
56.00,216.05,0
92.00,197.64,0
102.00,179.94,0
147.00,164.20,0
151.00,151.33,0
212.00,142.00,0
233.00,136.89,0
241.00,136.05,0
275.00,139.11,0
266.00,145.55,0
261.00,154.47,0
272.00,164.88,0
293.00,176.39,0
312.00,188.96,0
310.00,202.45,0
315.00,216.30,0
314.00,230.03,0
299.00,243.13,0
272.00,254.85,0
352.00,265.20,0
254.00,274.47,0
259.00,281.69,0
224.00,286.08,0
201.00,287.42,0
127.00,285.14,0
148.00,278.93,0
41.00,268.73,0
81.00,254.68,0
47.00,237.60,0
42.00,218.48,0
107.00,198.68,0
130.00,180.25,0
168.00,164.72,0
177.00,152.79,0
194.00,144.60,0
241.00,140.25,0
277.00,140.25,0
280.00,144.56,0
268.00,152.19,0
290.00,162.14,0
329.00,174.07,0
328.00,187.96,0
303.00,202.99,0
298.00,217.86,0
318.00,232.03,0
294.00,245.30,0
277.00,257.05,0
240.00,266.46,0
271.00,273.29,0
180.00,277.37,0
214.00,278.28,0
147.00,275.98,0
111.00,270.21,0
44.00,260.28,0
82.00,246.39,0
32.00,229.63,0
32.00,210.75,0
96.00,190.98,0
88.00,172.22,0
191.00,156.09,0
137.00,143.73,0
204.00,135.11,0
211.00,130.35,0
238.00,129.62,0
236.00,132.42,0
288.00,138.41,0
306.00,147.59,0
291.00,159.61,0
306.00,173.35,0
294.00,187.96,0
282.00,202.58,0
296.00,216.53,0
294.00,229.63,0
288.00,241.69,0
258.00,252.18,0
290.00,260.85,0
233.00,267.66,0
237.00,272.19,0
188.00,274.02,0
183.00,272.92,0
127.00,268.66,0
103.00,260.99,0
62.00,249.78,0
59.00,235.29,0
74.00,218.61,0
36.00,200.71,0
106.00,182.56,0
67.00,165.33,0
144.00,149.96,0
144.00,137.43,0
165.00,128.30,0
200.00,122.68,0
241.00,121.00,0
257.00,123.45,0
261.00,129.69,0
307.00,139.12,0
267.00,151.14,0
316.00,164.85,0
307.00,179.75,0
327.00,195.51,0
288.00,211.34,0
293.00,226.28,0
294.00,239.81,0
266.00,251.64,0
282.00,261.46,0
223.00,268.99,0
264.00,274.01,0
216.00,276.77,0
215.00,277.25,0
147.00,275.00,0
203.00,270.08,0
96.00,262.75,0
105.00,252.61,0
55.00,239.54,0
48.00,223.86,0
50.00,206.15,0
46.00,187.50,0
122.00,169.32,0
121.00,153.30,0
166.00,140.44,0
191.00,131.32,0
216.00,126.41,0
232.00,125.59,0
307.00,128.95,0
278.00,136.54,0
247.00,146.95,0
282.00,158.70,0
294.00,171.51,0
302.00,185.24,0
319.00,199.63,0
304.00,214.25,0
300.00,228.41,0
254.00,241.20,0
329.00,252.34,0
277.00,262.29,0
280.00,270.79,0
249.00,277.27,0
221.00,281.27,0
210.00,282.42,0
192.00,280.83,0
134.00,276.34,0
115.00,268.47,0
61.00,257.11,0
80.00,242.60,0
32.00,225.61,0
52.00,206.86,0
108.00,187.80,0
60.00,169.80,0
140.00,153.55,0
166.00,140.30,0
229.00,131.41,0
229.00,127.43,0
248.00,127.90,0
242.00,132.04,0
295.00,139.36,0
306.00,149.74,0
295.00,162.65,0
298.00,176.99,0
267.00,191.60,0
300.00,205.75,0
316.00,219.46,0
290.00,232.74,0
274.00,244.80,0
254.00,254.91,0
266.00,262.80,0
190.00,268.19,0
219.00,270.58,0
173.00,270.03,0
194.00,266.95,0
102.00,261.26,0
110.00,252.47,0
55.00,240.54,0
36.00,225.62,0
91.00,208.61,0
60.00,191.07,0
119.00,174.13,0
168.00,159.35,0
155.00,147.90,0
192.00,139.84,0
230.00,135.49,0
249.00,135.14,0
226.00,138.32,0
265.00,144.15,0
291.00,152.52,0
231.00,162.75,0
302.00,173.87,0
310.00,186.04,0
292.00,199.19,0
291.00,212.38,0
282.00,224.95,0
299.00,236.60,0
283.00,247.25,0
253.00,256.41,0
288.00,263.79,0
175.00,268.97,0
212.00,271.03,0
145.00,269.76,0
135.00,265.12,0
92.00,257.04,0
118.00,246.05,0
38.00,232.59,0
70.00,216.87,0
88.00,199.97,0
66.00,183.04,0
111.00,166.86,0
140.00,152.58,0
235.00,141.89,0
177.00,135.56,0
216.00,132.92,0
249.00,133.61,0
264.00,137.85,0
288.00,145.32,0
296.00,155.56,0
305.00,168.02,0
270.00,181.66,0
314.00,195.60,0
324.00,209.83,0
323.00,224.35,0
287.00,238.36,0
258.00,250.68,0
296.00,260.82,0
237.00,268.89,0
309.00,275.06,0
213.00,279.47,0
224.00,281.50,0
141.00,280.36,0
176.00,275.81,0
70.00,267.89,0
102.00,256.45,0
48.00,241.93,0
34.00,224.82,0
92.00,206.12,0
62.00,187.43,0
97.00,169.63,0
105.00,153.49,0
162.00,140.02,0
160.00,130.01,0
208.00,123.86,0
237.00,121.84,0
250.00,123.99,0
244.00,129.70,0
325.00,138.52,0
302.00,150.54,0
330.00,165.06,0
316.00,181.29,0
306.00,198.10,0
304.00,214.53,0
287.00,229.86,0
299.00,243.65,0
305.00,255.90,0
277.00,266.56,0
282.00,275.27,0
211.00,281.50,0
226.00,284.63,0
161.00,284.41,0
192.00,280.93,0
99.00,274.31,0
113.00,264.35,0
45.00,251.11,0
57.00,234.92,0
69.00,216.77,0
44.00,197.79,0
94.00,178.92,0
80.00,161.26,0
154.00,145.88,0
151.00,133.82,0
210.00,125.73,0
207.00,121.87,0
233.00,122.01,0
266.00,125.82,0
261.00,133.06,0
325.00,143.35,0
312.00,156.50,0
319.00,171.81,0
317.00,188.25,0
304.00,204.92,0
325.00,221.16,0
299.00,236.53,0
262.00,250.20,0
284.00,261.45,0
272.00,270.47,0
236.00,277.19,0
272.00,281.52,0
213.00,283.72,0
224.00,283.64,0
151.00,280.87,0
163.00,275.17,0
99.00,266.48,0
86.00,254.73,0
32.00,239.88,0
40.00,222.24,0
72.00,202.99,0
77.00,183.79,0
136.00,166.10,0
131.00,151.13,0
181.00,139.55,0
185.00,131.76,0
228.00,127.93,0
250.00,128.18,0
275.00,132.46,0
284.00,140.27,0
301.00,151.06,0
314.00,164.21,0
295.00,178.87,0
329.00,194.28,0
331.00,210.21,0
291.00,225.97,0
291.00,240.42,0
282.00,253.00,0
292.00,263.68,0
255.00,272.35,0
254.00,278.65,0
180.00,282.00,0
222.00,282.13,0
176.00,279.49,0
168.00,274.35,0
96.00,266.41,0
126.00,255.61,0
49.00,242.23,0
35.00,226.15,0
76.00,208.04,0
67.00,189.48,0
115.00,171.80,0
124.00,156.16,0
200.00,143.76,0
201.00,135.61,0
238.00,131.88,0
228.00,132.19,0
248.00,135.84,0
265.00,142.33,0
265.00,151.19,0
316.00,162.17,0
279.00,174.88,0
302.00,188.51,0
302.00,202.48,0
293.00,216.31,0
296.00,229.46,0
242.00,241.19,0
275.00,250.84,0
231.00,258.33,0
207.00,263.25,0
159.00,264.90,0
202.00,263.38,0
110.00,259.03,0
98.00,251.41,0
35.00,240.09,0
60.00,225.37,0
56.00,208.47,0
89.00,190.88,0
132.00,174.21,0
148.00,159.92,0
167.00,148.70,0
216.00,141.07,0
224.00,137.40,0
245.00,137.60,0
311.00,141.76,0
286.00,149.80,0
268.00,160.52,0
305.00,172.71,0
339.00,186.34,0
311.00,201.27,0
277.00,216.23,0
288.00,229.99,0
287.00,242.26,0
236.00,252.65,0
256.00,260.57,0
210.00,265.88,0
202.00,268.37,0
134.00,267.56,0
160.00,263.28,0
82.00,255.67,0
117.00,245.05,0
46.00,231.88,0
41.00,216.17,0
71.00,198.74,0
78.00,181.06,0
145.00,164.71,0
157.00,151.18,0
213.00,141.46,0
227.00,136.11,0
244.00,135.08,0
271.00,137.97,0
250.00,144.15,0
280.00,152.82,0
306.00,163.59,0
323.00,176.38,0
299.00,190.65,0
305.00,205.32,0
305.00,219.71,0
315.00,233.57,0
296.00,246.55,0
294.00,258.19,0
295.00,268.25,0
272.00,276.57,0
248.00,282.74,0
216.00,286.22,0
213.00,286.79,0
168.00,284.45,0
166.00,279.16,0
79.00,270.73,0
139.00,259.18,0
33.00,245.01,0
61.00,228.31,0
67.00,209.85,0
104.00,191.33,0
148.00,174.43,0
146.00,160.33,0
166.00,149.32,0
204.00,141.66,0
205.00,137.58,0
247.00,137.10,0
266.00,140.16,0
266.00,146.50,0
274.00,155.40,0
291.00,166.13,0
299.00,178.33,0
326.00,191.81,0
322.00,206.25,0
289.00,220.82,0
300.00,234.53,0
273.00,246.80,0
278.00,257.25,0
245.00,265.57,0
234.00,271.36,0
236.00,274.65,0
212.00,275.66,0
139.00,273.87,0
142.00,268.66,0
95.00,260.09,0
85.00,248.35,0
69.00,233.95,0
43.00,217.42,0
118.00,199.91,0
112.00,183.22,0
148.00,168.52,0
155.00,156.45,0
214.00,147.66,0
248.00,143.01,0
256.00,142.78,0
292.00,146.60,0
282.00,153.96,0
308.00,164.11,0
311.00,176.43,0
344.00,190.50,0
301.00,205.65,0
295.00,220.64,0
326.00,234.80,0
301.00,248.13,0
309.00,260.29,0
234.00,270.46,0
227.00,277.51,0
200.00,281.02,0
211.00,281.32,0
180.00,278.88,0
161.00,273.84,0
82.00,265.81,0
73.00,254.17,0
61.00,239.27,0
34.00,221.95,0
40.00,202.83,0
55.00,183.00,0
143.00,164.30,0
124.00,148.51,0
207.00,136.55,0
191.00,129.02,0
243.00,125.95,0
230.00,126.98,0
268.00,131.62,0
307.00,139.69,0
323.00,151.23,0
352.00,165.86,0
307.00,182.53,0
330.00,199.90,0
321.00,217.16,0
282.00,233.46,0
292.00,247.86,0
261.00,259.92,0
267.00,269.42,0
236.00,276.25,0
238.00,280.36,0
177.00,281.56,0
185.00,279.59,0
122.00,274.34,0
162.00,266.15,0
52.00,255.29,0
93.00,241.54,0
70.00,225.62,0
38.00,208.32,0
101.00,190.35,0
109.00,173.28,0
150.00,158.47,0
161.00,146.68,0
235.00,138.73,0
222.00,135.18,0
268.00,135.85,0
290.00,140.55,0
320.00,149.17,0
304.00,161.01,0
324.00,175.02,0
334.00,190.55,0
339.00,207.06,0
344.00,223.99,0
316.00,240.58,0
310.00,255.87,0
315.00,269.36,0
260.00,280.63,0
280.00,289.10,0
224.00,294.62,0
215.00,296.82,0
169.00,295.46,0
185.00,290.78,0
80.00,282.67,0
118.00,270.99,0
34.00,256.08,0
73.00,238.42,0
76.00,219.18,0
90.00,199.89,0
124.00,181.76,0
93.00,165.54,0
170.00,151.70,0
188.00,141.31,0
208.00,135.00,0
246.00,132.79,0
254.00,134.60,0
320.00,140.42,0
270.00,149.87,0
327.00,161.88,0
306.00,175.83,0
288.00,190.81,0
389.00,206.40,0
322.00,222.90,0
291.00,239.04,0
275.00,253.14,0
283.00,264.78,0
243.00,273.82,0
301.00,280.50,0
194.00,284.89,0
242.00,286.50,0
152.00,285.08,0
173.00,280.49,0
93.00,272.61,0
102.00,261.38,0
37.00,246.91,0
51.00,229.61,0
81.00,210.66,0
77.00,191.68,0
167.00,174.23,0
151.00,159.88,0
204.00,149.26,0
209.00,142.59,0
230.00,139.83,0
264.00,140.85,0
288.00,145.59,0
312.00,153.89,0
315.00,165.33,0
361.00,179.32,0
340.00,195.41,0
319.00,212.47,0
312.00,229.06,0
339.00,244.69,0
316.00,259.27,0
319.00,272.44,0
294.00,283.75,0
254.00,292.56,0
244.00,298.21,0
213.00,300.53,0
233.00,299.80,0
166.00,296.33,0
145.00,289.74,0
81.00,279.58,0
114.00,266.06,0
34.00,249.75,0
50.00,231.02,0
145.00,211.45,0
126.00,193.42,0
148.00,177.83,0
172.00,165.01,0
232.00,155.82,0
248.00,151.01,0
246.00,150.43,0
299.00,153.66,0
302.00,160.54,0
332.00,170.67,0
330.00,183.50,0
344.00,198.23,0
278.00,213.59,0
317.00,228.27,0
311.00,242.00,0
266.00,254.38,0
296.00,264.80,0
266.00,273.26,0
275.00,279.77,0
260.00,284.37,0
260.00,287.19,0
210.00,288.02,0
221.00,286.58,0
130.00,282.47,0
158.00,275.22,0
75.00,264.90,0
67.00,251.42,0
40.00,234.92,0
34.00,216.09,0
109.00,196.45,0
84.00,177.81,0
132.00,161.14,0
174.00,147.46,0
196.00,137.76,0
245.00,132.58,0
261.00,132.12,0
249.00,135.78,0
298.00,142.88,0
311.00,153.10,0
321.00,166.10,0
343.00,181.27,0
334.00,197.87,0
320.00,214.94,0
326.00,231.53,0
294.00,246.94,0
321.00,260.70,0
295.00,272.71,0
307.00,282.89,0
238.00,290.73,0
252.00,295.63,0
198.00,297.30,0
205.00,295.79,0
192.00,291.47,0
137.00,284.57,0
84.00,274.40,0
87.00,260.82,0
36.00,244.30,0
87.00,225.65,0
132.00,206.85,0
111.00,189.54,0
166.00,174.42,0
174.00,162.25,0
211.00,153.64,0
235.00,148.93,0
268.00,148.28,0
282.00,151.59,0
259.00,158.17,0
324.00,167.21,0
301.00,178.53,0
357.00,191.84,0
299.00,206.47,0
329.00,221.38,0
317.00,235.93,0
288.00,249.55,0
326.00,261.72,0
239.00,272.06,0
289.00,279.97,0
266.00,285.66,0
249.00,289.38,0
164.00,290.32,0
212.00,287.89,0
128.00,282.46,0
137.00,273.99,0
54.00,262.21,0
60.00,247.10,0
64.00,229.42,0
73.00,210.49,0
72.00,191.48,0
109.00,173.39,0
203.00,157.99,0
179.00,146.79,0
228.00,139.94,0
221.00,137.17,0
259.00,138.20,0
244.00,142.51,0
293.00,149.70,0
312.00,159.63,0
305.00,172.05,0
310.00,186.01,0
295.00,200.55,0
320.00,215.08,0
315.00,229.35,0
274.00,242.72,0
255.00,254.10,0
140.00,261.99,0
196.00,265.38,0
206.00,265.28,0
209.00,263.18,0
186.00,259.57,0
193.00,254.63,0
138.00,248.33,0
154.00,240.46,0
47.00,230.59,0
97.00,218.33,0
47.00,204.16,0
53.00,188.66,0
50.00,172.33,0
45.00,155.84,0
81.00,139.97,0
109.00,125.90,0
129.00,114.59,0
144.00,106.42,0
145.00,101.32,0
188.00,99.27,0
217.00,100.50,0
230.00,105.13,0
216.00,112.53,0
203.00,121.64,0
268.00,131.90,0
249.00,143.49,0
268.00,156.14,0
266.00,169.26,0
267.00,182.46,0
233.00,194.99,0
284.00,206.48,0
216.00,216.79,0
285.00,225.74,0
204.00,233.25,0
228.00,238.85,0
152.00,241.91,0
170.00,242.04,0
102.00,239.07,0
107.00,232.86,0
35.00,223.33,0
67.00,210.70,0
96.00,196.36,0
82.00,181.78,0
180.00,168.32,0
146.00,157.39,0
158.00,149.09,0
153.00,142.92,0
233.00,139.27,0
252.00,139.10,0
262.00,142.62,0
297.00,149.49,0
336.00,159.65,0
314.00,172.70,0
315.00,187.51,0
314.00,202.95,0
339.00,218.57,0
323.00,234.09,0
306.00,248.83,0
288.00,261.91,0
270.00,272.72,0
303.00,281.25,0
272.00,287.92,0
244.00,292.49,0
210.00,294.27,0
176.00,292.84,0
167.00,288.10,0
85.00,279.88,0
128.00,268.18,0
43.00,253.62,0
37.00,236.26,0
85.00,216.86,0
84.00,197.36,0
144.00,179.29,0
119.00,163.69,0
198.00,151.23,0
215.00,142.79,0
251.00,139.02,0
275.00,139.76,0
331.00,145.10,0
340.00,154.99,0
329.00,168.43,0
340.00,184.13,0
329.00,201.09,0
332.00,218.30,0
322.00,235.04,0
291.00,250.47,0
280.00,263.70,0
290.00,274.46,0
285.00,283.03,0
235.00,289.22,0
296.00,293.05,0
202.00,294.77,0
232.00,294.05,0
144.00,290.44,0
150.00,283.61,0
71.00,273.29,0
70.00,259.42,0
61.00,242.58,0
62.00,223.87,0
59.00,204.20,0
54.00,184.42,0
85.00,165.38,0
110.00,148.21,0
100.00,133.61,0
83.00,121.34,0
114.00,111.15,0
160.00,103.64,0
155.00,99.39,0
194.00,98.40,0
182.00,100.43,0
238.00,105.26,0
217.00,112.72,0
244.00,122.27,0
254.00,133.42,0
180.00,145.21,0
202.00,156.11,0
214.00,165.84,0
222.00,174.79,0
198.00,182.89,0
201.00,189.77,0
142.00,194.85,0
181.00,197.76,0
114.00,198.56,0
130.00,197.03,0
87.00,193.16,0
113.00,187.26,0
43.00,179.52,0
32.00,169.59,0
62.00,157.78,0
54.00,145.33,0
86.00,133.18,0
126.00,122.45,0
181.00,114.55,0
133.00,109.88,0
276.00,108.71,0
298.00,112.40,0
301.00,121.14,0
315.00,133.84,0
285.00,149.16,0
308.00,165.73,0
300.00,182.79,0
333.00,200.00,0
331.00,217.18,0
316.00,233.89,0
361.00,249.82,0
253.00,264.33,0
313.00,276.38,0
176.00,285.09,0
222.00,289.61,0
160.00,289.93,0
206.00,286.76,0
117.00,280.56,0
80.00,270.89,0
56.00,257.37,0
43.00,240.43,0
66.00,221.34,0
63.00,201.48,0
109.00,182.20,0
115.00,164.79,0
183.00,150.44,0
192.00,140.11,0
224.00,134.18,0
275.00,132.84,0
298.00,136.25,0
267.00,143.77,0
228.00,153.50,0
204.00,163.47,0
209.00,172.62,0
200.00,180.67,0
197.00,187.47,0
240.00,193.33,0
221.00,198.82,0
242.00,204.06,0
219.00,208.92,0
226.00,213.20,0
226.00,216.82,0
205.00,219.70,0
205.00,221.57,0
155.00,222.02,0
163.00,220.62,0
128.00,217.29,0
143.00,212.20,0
52.00,205.15,0
126.00,196.09,0
53.00,185.64,0
75.00,174.12,0
40.00,161.61,0
38.00,148.37,0
94.00,135.13,0
62.00,122.97,0
102.00,112.32,0
44.00,103.07,0
140.00,95.36,0
151.00,90.26,0
169.00,88.44,0
186.00,89.77,0
181.00,93.78,0
186.00,99.78,0
198.00,107.31,0
247.00,116.32,0
229.00,126.92,0
224.00,138.48,0
210.00,150.02,0
203.00,160.82,0
200.00,170.46,0
212.00,178.88,0
220.00,186.34,0
176.00,192.70,0
178.00,197.36,0
125.00,199.80,0
162.00,199.93,0
125.00,198.15,0
124.00,194.64,0
47.00,189.00,0
77.00,180.88,0
33.00,170.67,0
40.00,158.81,0
58.00,145.95,0
50.00,133.07,0
105.00,121.05,0
95.00,110.86,0
128.00,102.93,0
138.00,97.54,0
160.00,94.92,0
200.00,95.21,0
167.00,98.30,0
142.00,103.02,0
196.00,108.55,0
219.00,115.39,0
278.00,124.33,0
232.00,135.32,0
200.00,146.97,0
222.00,158.01,0
223.00,168.35,0
245.00,178.18,0
217.00,187.44,0
173.00,195.33,0
180.00,200.98,0
122.00,204.06,0
157.00,204.47,0
87.00,202.30,0
130.00,197.80,0
102.00,191.55,0
92.00,183.99,0
43.00,174.89,0
68.00,164.24,0
31.00,152.42,0
36.00,139.78,0
73.00,127.02,0
53.00,115.08,0
122.00,104.68,0
89.00,96.51,0
152.00,90.84,0
103.00,87.62,0
193.00,86.82,0
201.00,89.07,0
191.00,94.35,0
179.00,101.52,0
199.00,109.80,0
229.00,119.14,0
229.00,129.61,0
216.00,140.75,0
251.00,152.09,0
189.00,163.18,0
230.00,173.30,0
215.00,182.41,0
242.00,190.75,0
181.00,198.06,0
198.00,203.69,0
92.00,206.75,0
139.00,206.54,0
134.00,203.72,0
161.00,199.52,0
98.00,194.31,0
102.00,187.71,0
64.00,179.53,0
54.00,169.72,0
42.00,158.45,0
57.00,146.27,0
46.00,133.86,0
60.00,121.73,0
98.00,110.68,0
82.00,101.41,0
134.00,94.30,0
130.00,89.75,0
151.00,87.81,0
161.00,88.33,0
203.00,91.38,0
208.00,97.06,0
188.00,104.82,0
224.00,113.91,0
219.00,124.12,0
230.00,135.13,0
210.00,146.36,0
180.00,156.93,0
200.00,166.13,0
209.00,174.15,0
242.00,181.60,0
202.00,188.66,0
221.00,194.95,0
170.00,200.02,0
196.00,203.52,0
160.00,205.42,0
149.00,205.57,0
119.00,203.66,0
114.00,199.58,0
69.00,193.34,0
80.00,184.92,0
79.00,174.90,0
34.00,163.73,0
58.00,151.51,0
93.00,139.19,0
98.00,128.06,0
111.00,118.67,0
140.00,111.43,0
150.00,106.73,0
202.00,104.96,0
207.00,106.49,0
232.00,111.18,0
239.00,118.62,0
184.00,127.77,0
175.00,136.97,0
183.00,145.36,0
205.00,153.10,0
206.00,160.53,0
158.00,167.28,0
218.00,172.99,0
179.00,178.00,0
161.00,182.01,0
111.00,184.09,0
142.00,183.90,0
84.00,181.62,0
81.00,177.07,0
35.00,170.03,0
70.00,160.90,0
42.00,150.37,0
84.00,139.39,0
149.00,129.40,0
110.00,121.62,0
111.00,115.65,0
129.00,111.10,0
137.00,108.17,0
180.00,107.19,0
169.00,108.39,0
193.00,111.60,0
178.00,116.43,0
205.00,122.47,0
203.00,129.55,0
203.00,137.40,0
208.00,145.57,0
203.00,153.75,0
201.00,161.62,0
190.00,168.84,0
221.00,175.37,0
154.00,181.03,0
193.00,185.31,0
144.00,188.08,0
210.00,189.68,0
107.00,190.17,0
127.00,188.82,0
64.00,185.09,0
90.00,179.00,0
70.00,171.06,0
66.00,161.83,0
44.00,151.50,0
29.00,140.17,0
62.00,128.29,0
74.00,116.90,0
98.00,106.93,0
112.00,98.98,0
130.00,93.41,0
139.00,90.30,0
160.00,89.63,0
161.00,91.29,0
183.00,95.01,0
193.00,100.63,0
200.00,107.93,0
227.00,116.70,0
178.00,126.39,0
214.00,136.17,0
189.00,145.66,0
213.00,154.71,0
240.00,163.54,0
206.00,172.30,0
180.00,180.14,0
169.00,186.21,0
186.00,190.48,0
167.00,193.29,0
136.00,194.46,0
106.00,193.41,0
139.00,190.25,0
80.00,185.39,0
87.00,178.76,0
45.00,170.28,0
