38.00,55.96,0
65.00,54.99,0
36.00,54.12,0
38.00,53.11,0
45.00,51.89,0
38.00,50.60,0
42.00,49.30,0
47.00,48.08,0
38.00,47.00,0
42.00,45.99,0
56.00,45.17,0
42.00,44.68,0
41.00,44.32,0
49.00,44.01,0
52.00,43.91,0
56.00,44.10,0
61.00,44.65,0
52.00,45.49,0
67.00,46.55,0
57.00,47.83,0
84.00,49.41,0
40.00,51.17,0
88.00,52.91,0
48.00,54.66,0
82.00,56.39,0
33.00,57.86,0
52.00,58.72,0
34.00,58.84,0
73.00,58.57,0
37.00,58.23,0
53.00,57.69,0
37.00,56.87,0
38.00,55.72,0
40.00,54.27,0
44.00,52.71,0
34.00,51.12,0
37.00,49.46,0
46.00,47.83,0
53.00,46.52,0
68.00,45.80,0
36.00,45.61,0
38.00,45.43,0
45.00,45.08,0
46.00,44.77,0
42.00,44.53,0
66.00,44.50,0
58.00,44.92,0
68.00,45.82,0
53.00,47.03,0
80.00,48.50,0
40.00,50.11,0
88.00,51.73,0
42.00,53.38,0
75.00,54.91,0
34.00,56.13,0
82.00,57.05,0
40.00,57.84,0
48.00,58.26,0
40.00,58.11,0
37.00,57.45,0
41.00,56.32,0
49.00,54.99,0
38.00,53.62,0
38.00,52.16,0
39.00,50.58,0
43.00,49.02,0
37.00,47.56,0
42.00,46.19,0
52.00,45.05,0
55.00,44.35,0
54.00,44.15,0
43.00,44.24,0
56.00,44.46,0
60.00,44.94,0
60.00,45.76,0
58.00,46.85,0
44.00,47.94,0
56.00,48.86,0
71.00,49.82,0
37.00,50.85,0
90.00,51.88,0
57.00,53.22,0
74.00,54.78,0
39.00,56.17,0
88.00,57.36,0
34.00,58.42,0
77.00,59.22,0
40.00,59.75,0
47.00,59.86,0
40.00,59.41,0
36.00,58.45,0
37.00,57.02,0
40.00,55.29,0
69.00,53.68,0
45.00,52.53,0
35.00,51.52,0
50.00,50.42,0
42.00,49.37,0
59.00,48.54,0
45.00,48.00,0
42.00,47.58,0
44.00,47.12,0
62.00,46.79,0
76.00,47.02,0
70.00,47.98,0
74.00,49.54,0
47.00,51.27,0
60.00,52.78,0
47.00,53.95,0
86.00,55.03,0
35.00,56.14,0
74.00,57.02,0
38.00,57.64,0
92.00,58.20,0
43.00,58.89,0
83.00,59.63,0
36.00,60.25,0
61.00,60.51,0
36.00,60.30,0
40.00,59.59,0
39.00,58.35,0
34.00,56.74,0
39.00,54.84,0
39.00,52.84,0
39.00,50.86,0
43.00,48.99,0
44.00,47.35,0
66.00,46.17,0
42.00,45.54,0
41.00,45.14,0
45.00,44.74,0
60.00,44.53,0
48.00,44.67,0
52.00,45.01,0
71.00,45.63,0
59.00,46.69,0
64.00,48.04,0
44.00,49.39,0
82.00,50.72,0
35.00,52.06,0
75.00,53.24,0
36.00,54.19,0
76.00,54.97,0
39.00,55.62,0
83.00,56.24,0
35.00,56.83,0
62.00,57.18,0
42.00,57.22,0
45.00,56.93,0
36.00,56.22,0
37.00,55.09,0
41.00,53.66,0
42.00,52.14,0
38.00,50.60,0
41.00,49.07,0
37.00,47.59,0
48.00,46.23,0
55.00,45.23,0
50.00,44.70,0
56.00,44.56,0
60.00,44.82,0
72.00,45.58,0
58.00,46.82,0
57.00,48.24,0
41.00,49.48,0
63.00,50.46,0
52.00,51.34,0
83.00,52.38,0
44.00,53.60,0
75.00,54.79,0
38.00,55.80,0
78.00,56.62,0
40.00,57.30,0
87.00,57.95,0
36.00,58.60,0
59.00,58.95,0
35.00,58.83,0
54.00,58.30,0
42.00,57.50,0
37.00,56.44,0
38.00,55.03,0
35.00,53.36,0
42.00,51.57,0
41.00,49.82,0
55.00,48.32,0
37.00,47.14,0
41.00,46.09,0
35.00,45.04,0
50.00,44.09,0
54.00,43.47,0
49.00,43.27,0
47.00,43.33,0
46.00,43.50,0
59.00,43.83,0
66.00,44.54,0
52.00,45.61,0
86.00,47.04,0
49.00,48.82,0
78.00,50.73,0
43.00,52.55,0
77.00,54.19,0
41.00,55.62,0
69.00,56.74,0
44.00,57.56,0
73.00,58.19,0
38.00,58.62,0
46.00,58.62,0
53.00,58.19,0
39.00,57.52,0
37.00,56.49,0
38.00,55.09,0
44.00,53.50,0
39.00,51.89,0
38.00,50.27,0
35.00,48.62,0
38.00,46.97,0
37.00,45.38,0
54.00,44.04,0
42.00,43.12,0
50.00,42.54,0
46.00,42.25,0
41.00,42.14,0
53.00,42.17,0
60.00,42.51,0
40.00,43.12,0
71.00,43.90,0
43.00,44.91,0
71.00,46.08,0
60.00,47.47,0
76.00,49.17,0
92.00,51.35,0
73.00,54.06,0
36.00,56.61,0
54.00,58.31,0
35.00,59.17,0
54.00,59.34,0
44.00,59.05,0
42.00,58.40,0
38.00,57.34,0
49.00,56.03,0
57.00,54.77,0
34.00,53.63,0
38.00,52.34,0
46.00,50.91,0
39.00,49.54,0
44.00,48.25,0
58.00,47.21,0
38.00,46.49,0
43.00,45.87,0
61.00,45.41,0
69.00,45.49,0
52.00,46.12,0
90.00,47.25,0
59.00,48.95,0
64.00,50.88,0
40.00,52.54,0
75.00,53.87,0
54.00,55.12,0
70.00,56.33,0
37.00,57.31,0
60.00,57.84,0
35.00,57.91,0
80.00,57.79,0
38.00,57.72,0
57.00,57.52,0
47.00,57.10,0
46.00,56.54,0
38.00,55.69,0
36.00,54.52,0
42.00,53.08,0
39.00,51.55,0
42.00,50.02,0
56.00,48.68,0
38.00,47.64,0
56.00,46.83,0
37.00,46.21,0
38.00,45.60,0
52.00,44.99,0
43.00,44.57,0
38.00,44.24,0
39.00,43.82,0
42.00,43.36,0
56.00,43.06,0
51.00,43.10,0
43.00,43.37,0
49.00,43.68,0
114.00,44.57,0
42.00,46.41,0
80.00,48.58,0
41.00,50.63,0
69.00,52.42,0
102.00,54.38,0
81.00,57.00,0
134.00,60.38,0
63.00,64.38,0
114.00,68.38,0
72.00,72.16,0
87.00,75.49,0
70.00,78.15,0
65.00,79.99,0
102.00,81.24,0
54.00,82.18,0
73.00,82.51,0
55.00,82.14,0
50.00,81.08,0
35.00,79.16,0
39.00,76.41,0
59.00,73.21,0
36.00,69.95,0
38.00,66.55,0
48.00,63.10,0
60.00,59.99,0
65.00,57.58,0
76.00,56.03,0
94.00,55.58,0
70.00,56.17,0
118.00,57.67,0
96.00,60.22,0
122.00,63.72,0
69.00,67.67,0
130.00,71.65,0
78.00,75.68,0
148.00,79.82,0
84.00,84.12,0
171.00,88.63,0
74.00,93.26,0
105.00,97.20,0
50.00,99.75,0
92.00,100.85,0
83.00,100.98,0
78.00,100.51,0
79.00,99.46,0
50.00,97.75,0
124.00,95.71,0
36.00,93.76,0
63.00,91.32,0
56.00,88.23,0
36.00,84.72,0
37.00,80.61,0
39.00,76.05,0
38.00,71.34,0
52.00,66.78,0
64.00,62.82,0
64.00,59.74,0
80.00,57.68,0
118.00,57.03,0
91.00,58.00,0
168.00,60.68,0
69.00,64.81,0
129.00,69.38,0
118.00,74.25,0
134.00,79.64,0
97.00,85.08,0
131.00,90.20,0
112.00,95.01,0
121.00,99.45,0
139.00,103.62,0
128.00,107.71,0
57.00,111.00,0
82.00,112.50,0
96.00,112.55,0
67.00,111.68,0
86.00,109.93,0
48.00,107.33,0
51.00,103.73,0
42.00,99.14,0
39.00,93.82,0
89.00,88.40,0
66.00,83.70,0
38.00,79.50,0
37.00,75.17,0
49.00,70.72,0
72.00,66.71,0
60.00,63.55,0
76.00,61.26,0
98.00,60.06,0
93.00,60.18,0
90.00,61.37,0
127.00,63.56,0
36.00,66.26,0
131.00,68.85,0
77.00,71.64,0
143.00,74.93,0
94.00,78.73,0
132.00,82.84,0
68.00,86.75,0
130.00,90.14,0
57.00,92.91,0
86.00,94.68,0
72.00,95.36,0
72.00,95.23,0
86.00,94.47,0
54.00,93.22,0
74.00,91.40,0
38.00,88.98,0
58.00,85.90,0
37.00,82.30,0
64.00,78.46,0
37.00,74.61,0
35.00,70.65,0
49.00,66.59,0
54.00,62.84,0
73.00,59.82,0
82.00,57.87,0
94.00,57.22,0
111.00,58.00,0
92.00,60.04,0
101.00,62.89,0
85.00,66.12,0
145.00,69.82,0
105.00,74.29,0
127.00,79.21,0
88.00,84.02,0
136.00,88.52,0
74.00,92.61,0
131.00,96.09,0
75.00,98.95,0
116.00,101.13,0
78.00,102.62,0
73.00,103.21,0
91.00,102.85,0
61.00,101.77,0
78.00,99.99,0
41.00,97.47,0
37.00,93.97,0
36.00,89.41,0
73.00,84.51,0
58.00,79.97,0
37.00,75.75,0
40.00,71.46,0
48.00,67.21,0
71.00,63.46,0
73.00,60.69,0
100.00,59.20,0
87.00,59.09,0
84.00,60.01,0
106.00,61.71,0
74.00,64.03,0
124.00,66.79,0
77.00,69.98,0
112.00,73.32,0
86.00,76.62,0
154.00,80.23,0
90.00,84.32,0
134.00,88.51,0
76.00,92.35,0
115.00,95.53,0
76.00,97.94,0
86.00,99.46,0
117.00,100.34,0
65.00,100.88,0
75.00,100.61,0
59.00,99.35,0
75.00,97.31,0
49.00,94.67,0
66.00,91.51,0
35.00,87.85,0
38.00,83.61,0
62.00,79.05,0
39.00,74.63,0
39.00,70.28,0
48.00,66.01,0
60.00,62.20,0
66.00,59.18,0
80.00,57.17,0
80.00,56.28,0
84.00,56.42,0
105.00,57.58,0
90.00,59.74,0
144.00,62.94,0
86.00,67.12,0
129.00,71.76,0
93.00,76.53,0
157.00,81.53,0
95.00,86.79,0
142.00,91.96,0
70.00,96.56,0
100.00,100.02,0
71.00,102.16,0
111.00,103.33,0
86.00,103.93,0
59.00,103.78,0
89.00,102.66,0
59.00,100.86,0
74.00,98.49,0
41.00,95.46,0
55.00,91.75,0
41.00,87.48,0
40.00,82.80,0
36.00,77.81,0
37.00,72.66,0
54.00,67.70,0
52.00,63.32,0
70.00,59.78,0
46.00,57.10,0
84.00,55.20,0
116.00,54.66,0
69.00,55.65,0
130.00,57.72,0
67.00,60.66,0
129.00,64.13,0
81.00,68.01,0
134.00,72.21,0
80.00,76.56,0
135.00,80.88,0
88.00,85.12,0
164.00,89.45,0
61.00,93.73,0
85.00,96.94,0
53.00,98.53,0
58.00,98.55,0
81.00,97.34,0
52.00,95.46,0
85.00,93.11,0
42.00,90.42,0
55.00,87.24,0
40.00,83.52,0
40.00,79.39,0
38.00,74.93,0
44.00,70.39,0
54.00,66.11,0
52.00,62.35,0
70.00,59.32,0
66.00,57.19,0
71.00,55.94,0
96.00,55.65,0
90.00,56.50,0
113.00,58.50,0
79.00,61.35,0
142.00,64.92,0
99.00,69.31,0
132.00,74.25,0
100.00,79.39,0
135.00,84.52,0
92.00,89.45,0
131.00,93.96,0
62.00,97.72,0
116.00,100.41,0
52.00,102.00,0
89.00,102.36,0
70.00,101.74,0
65.00,100.34,0
78.00,98.26,0
59.00,95.75,0
86.00,93.01,0
41.00,90.11,0
46.00,86.69,0
36.00,82.63,0
62.00,78.31,0
34.00,74.04,0
46.00,69.80,0
38.00,65.63,0
52.00,61.73,0
72.00,58.49,0
86.00,56.43,0
83.00,55.71,0
96.00,56.20,0
85.00,57.70,0
109.00,60.03,0
92.00,63.08,0
147.00,66.96,0
107.00,71.76,0
139.00,77.17,0
100.00,82.73,0
137.00,88.17,0
83.00,93.16,0
144.00,97.57,0
76.00,101.39,0
111.00,104.30,0
59.00,106.03,0
96.00,106.52,0
81.00,106.11,0
75.00,105.05,0
82.00,103.35,0
44.00,100.97,0
71.00,97.82,0
34.00,94.01,0
35.00,89.45,0
38.00,84.20,0
36.00,78.65,0
63.00,73.27,0
43.00,68.45,0
45.00,64.13,0
81.00,60.50,0
75.00,58.06,0
72.00,56.81,0
87.00,56.50,0
99.00,57.24,0
95.00,59.05,0
116.00,61.81,0
83.00,65.25,0
140.00,69.19,0
106.00,73.77,0
147.00,78.95,0
87.00,84.30,0
138.00,89.37,0
82.00,93.94,0
130.00,97.89,0
82.00,101.15,0
111.00,103.64,0
60.00,105.10,0
86.00,105.35,0
71.00,104.56,0
68.00,102.94,0
84.00,100.70,0
71.00,98.21,0
79.00,95.58,0
38.00,92.62,0
48.00,88.99,0
63.00,84.90,0
35.00,80.72,0
37.00,76.28,0
41.00,71.63,0
54.00,67.15,0
60.00,63.26,0
73.00,60.25,0
115.00,58.64,0
75.00,58.59,0
116.00,59.75,0
88.00,61.92,0
142.00,65.10,0
95.00,69.24,0
105.00,73.70,0
90.00,77.92,0
136.00,82.02,0
99.00,86.24,0
150.00,90.58,0
35.00,94.48,0
127.00,97.19,0
62.00,98.94,0
114.00,100.01,0
64.00,100.44,0
98.00,100.26,0
81.00,99.62,0
58.00,98.46,0
69.00,96.52,0
45.00,93.85,0
67.00,90.59,0
36.00,86.90,0
52.00,82.80,0
36.00,78.41,0
67.00,74.07,0
38.00,70.03,0
44.00,66.20,0
45.00,62.51,0
60.00,59.25,0
68.00,56.73,0
89.00,55.29,0
87.00,55.11,0
92.00,56.10,0
94.00,58.01,0
127.00,60.91,0
86.00,64.70,0
142.00,69.08,0
81.00,73.86,0
140.00,78.73,0
92.00,83.56,0
132.00,88.25,0
88.00,92.56,0
142.00,96.50,0
42.00,99.72,0
109.00,101.64,0
58.00,102.36,0
81.00,102.04,0
106.00,101.13,0
62.00,100.03,0
82.00,98.45,0
48.00,96.26,0
64.00,93.42,0
35.00,89.89,0
47.00,85.75,0
40.00,81.16,0
40.00,76.37,0
42.00,71.55,0
40.00,66.88,0
66.00,62.68,0
63.00,59.35,0
81.00,57.12,0
103.00,56.25,0
88.00,56.85,0
117.00,58.69,0
88.00,61.53,0
131.00,65.15,0
88.00,69.38,0
134.00,73.95,0
84.00,78.61,0
149.00,83.30,0
104.00,88.12,0
137.00,92.96,0
84.00,97.38,0
112.00,100.96,0
67.00,103.44,0
99.00,104.76,0
81.00,105.15,0
68.00,104.69,0
84.00,103.36,0
62.00,101.39,0
65.00,98.80,0
42.00,95.51,0
50.00,91.48,0
39.00,86.90,0
37.00,81.92,0
62.00,76.87,0
78.00,72.47,0
44.00,68.90,0
56.00,65.74,0
70.00,63.03,0
71.00,61.09,0
90.00,60.10,0
107.00,60.32,0
100.00,61.82,0
126.00,64.49,0
79.00,67.94,0
134.00,71.76,0
83.00,75.87,0
138.00,80.09,0
105.00,84.49,0
149.00,89.16,0
80.00,93.75,0
141.00,97.86,0
78.00,101.38,0
133.00,104.26,0
78.00,106.49,0
85.00,107.75,0
77.00,107.84,0
71.00,106.90,0
77.00,105.11,0
74.00,102.75,0
85.00,100.12,0
37.00,97.14,0
64.00,93.51,0
51.00,89.44,0
37.00,85.08,0
38.00,80.30,0
54.00,75.39,0
44.00,70.75,0
44.00,66.41,0
61.00,62.52,0
62.00,59.38,0
94.00,57.33,0
105.00,56.81,0
88.00,57.76,0
107.00,59.78,0
127.00,62.91,0
126.00,67.24,0
86.00,72.14,0
166.00,77.31,0
77.00,82.79,0
148.00,88.08,0
94.00,93.04,0
132.00,97.61,0
88.00,101.53,0
127.00,104.76,0
75.00,107.19,0
101.00,108.61,0
67.00,108.94,0
68.00,108.09,0
86.00,106.26,0
59.00,103.83,0
117.00,101.21,0
54.00,98.74,0
66.00,96.01,0
41.00,92.64,0
38.00,88.56,0
36.00,83.80,0
37.00,78.62,0
50.00,73.42,0
54.00,68.61,0
40.00,64.33,0
50.00,60.47,0
85.00,57.40,0
84.00,55.68,0
94.00,55.41,0
115.00,56.57,0
88.00,58.99,0
125.00,62.31,0
92.00,66.34,0
146.00,70.97,0
84.00,76.01,0
138.00,81.05,0
90.00,85.92,0
146.00,90.62,0
78.00,94.99,0
150.00,98.91,0
81.00,102.41,0
123.00,105.28,0
74.00,107.30,0
87.00,108.23,0
86.00,108.11,0
79.00,107.25,0
85.00,105.75,0
65.00,103.71,0
51.00,100.93,0
37.00,97.15,0
51.00,92.51,0
63.00,87.60,0
36.00,82.72,0
38.00,77.71,0
38.00,72.59,0
57.00,67.71,0
53.00,63.45,0
72.00,60.06,0
87.00,57.85,0
85.00,56.99,0
113.00,57.50,0
94.00,59.33,0
124.00,62.27,0
88.00,66.03,0
144.00,70.36,0
103.00,75.29,0
144.00,80.62,0
79.00,85.90,0
153.00,90.83,0
54.00,95.20,0
127.00,98.58,0
101.00,101.27,0
106.00,103.57,0
68.00,105.02,0
77.00,105.29,0
85.00,104.54,0
50.00,102.96,0
56.00,100.33,0
39.00,96.69,0
51.00,92.25,0
39.00,87.30,0
38.00,82.04,0
35.00,76.57,0
40.00,71.09,0
89.00,66.27,0
69.00,62.78,0
76.00,60.57,0
75.00,59.32,0
91.00,59.04,0
113.00,59.93,0
89.00,62.00,0
129.00,64.99,0
74.00,68.59,0
143.00,72.53,0
56.00,76.57,0
144.00,80.41,0
98.00,84.33,0
164.00,88.68,0
72.00,93.17,0
127.00,97.10,0
63.00,100.09,0
115.00,102.10,0
66.00,103.22,0
91.00,103.46,0
90.00,103.00,0
55.00,101.95,0
80.00,100.10,0
51.00,97.57,0
67.00,94.48,0
37.00,90.84,0
39.00,86.55,0
36.00,81.67,0
64.00,76.71,0
36.00,72.07,0
40.00,67.60,0
48.00,63.33,0
57.00,59.59,0
85.00,56.82,0
92.00,55.47,0
96.00,55.62,0
109.00,57.13,0
76.00,59.63,0
154.00,63.00,0
90.00,67.39,0
166.00,72.64,0
86.00,78.43,0
149.00,84.25,0
81.00,89.74,0
147.00,94.73,0
90.00,99.23,0
131.00,103.15,0
83.00,106.32,0
113.00,108.60,0
70.00,109.87,0
68.00,109.85,0
77.00,108.53,0
56.00,106.25,0
82.00,103.25,0
43.00,99.72,0
42.00,95.47,0
37.00,90.44,0
63.00,85.11,0
39.00,79.91,0
35.00,74.77,0
66.00,69.84,0
58.00,65.65,0
74.00,62.40,0
73.00,60.18,0
82.00,59.00,0
107.00,59.00,0
82.00,60.17,0
125.00,62.35,0
87.00,65.40,0
140.00,69.17,0
85.00,73.50,0
138.00,78.07,0
91.00,82.69,0
180.00,87.61,0
91.00,92.92,0
137.00,98.02,0
88.00,102.39,0
89.00,105.65,0
71.00,107.41,0
89.00,107.84,0
84.00,107.35,0
62.00,106.07,0
92.00,104.07,0
46.00,101.52,0
75.00,98.37,0
35.00,94.62,0
48.00,90.22,0
40.00,85.33,0
36.00,80.12,0
43.00,74.80,0
37.00,69.59,0
80.00,64.96,0
67.00,61.48,0
89.00,59.30,0
91.00,58.48,0
93.00,58.93,0
135.00,60.73,0
99.00,63.89,0
135.00,68.05,0
89.00,72.75,0
134.00,77.61,0
96.00,82.49,0
138.00,87.31,0
97.00,91.96,0
128.00,96.26,0
88.00,99.98,0
120.00,103.02,0
65.00,105.17,0
108.00,106.29,0
69.00,106.52,0
86.00,105.92,0
92.00,104.73,0
55.00,103.03,0
91.00,100.76,0
40.00,97.99,0
54.00,94.50,0
57.00,90.41,0
54.00,86.16,0
57.00,81.91,0
48.00,77.76,0
53.00,73.73,0
53.00,69.95,0
67.00,66.62,0
84.00,64.14,0
96.00,62.88,0
111.00,63.05,0
91.00,64.49,0
133.00,66.98,0
86.00,70.34,0
150.00,74.34,0
101.00,78.95,0
142.00,83.94,0
81.00,88.82,0
142.00,93.28,0
87.00,97.32,0
108.00,100.68,0
72.00,102.99,0
86.00,104.13,0
86.00,104.26,0
46.00,103.42,0
78.00,101.46,0
40.00,98.60,0
44.00,94.82,0
38.00,90.17,0
65.00,85.17,0
42.00,80.30,0
43.00,75.52,0
54.00,70.89,0
66.00,66.82,0
92.00,63.83,0
108.00,62.40,0
94.00,62.60,0
124.00,64.16,0
85.00,66.76,0
139.00,70.10,0
94.00,74.11,0
192.00,78.99,0
110.00,84.96,0
147.00,91.31,0
90.00,97.21,0
140.00,102.33,0
73.00,106.51,0
125.00,109.56,0
88.00,111.65,0
97.00,112.83,0
128.00,113.38,0
72.00,113.56,0
77.00,112.82,0
42.00,110.73,0
64.00,107.34,0
43.00,102.99,0
69.00,98.07,0
36.00,92.89,0
66.00,87.60,0
42.00,82.41,0
44.00,77.34,0
59.00,72.49,0
65.00,68.29,0
82.00,65.09,0
97.00,63.19,0
89.00,62.69,0
126.00,63.54,0
94.00,65.70,0
149.00,68.99,0
88.00,73.17,0
147.00,77.83,0
99.00,82.77,0
153.00,87.91,0
98.00,93.06,0
138.00,97.93,0
65.00,102.02,0
118.00,104.94,0
55.00,106.62,0
93.00,107.02,0
92.00,106.54,0
71.00,105.53,0
85.00,103.92,0
59.00,101.74,0
90.00,99.14,0
40.00,96.19,0
52.00,92.60,0
36.00,88.28,0
63.00,83.62,0
56.00,79.11,0
45.00,74.88,0
56.00,70.86,0
66.00,67.30,0
101.00,64.76,0
82.00,63.60,0
109.00,63.71,0
117.00,65.13,0
94.00,67.69,0
155.00,71.20,0
96.00,75.66,0
144.00,80.61,0
119.00,85.87,0
142.00,91.36,0
91.00,96.61,0
135.00,101.19,0
69.00,104.89,0
109.00,107.39,0
58.00,108.58,0
96.00,108.55,0
97.00,107.82,0
80.00,106.75,0
87.00,105.25,0
56.00,103.19,0
70.00,100.45,0
40.00,96.98,0
60.00,92.87,0
38.00,88.32,0
58.00,83.52,0
39.00,78.71,0
50.00,73.99,0
62.00,69.62,0
74.00,66.04,0
81.00,63.54,0
80.00,62.15,0
92.00,61.78,0
114.00,62.58,0
97.00,64.58,0
172.00,67.92,0
102.00,72.71,0
147.00,78.28,0
100.00,84.02,0
146.00,89.69,0
83.00,94.96,0
149.00,99.63,0
84.00,103.73,0
120.00,107.03,0
62.00,109.19,0
96.00,110.04,0
91.00,109.88,0
85.00,109.13,0
83.00,107.79,0
40.00,105.60,0
85.00,102.50,0
40.00,98.83,0
55.00,94.57,0
43.00,89.81,0
62.00,84.89,0
38.00,80.04,0
39.00,75.18,0
58.00,70.43,0
59.00,66.26,0
77.00,63.00,0
90.00,60.94,0
83.00,60.16,0
112.00,60.62,0
111.00,62.41,0
133.00,65.58,0
102.00,69.77,0
150.00,74.67,0
108.00,80.15,0
147.00,85.91,0
96.00,91.56,0
152.00,96.88,0
98.00,101.85,0
136.00,106.25,0
72.00,109.73,0
114.00,112.01,0
85.00,113.22,0
93.00,113.50,0
84.00,112.91,0
60.00,111.38,0
91.00,108.98,0
46.00,105.92,0
73.00,102.22,0
56.00,98.08,0
51.00,93.63,0
39.00,88.79,0
39.00,83.57,0
42.00,78.16,0
48.00,72.88,0
63.00,68.12,0
57.00,64.16,0
83.00,61.17,0
104.00,59.60,0
93.00,59.61,0
162.00,61.37,0
98.00,64.98,0
136.00,69.66,0
96.00,74.75,0
153.00,80.13,0
101.00,85.73,0
145.00,91.29,0
91.00,96.48,0
146.00,101.14,0
85.00,105.21,0
128.00,108.50,0
68.00,110.77,0
109.00,111.93,0
88.00,112.20,0
81.00,111.73,0
92.00,110.50,0
64.00,108.64,0
79.00,106.11,0
41.00,102.85,0
50.00,98.70,0
36.00,93.76,0
41.00,88.26,0
58.00,82.61,0
37.00,77.18,0
50.00,72.01,0
44.00,67.20,0
73.00,63.06,0
78.00,60.04,0
86.00,58.37,0
124.00,58.25,0
93.00,59.76,0
131.00,62.57,0
132.00,66.64,0
149.00,72.06,0
92.00,78.11,0
149.00,84.11,0
100.00,89.94,0
159.00,95.60,0
106.00,101.07,0
151.00,106.19,0
80.00,110.61,0
120.00,113.88,0
87.00,115.96,0
106.00,117.00,0
92.00,117.16,0
76.00,116.44,0
84.00,114.76,0
57.00,112.16,0
86.00,108.84,0
53.00,105.05,0
46.00,100.66,0
51.00,95.62,0
64.00,90.38,0
41.00,85.23,0
36.00,80.01,0
53.00,74.76,0
54.00,69.93,0
66.00,65.82,0
72.00,62.65,0
88.00,60.64,0
105.00,60.03,0
89.00,60.78,0
127.00,62.72,0
108.00,65.84,0
145.00,70.07,0
99.00,75.06,0
141.00,80.38,0
91.00,85.66,0
152.00,90.77,0
93.00,95.69,0
148.00,100.27,0
89.00,104.39,0
114.00,107.70,0
74.00,109.89,0
118.00,111.05,0
79.00,111.47,0
91.00,111.14,0
87.00,110.10,0
55.00,108.32,0
78.00,105.65,0
39.00,102.21,0
60.00,98.00,0
36.00,93.19,0
68.00,88.10,0
37.00,83.05,0
39.00,77.97,0
47.00,72.87,0
46.00,68.06,0
74.00,63.92,0
76.00,60.89,0
86.00,59.15,0
103.00,58.76,0
44.00,59.30,0
127.00,60.37,0
98.00,62.47,0
139.00,65.81,0
101.00,70.12,0
147.00,75.10,0
99.00,80.49,0
158.00,86.08,0
105.00,91.77,0
124.00,97.13,0
83.00,101.60,0
131.00,105.11,0
82.00,107.84,0
120.00,109.78,0
65.00,110.83,0
96.00,110.81,0
76.00,109.89,0
70.00,108.19,0
89.00,105.83,0
54.00,103.04,0
66.00,99.68,0
42.00,95.70,0
39.00,91.08,0
62.00,86.06,0
40.00,81.08,0
41.00,76.12,0
46.00,71.22,0
68.00,66.80,0
71.00,63.32,0
94.00,61.10,0
104.00,60.41,0
96.00,61.18,0
127.00,63.25,0
87.00,66.37,0
151.00,70.28,0
102.00,74.99,0
148.00,80.26,0
100.00,85.73,0
146.00,91.13,0
80.00,96.13,0
128.00,100.33,0
79.00,103.65,0
113.00,106.03,0
77.00,107.49,0
82.00,107.93,0
89.00,107.43,0
65.00,106.17,0
78.00,104.15,0
39.00,101.32,0
61.00,97.61,0
39.00,93.21,0
36.00,88.21,0
47.00,82.79,0
36.00,77.29,0
46.00,71.91,0
66.00,67.05,0
84.00,63.30,0
94.00,61.08,0
98.00,60.45,0
122.00,61.36,0
95.00,63.65,0
136.00,66.98,0
92.00,71.10,0
142.00,75.70,0
102.00,80.64,0
158.00,85.91,0
86.00,91.23,0
140.00,96.15,0
92.00,100.49,0
127.00,104.19,0
80.00,107.08,0
108.00,109.00,0
72.00,109.89,0
85.00,109.72,0
70.00,108.54,0
58.00,106.38,0
83.00,103.45,0
81.00,100.31,0
52.00,97.07,0
38.00,93.24,0
37.00,88.62,0
53.00,83.54,0
36.00,78.41,0
50.00,73.36,0
52.00,68.66,0
73.00,64.69,0
67.00,61.72,0
89.00,59.88,0
106.00,59.39,0
95.00,60.33,0
132.00,62.61,0
95.00,66.01,0
139.00,70.22,0
97.00,75.00,0
105.00,79.77,0
103.00,84.15,0
161.00,88.60,0
88.00,93.29,0
145.00,97.75,0
70.00,101.61,0
110.00,104.44,0
78.00,106.19,0
86.00,106.91,0
91.00,106.75,0
69.00,105.88,0
71.00,104.20,0
52.00,101.67,0
71.00,98.39,0
43.00,94.61,0
51.00,90.33,0
66.00,85.83,0
37.00,81.38,0
38.00,76.78,0
103.00,72.54,0
71.00,69.52,0
61.00,67.46,0
87.00,65.98,0
100.00,65.44,0
102.00,66.07,0
103.00,67.73,0
101.00,70.12,0
145.00,73.35,0
90.00,77.35,0
151.00,81.75,0
105.00,86.50,0
150.00,91.48,0
36.00,95.89,0
158.00,99.21,0
88.00,102.09,0
138.00,104.80,0
75.00,107.03,0
113.00,108.50,0
65.00,109.05,0
86.00,108.59,0
89.00,107.34,0
71.00,105.60,0
73.00,103.31,0
46.00,100.31,0
56.00,96.53,0
37.00,92.07,0
36.00,87.02,0
37.00,81.51,0
42.00,75.88,0
44.00,70.46,0
52.00,65.52,0
67.00,61.38,0
70.00,58.31,0
99.00,56.60,0
101.00,56.46,0
104.00,57.85,0
115.00,60.50,0
99.00,64.09,0
143.00,68.48,0
98.00,73.55,0
145.00,78.97,0
96.00,84.48,0
147.00,89.89,0
95.00,95.03,0
153.00,99.85,0
78.00,104.17,0
114.00,107.50,0
64.00,109.54,0
62.00,109.96,0
94.00,108.99,0
80.00,107.38,0
83.00,105.38,0
51.00,102.82,0
58.00,99.50,0
44.00,95.42,0
46.00,90.75,0
37.00,85.63,0
56.00,80.36,0
40.00,75.27,0
50.00,70.44,0
45.00,65.98,0
56.00,62.03,0
86.00,58.99,0
105.00,57.48,0
99.00,57.69,0
121.00,59.47,0
91.00,62.42,0
133.00,66.20,0
104.00,70.70,0
130.00,75.68,0
102.00,80.82,0
157.00,86.10,0
100.00,91.55,0
152.00,96.86,0
86.00,101.75,0
122.00,105.78,0
75.00,108.70,0
105.00,110.44,0
79.00,111.12,0
75.00,110.76,0
87.00,109.44,0
54.00,107.32,0
86.00,104.48,0
47.00,101.14,0
60.00,97.23,0
36.00,92.73,0
69.00,87.90,0
39.00,83.07,0
39.00,78.19,0
40.00,73.21,0
49.00,68.38,0
78.00,64.24,0
79.00,61.31,0
88.00,59.75,0
108.00,59.59,0
95.00,60.79,0
147.00,63.38,0
96.00,67.27,0
143.00,71.98,0
102.00,77.18,0
149.00,82.67,0
98.00,88.23,0
147.00,93.60,0
98.00,98.63,0
141.00,103.20,0
88.00,107.13,0
122.00,110.20,0
74.00,112.25,0
93.00,113.10,0
52.00,112.59,0
73.00,110.72,0
88.00,107.97,0
50.00,104.79,0
68.00,101.02,0
40.00,96.69,0
42.00,91.77,0
38.00,86.35,0
41.00,80.69,0
39.00,75.03,0
42.00,69.58,0
57.00,64.63,0
50.00,60.44,0
79.00,57.21,0
88.00,55.31,0
69.00,54.72,0
120.00,55.35,0
98.00,57.37,0
150.00,60.86,0
99.00,65.62,0
164.00,71.31,0
95.00,77.57,0
160.00,84.04,0
152.00,90.87,0
150.00,98.13,0
83.00,104.84,0
112.00,110.01,0
79.00,113.49,0
114.00,115.55,0
77.00,116.46,0
69.00,116.08,0
87.00,114.45,0
55.00,111.88,0
60.00,108.36,0
39.00,103.87,0
60.00,98.65,0
41.00,93.07,0
35.00,87.23,0
43.00,81.19,0
46.00,75.29,0
61.00,69.95,0
40.00,65.29,0
94.00,61.53,0
89.00,59.26,0
99.00,58.64,0
128.00,59.66,0
106.00,62.30,0
146.00,66.26,0
104.00,71.22,0
154.00,76.82,0
98.00,82.76,0
158.00,88.73,0
104.00,94.60,0
155.00,100.25,0
85.00,105.36,0
139.00,109.59,0
84.00,112.87,0
124.00,115.20,0
80.00,116.57,0
90.00,116.85,0
83.00,116.04,0
74.00,114.31,0
98.00,111.94,0
60.00,109.16,0
78.00,105.89,0
42.00,102.05,0
55.00,97.55,0
59.00,92.65,0
37.00,87.59,0
36.00,82.26,0
38.00,76.69,0
62.00,71.37,0
63.00,66.82,0
80.00,63.37,0
88.00,61.22,0
86.00,60.38,0
110.00,60.80,0
96.00,62.42,0
127.00,65.13,0
96.00,68.74,0
148.00,73.08,0
99.00,78.02,0
152.00,83.31,0
106.00,88.78,0
157.00,94.31,0
96.00,99.66,0
143.00,104.50,0
129.00,108.94,0
122.00,113.04,0
76.00,116.13,0
88.00,117.63,0
96.00,117.77,0
73.00,116.91,0
100.00,115.21,0
76.00,113.00,0
72.00,110.27,0
47.00,106.77,0
58.00,102.42,0
50.00,97.50,0
62.00,92.36,0
37.00,87.14,0
42.00,81.77,0
54.00,76.42,0
96.00,71.86,0
109.00,68.95,0
77.00,67.70,0
84.00,67.39,0
119.00,67.93,0
96.00,69.57,0
149.00,72.31,0
98.00,76.06,0
156.00,80.56,0
103.00,85.56,0
165.00,90.89,0
138.00,96.66,0
154.00,102.77,0
93.00,108.47,0
136.00,113.14,0
81.00,116.65,0
116.00,118.88,0
82.00,119.91,0
103.00,119.90,0
94.00,119.09,0
80.00,117.61,0
87.00,115.42,0
48.00,112.44,0
75.00,108.58,0
39.00,104.01,0
61.00,98.87,0
35.00,93.29,0
38.00,87.37,0
45.00,81.27,0
45.00,75.37,0
73.00,70.11,0
82.00,66.06,0
97.00,63.57,0
118.00,62.84,0
97.00,63.76,0
140.00,66.10,0
96.00,69.61,0
151.00,73.97,0
87.00,78.84,0
149.00,83.85,0
108.00,88.96,0
156.00,94.20,0
101.00,99.38,0
140.00,104.14,0
90.00,108.20,0
123.00,111.38,0
35.00,113.19,0
98.00,113.19,0
88.00,112.10,0
75.00,110.45,0
86.00,108.22,0
55.00,105.45,0
73.00,102.09,0
42.00,98.17,0
58.00,93.72,0
37.00,88.86,0
66.00,83.86,0
63.00,79.22,0
42.00,75.00,0
47.00,70.92,0
55.00,67.05,0
70.00,63.78,0
80.00,61.45,0
79.00,60.21,0
118.00,60.21,0
109.00,61.72,0
118.00,64.57,0
92.00,68.21,0
147.00,72.43,0
107.00,77.31,0
148.00,82.67,0
112.00,88.26,0
152.00,93.92,0
96.00,99.35,0
148.00,104.26,0
92.00,108.54,0
127.00,112.00,0
88.00,114.51,0
90.00,115.88,0
98.00,116.10,0
69.00,115.37,0
86.00,113.67,0
50.00,111.03,0
78.00,107.54,0
40.00,103.37,0
53.00,98.54,0
52.00,93.25,0
40.00,87.78,0
37.00,82.13,0
40.00,76.39,0
54.00,70.92,0
55.00,66.09,0
83.00,62.28,0
89.00,59.90,0
95.00,59.05,0
118.00,59.74,0
90.00,61.78,0
132.00,64.84,0
100.00,68.79,0
144.00,73.45,0
106.00,78.66,0
150.00,84.21,0
111.00,89.91,0
142.00,95.53,0
89.00,100.65,0
136.00,104.97,0
75.00,108.40,0
104.00,110.62,0
98.00,111.81,0
70.00,112.06,0
75.00,111.13,0
55.00,109.01,0
80.00,106.00,0
40.00,102.30,0
57.00,97.90,0
57.00,93.07,0
42.00,88.10,0
38.00,82.88,0
39.00,77.47,0
56.00,72.22,0
52.00,67.51,0
77.00,63.66,0
55.00,60.79,0
92.00,58.91,0
116.00,58.48,0
92.00,59.66,0
139.00,62.24,0
96.00,66.01,0
148.00,70.66,0
99.00,75.92,0
146.00,81.48,0
93.00,87.01,0
138.00,92.22,0
78.00,96.82,0
112.00,100.48,0
73.00,103.03,0
80.00,104.36,0
83.00,104.53,0
70.00,103.81,0
86.00,102.39,0
52.00,100.35,0
77.00,97.70,0
38.00,94.46,0
56.00,90.62,0
59.00,86.43,0
40.00,82.15,0
36.00,77.64,0
39.00,72.89,0
47.00,68.20,0
58.00,63.97,0
76.00,60.60,0
80.00,58.44,0
87.00,57.53,0
96.00,57.83,0
105.00,59.30,0
137.00,62.15,0
88.00,66.11,0
139.00,70.67,0
97.00,75.64,0
144.00,80.85,0
99.00,86.14,0
157.00,91.43,0
92.00,96.60,0
131.00,101.24,0
76.00,104.97,0
135.00,107.79,0
75.00,109.85,0
94.00,110.92,0
88.00,110.96,0
64.00,110.09,0
93.00,108.34,0
51.00,105.91,0
74.00,102.79,0
46.00,99.05,0
53.00,94.74,0
38.00,89.90,0
62.00,84.81,0
38.00,79.80,0
42.00,74.84,0
60.00,70.09,0
59.00,65.99,0
82.00,62.84,0
97.00,61.01,0
88.00,60.61,0
122.00,61.56,0
66.00,63.53,0
134.00,66.13,0
92.00,69.44,0
138.00,73.44,0
104.00,77.94,0
145.00,82.85,0
87.00,87.82,0
155.00,92.60,0
83.00,97.15,0
127.00,101.09,0
73.00,104.13,0
105.00,106.13,0
77.00,107.11,0
95.00,107.24,0
86.00,106.71,0
60.00,105.48,0
80.00,103.41,0
37.00,100.55,0
53.00,96.76,0
40.00,92.18,0
62.00,87.27,0
37.00,82.31,0
39.00,77.26,0
55.00,72.27,0
54.00,67.77,0
43.00,63.80,0
84.00,60.54,0
96.00,58.59,0
106.00,58.32,0
74.00,59.35,0
131.00,61.34,0
88.00,64.32,0
136.00,68.11,0
92.00,72.49,0
139.00,77.21,0
138.00,82.43,0
146.00,88.32,0
81.00,94.09,0
78.00,98.56,0
60.00,101.16,0
112.00,102.34,0
76.00,102.83,0
95.00,102.77,0
89.00,102.27,0
68.00,101.32,0
82.00,99.79,0
46.00,97.63,0
63.00,94.71,0
45.00,91.15,0
49.00,87.10,0
36.00,82.64,0
35.00,77.80,0
64.00,72.95,0
44.00,68.57,0
59.00,64.72,0
52.00,61.42,0
87.00,58.95,0
88.00,57.73,0
94.00,57.86,0
128.00,59.40,0
86.00,62.21,0
139.00,65.93,0
86.00,70.30,0
158.00,75.17,0
152.00,80.98,0
144.00,87.72,0
83.00,94.26,0
141.00,99.84,0
70.00,104.37,0
108.00,107.58,0
66.00,109.37,0
90.00,109.83,0
80.00,109.25,0
71.00,107.85,0
84.00,105.76,0
52.00,103.09,0
71.00,99.79,0
41.00,95.94,0
56.00,91.57,0
38.00,86.81,0
38.00,81.73,0
58.00,76.59,0
45.00,71.80,0
46.00,67.39,0
45.00,63.32,0
66.00,59.80,0
73.00,57.21,0
86.00,55.83,0
100.00,55.77,0
108.00,57.15,0
120.00,59.92,0
84.00,63.60,0
144.00,67.87,0
92.00,72.70,0
141.00,77.85,0
98.00,83.09,0
136.00,88.25,0
90.00,93.04,0
142.00,97.40,0
74.00,101.19,0
124.00,104.15,0
68.00,106.17,0
96.00,107.13,0
89.00,107.22,0
70.00,106.56,0
90.00,105.18,0
40.00,103.05,0
75.00,100.06,0
39.00,96.37,0
47.00,92.04,0
65.00,87.35,0
36.00,82.66,0
36.00,77.78,0
38.00,72.71,0
54.00,67.82,0
60.00,63.56,0
76.00,60.29,0
84.00,58.27,0
86.00,57.53,0
112.00,58.11,0
92.00,59.95,0
129.00,62.87,0
88.00,66.64,0
142.00,71.00,0
43.00,75.40,0
132.00,79.23,0
98.00,82.86,0
147.00,86.80,0
82.00,90.84,0
118.00,94.46,0
73.00,97.31,0
92.00,99.21,0
120.00,100.48,0
77.00,101.50,0
88.00,101.91,0
60.00,101.45,0
77.00,100.10,0
45.00,97.90,0
61.00,94.87,0
44.00,91.17,0
49.00,86.97,0
38.00,82.41,0
43.00,77.59,0
58.00,72.87,0
58.00,68.67,0
79.00,65.30,0
83.00,63.06,0
77.00,61.92,0
96.00,61.76,0
87.00,62.53,0
105.00,64.15,0
90.00,66.46,0
94.00,69.15,0
89.00,71.95,0
138.00,75.10,0
99.00,78.85,0
140.00,83.04,0
79.00,87.27,0
123.00,91.07,0
67.00,94.20,0
107.00,96.46,0
82.00,97.99,0
70.00,98.73,0
80.00,98.51,0
47.00,97.38,0
66.00,95.27,0
36.00,92.31,0
48.00,88.55,0
52.00,84.29,0
45.00,79.90,0
38.00,75.40,0
37.00,70.80,0
61.00,66.39,0
54.00,62.60,0
77.00,59.69,0
88.00,57.94,0
90.00,57.55,0
112.00,58.47,0
96.00,60.62,0
140.00,63.92,0
88.00,68.14,0
151.00,72.96,0
90.00,78.18,0
151.00,83.55,0
92.00,88.87,0
147.00,93.96,0
78.00,98.56,0
110.00,102.21,0
66.00,104.61,0
98.00,105.76,0
77.00,105.95,0
68.00,105.22,0
89.00,103.66,0
44.00,101.45,0
64.00,98.39,0
40.00,94.54,0
38.00,89.98,0
69.00,85.06,0
47.00,80.35,0
58.00,75.94,0
92.00,72.18,0
81.00,69.62,0
82.00,68.15,0
52.00,67.24,0
109.00,66.77,0
96.00,67.24,0
135.00,68.99,0
92.00,71.85,0
144.00,75.47,0
98.00,79.69,0
143.00,84.28,0
82.00,88.84,0
139.00,93.05,0
71.00,96.74,0
99.00,99.48,0
96.00,101.29,0
87.00,102.43,0
89.00,102.88,0
53.00,102.46,0
77.00,100.97,0
40.00,98.54,0
52.00,95.15,0
40.00,90.94,0
64.00,86.35,0
58.00,81.87,0
42.00,77.59,0
62.00,73.46,0
58.00,69.75,0
86.00,66.80,0
108.00,65.15,0
94.00,65.03,0
122.00,66.26,0
91.00,68.54,0
128.00,71.59,0
126.00,75.45,0
146.00,80.25,0
97.00,85.51,0
144.00,90.67,0
68.00,95.34,0
127.00,99.11,0
75.00,101.98,0
128.00,104.13,0
74.00,105.67,0
86.00,106.34,0
91.00,106.13,0
51.00,105.09,0
91.00,103.17,0
50.00,100.66,0
65.00,97.54,0
41.00,93.76,0
44.00,89.37,0
33.00,84.42,0
62.00,79.27,0
38.00,74.35,0
44.00,69.66,0
57.00,65.31,0
62.00,61.66,0
45.00,58.72,0
90.00,56.54,0
94.00,55.66,0
112.00,56.38,0
90.00,58.44,0
134.00,61.61,0
86.00,65.65,0
127.00,70.13,0
106.00,74.89,0
142.00,80.03,0
81.00,85.19,0
131.00,89.88,0
73.00,93.92,0
117.00,97.14,0
66.00,99.46,0
89.00,100.73,0
79.00,101.03,0
68.00,100.52,0
84.00,99.28,0
58.00,97.49,0
62.00,95.05,0
38.00,91.86,0
38.00,87.83,0
36.00,83.09,0
41.00,77.98,0
54.00,72.92,0
55.00,68.35,0
48.00,64.37,0
86.00,61.18,0
84.00,59.25,0
112.00,58.86,0
92.00,59.95,0
144.00,62.44,0
95.00,66.23,0
149.00,70.92,0
90.00,76.14,0
144.00,81.52,0
90.00,86.77,0
127.00,91.62,0
93.00,95.89,0
96.00,99.34,0
36.00,101.34,0
90.00,101.62,0
89.00,100.98,0
43.00,99.72,0
76.00,97.54,0
44.00,94.61,0
47.00,90.99,0
60.00,86.84,0
40.00,82.52,0
46.00,78.04,0
59.00,73.63,0
64.00,69.72,0
76.00,66.62,0
78.00,64.51,0
116.00,63.65,0
89.00,64.20,0
139.00,66.11,0
85.00,69.13,0
144.00,72.91,0
110.00,77.37,0
138.00,82.35,0
73.00,87.20,0
135.00,91.47,0
74.00,95.14,0
185.00,98.65,0
74.00,102.35,0
82.00,105.21,0
89.00,106.61,0
55.00,106.74,0
76.00,105.58,0
45.00,103.30,0
50.00,99.90,0
37.00,95.54,0
37.00,90.38,0
36.00,84.69,0
43.00,78.82,0
46.00,73.15,0
48.00,67.93,0
67.00,63.44,0
60.00,59.94,0
84.00,57.54,0
89.00,56.42,0
89.00,56.61,0
115.00,58.03,0
89.00,60.55,0
130.00,63.96,0
78.00,67.97,0
145.00,72.34,0
92.00,77.07,0
143.00,82.03,0
88.00,86.93,0
128.00,91.49,0
67.00,95.32,0
93.00,98.00,0
83.00,99.58,0
82.00,100.29,0
95.00,100.33,0
49.00,99.69,0
64.00,98.02,0
35.00,95.25,0
38.00,91.39,0
64.00,86.87,0
42.00,82.27,0
48.00,77.66,0
52.00,73.16,0
65.00,69.11,0
83.00,65.95,0
92.00,64.04,0
111.00,63.60,0
90.00,64.54,0
145.00,66.73,0
84.00,70.02,0
135.00,73.93,0
75.00,78.00,0
142.00,82.05,0
80.00,86.05,0
124.00,89.77,0
68.00,92.91,0
105.00,95.23,0
77.00,96.77,0
89.00,97.61,0
85.00,97.83,0
52.00,97.32,0
68.00,95.84,0
44.00,93.44,0
50.00,90.22,0
37.00,86.25,0
40.00,81.74,0
41.00,76.90,0
54.00,72.13,0
57.00,67.81,0
79.00,64.34,0
84.00,62.05,0
116.00,61.25,0
88.00,61.97,0
130.00,63.97,0
84.00,66.94,0
148.00,70.68,0
92.00,75.12,0
169.00,80.13,0
83.00,85.53,0
133.00,90.67,0
74.00,95.07,0
120.00,98.58,0
68.00,101.15,0
96.00,102.67,0
85.00,103.28,0
72.00,103.12,0
82.00,102.17,0
70.00,100.59,0
75.00,98.53,0
41.00,95.86,0
61.00,92.47,0
40.00,88.51,0
36.00,84.03,0
34.00,79.04,0
46.00,73.85,0
57.00,68.98,0
72.00,64.91,0
81.00,62.02,0
104.00,60.57,0
92.00,60.64,0
127.00,62.13,0
84.00,64.78,0
132.00,68.20,0
85.00,72.13,0
146.00,76.44,0
75.00,80.95,0
137.00,85.27,0
70.00,89.21,0
106.00,92.41,0
53.00,94.56,0
92.00,95.59,0
117.00,96.13,0
70.00,96.63,0
82.00,96.62,0
47.00,95.72,0
56.00,93.79,0
39.00,90.84,0
70.00,87.26,0
36.00,83.42,0
42.00,79.26,0
57.00,74.92,0
56.00,70.90,0
78.00,67.54,0
96.00,65.31,0
77.00,64.33,0
128.00,64.62,0
79.00,66.11,0
142.00,68.61,0
88.00,72.00,0
159.00,76.13,0
90.00,80.88,0
145.00,85.83,0
66.00,90.44,0
80.00,93.90,0
63.00,95.81,0
77.00,96.42,0
86.00,96.20,0
69.00,95.47,0
79.00,94.26,0
49.00,92.50,0
43.00,89.91,0
38.00,86.38,0
35.00,82.10,0
37.00,77.31,0
46.00,72.40,0
63.00,67.85,0
94.00,64.36,0
44.00,62.02,0
100.00,60.53,0
89.00,60.16,0
117.00,61.17,0
82.00,63.28,0
184.00,66.64,0
106.00,71.60,0
144.00,77.48,0
78.00,83.29,0
127.00,88.48,0
64.00,92.77,0
111.00,95.99,0
67.00,98.18,0
79.00,99.27,0
84.00,99.37,0
68.00,98.77,0
87.00,97.58,0
43.00,95.80,0
58.00,93.18,0
36.00,89.69,0
41.00,85.47,0
37.00,80.71,0
37.00,75.66,0
50.00,70.64,0
48.00,66.02,0
74.00,62.15,0
89.00,59.52,0
82.00,58.32,0
115.00,58.53,0
83.00,60.04,0
132.00,62.64,0
133.00,66.54,0
127.00,71.66,0
74.00,77.00,0
124.00,81.81,0
67.00,85.98,0
120.00,89.43,0
58.00,92.11,0
84.00,93.74,0
64.00,94.27,0
58.00,93.78,0
57.00,92.26,0
43.00,89.81,0
65.00,86.68,0
42.00,83.21,0
48.00,79.44,0
39.00,75.40,0
38.00,71.18,0
44.00,66.92,0
46.00,62.89,0
68.00,59.43,0
68.00,56.92,0
74.00,55.44,0
95.00,55.05,0
67.00,55.70,0
102.00,57.10,0
65.00,59.05,0
114.00,61.44,0
72.00,64.25,0
127.00,67.44,0
66.00,70.89,0
108.00,74.20,0
61.00,77.10,0
80.00,79.32,0
48.00,80.60,0
60.00,80.86,0
70.00,80.36,0
44.00,79.34,0
66.00,77.80,0
39.00,75.83,0
44.00,73.37,0
39.00,70.44,0
37.00,67.21,0
34.00,63.75,0
56.00,60.35,0
41.00,57.31,0
36.00,54.55,0
61.00,52.08,0
46.00,50.17,0
70.00,48.90,0
76.00,48.49,0
66.00,48.96,0
94.00,50.18,0
61.00,52.05,0
121.00,54.54,0
54.00,57.59,0
106.00,60.78,0
63.00,63.91,0
116.00,67.05,0
56.00,70.13,0
98.00,72.85,0
51.00,75.00,0
73.00,76.41,0
56.00,77.03,0
49.00,76.88,0
70.00,76.07,0
36.00,74.79,0
49.00,72.92,0
39.00,70.51,0
38.00,67.70,0
66.00,64.81,0
36.00,62.18,0
43.00,59.62,0
50.00,57.12,0
59.00,55.00,0
58.00,53.45,0
107.00,52.83,0
86.00,53.57,0
68.00,55.25,0
102.00,57.37,0
64.00,59.87,0
114.00,62.64,0
88.00,65.82,0
103.00,69.31,0
65.00,72.65,0
101.00,75.54,0
63.00,77.97,0
81.00,79.78,0
47.00,80.76,0
76.00,80.91,0
62.00,80.49,0
38.00,79.47,0
74.00,77.82,0
40.00,75.85,0
38.00,73.42,0
38.00,70.42,0
65.00,67.27,0
39.00,64.37,0
42.00,61.56,0
52.00,58.84,0
52.00,56.46,0
109.00,54.97,0
51.00,54.69,0
76.00,55.04,0
83.00,55.85,0
60.00,57.13,0
112.00,58.81,0
59.00,60.98,0
49.00,62.92,0
58.00,64.08,0
99.00,65.04,0
45.00,66.10,0
87.00,67.00,0
46.00,67.66,0
80.00,68.06,0
36.00,68.12,0
46.00,67.54,0
59.00,66.42,0
36.00,65.02,0
64.00,63.41,0
39.00,61.77,0
41.00,59.99,0
37.00,57.96,0
36.00,55.74,0
37.00,53.41,0
38.00,51.10,0
47.00,48.97,0
42.00,47.17,0
38.00,45.64,0
55.00,44.41,0
60.00,43.72,0
86.00,43.92,0
55.00,45.00,0
103.00,46.81,0
52.00,49.24,0
101.00,52.00,0
52.00,54.92,0
103.00,57.87,0
48.00,60.73,0
88.00,63.27,0
40.00,65.29,0
35.00,66.35,0
64.00,66.39,0
52.00,66.00,0
70.00,65.49,0
38.00,64.84,0
56.00,63.86,0
40.00,62.58,0
39.00,60.97,0
35.00,58.99,0
38.00,56.74,0
41.00,54.41,0
43.00,52.18,0
38.00,50.13,0
64.00,48.42,0
58.00,47.39,0
81.00,47.20,0
62.00,47.84,0
98.00,49.25,0
48.00,51.24,0
104.00,53.53,0
38.00,55.94,0
107.00,58.29,0
40.00,60.57,0
80.00,62.50,0
54.00,64.01,0
61.00,65.08,0
55.00,65.66,0
59.00,65.82,0
64.00,65.73,0
40.00,65.36,0
54.00,64.55,0
39.00,63.33,0
47.00,61.79,0
64.00,60.20,0
38.00,58.77,0
37.00,57.19,0
44.00,55.39,0
48.00,53.62,0
56.00,52.12,0
57.00,51.05,0
76.00,50.59,0
56.00,50.76,0
167.00,52.16,0
54.00,55.19,0
99.00,58.77,0
57.00,62.11,0
78.00,65.00,0
49.00,67.21,0
87.00,68.84,0
40.00,69.97,0
72.00,70.50,0
37.00,70.40,0
62.00,69.72,0
45.00,68.60,0
47.00,67.13,0
60.00,65.43,0
40.00,63.69,0
49.00,61.83,0
37.00,59.81,0
64.00,57.85,0
39.00,56.14,0
80.00,54.81,0
55.00,54.09,0
37.00,53.63,0
43.00,52.93,0
38.00,51.98,0
53.00,50.95,0
54.00,50.13,0
54.00,49.62,0
78.00,49.57,0
58.00,50.12,0
92.00,51.24,0
82.00,53.07,0
118.00,55.79,0
48.00,59.04,0
103.00,62.17,0
46.00,64.98,0
80.00,67.23,0
45.00,68.79,0
70.00,69.68,0
36.00,69.87,0
48.00,69.26,0
56.00,68.05,0
71.00,66.78,0
63.00,65.77,0
39.00,64.78,0
45.00,63.41,0
36.00,61.63,0
69.00,59.78,0
36.00,58.13,0
41.00,56.45,0
55.00,54.74,0
44.00,53.24,0
57.00,52.00,0
64.00,51.17,0
52.00,50.81,0
57.00,50.71,0
54.00,50.79,0
88.00,51.25,0
40.00,52.14,0
94.00,53.26,0
51.00,54.65,0
93.00,56.30,0
39.00,57.97,0
76.00,59.37,0
44.00,60.41,0
71.00,61.14,0
88.00,61.95,0
36.00,62.85,0
60.00,63.28,0
36.00,63.09,0
44.00,62.31,0
39.00,60.99,0
37.00,59.28,0
68.00,57.52,0
36.00,56.00,0
47.00,54.54,0
41.00,53.04,0
36.00,51.51,0
109.00,50.48,0
58.00,50.59,0
37.00,51.19,0
63.00,51.55,0
90.00,52.22,0
50.00,53.43,0
104.00,55.02,0
55.00,56.99,0
103.00,59.23,0
57.00,61.59,0
87.00,63.86,0
37.00,65.69,0
77.00,66.88,0
34.00,67.44,0
67.00,67.38,0
46.00,66.89,0
48.00,66.01,0
70.00,64.91,0
44.00,63.84,0
46.00,62.61,0
42.00,61.07,0
41.00,59.29,0
42.00,57.36,0
36.00,55.32,0
58.00,53.37,0
38.00,51.69,0
44.00,50.17,0
43.00,48.76,0
52.00,47.58,0
44.00,46.69,0
57.00,46.09,0
68.00,45.99,0
48.00,46.38,0
83.00,47.18,0
51.00,48.43,0
116.00,50.27,0
44.00,52.72,0
97.00,55.32,0
58.00,57.92,0
93.00,60.51,0
40.00,62.82,0
80.00,64.59,0
41.00,65.79,0
64.00,66.39,0
48.00,66.45,0
47.00,66.00,0
66.00,65.19,0
47.00,64.29,0
56.00,63.26,0
36.00,62.00,0
51.00,60.47,0
34.00,58.74,0
36.00,56.76,0
51.00,54.68,0
35.00,52.71,0
47.00,50.87,0
48.00,49.25,0
60.00,48.07,0
122.00,47.98,0
57.00,49.31,0
82.00,51.32,0
50.00,53.40,0
93.00,55.48,0
58.00,57.66,0
96.00,59.93,0
54.00,62.20,0
94.00,64.32,0
36.00,66.11,0
84.00,67.35,0
41.00,68.08,0
142.00,68.94,0
43.00,70.36,0
64.00,71.52,0
48.00,71.85,0
44.00,71.41,0
66.00,70.39,0
46.00,69.12,0
47.00,67.56,0
36.00,65.59,0
42.00,63.25,0
36.00,60.67,0
37.00,57.95,0
39.00,55.19,0
38.00,52.54,0
46.00,50.12,0
42.00,48.04,0
66.00,46.50,0
56.00,45.68,0
62.00,45.54,0
75.00,46.03,0
52.00,47.06,0
95.00,48.55,0
74.00,50.69,0
92.00,53.40,0
41.00,56.16,0
84.00,58.53,0
46.00,60.51,0
95.00,62.25,0
40.00,63.80,0
79.00,64.96,0
38.00,65.65,0
62.00,65.80,0
54.00,65.52,0
55.00,65.00,0
63.00,64.34,0
38.00,63.51,0
71.00,62.52,0
40.00,61.52,0
43.00,60.33,0
39.00,58.80,0
36.00,56.98,0
60.00,55.14,0
42.00,53.54,0
43.00,52.11,0
42.00,50.70,0
48.00,49.40,0
53.00,48.36,0
55.00,47.70,0
77.00,47.60,0
58.00,48.18,0
92.00,49.37,0
45.00,51.01,0
91.00,52.84,0
44.00,54.72,0
91.00,56.57,0
49.00,58.38,0
94.00,60.16,0
44.00,61.85,0
78.00,63.24,0
43.00,64.21,0
55.00,64.63,0
62.00,64.59,0
46.00,64.28,0
66.00,63.73,0
37.00,62.99,0
52.00,61.92,0
35.00,60.52,0
53.00,58.89,0
38.00,57.19,0
36.00,55.36,0
37.00,53.36,0
35.00,51.28,0
44.00,49.25,0
54.00,47.54,0
54.00,46.38,0
65.00,45.84,0
43.00,45.79,0
79.00,46.14,0
50.00,46.96,0
103.00,48.37,0
44.00,50.32,0
94.00,52.49,0
46.00,54.70,0
103.00,56.96,0
36.00,59.18,0
70.00,60.94,0
43.00,62.06,0
64.00,62.68,0
48.00,62.90,0
55.00,62.75,0
63.00,62.39,0
42.00,61.90,0
58.00,61.17,0
36.00,60.20,0
47.00,58.93,0
38.00,57.41,0
61.00,55.88,0
38.00,54.50,0
36.00,53.08,0
43.00,51.52,0
37.00,49.94,0
81.00,48.73,0
46.00,48.22,0
54.00,48.12,0
70.00,48.30,0
54.00,48.89,0
85.00,49.90,0
49.00,51.28,0
97.00,52.94,0
45.00,54.83,0
98.00,56.81,0
67.00,58.99,0
97.00,61.41,0
51.00,63.79,0
91.00,65.90,0
43.00,67.60,0
57.00,68.59,0
43.00,68.72,0
55.00,68.18,0
68.00,67.34,0
48.00,66.46,0
59.00,65.43,0
49.00,64.26,0
43.00,62.90,0
36.00,61.20,0
58.00,59.32,0
40.00,57.51,0
40.00,55.71,0
45.00,53.86,0
43.00,52.11,0
46.00,50.51,0
42.00,49.09,0
61.00,47.97,0
64.00,47.42,0
85.00,47.69,0
82.00,48.93,0
51.00,50.72,0
93.00,52.70,0
50.00,54.83,0
96.00,57.02,0
55.00,59.26,0
94.00,61.48,0
50.00,63.56,0
90.00,65.38,0
44.00,66.87,0
76.00,67.90,0
40.00,68.38,0
59.00,68.26,0
51.00,67.64,0
41.00,66.59,0
61.00,65.19,0
36.00,63.62,0
52.00,61.85,0
35.00,59.91,0
39.00,57.79,0
138.00,56.33,0
39.00,56.31,0
36.00,56.51,0
37.00,56.03,0
42.00,55.06,0
46.00,53.88,0
56.00,52.77,0
80.00,52.16,0
48.00,52.15,0
79.00,52.53,0
47.00,53.17,0
88.00,54.05,0
48.00,55.18,0
104.00,56.58,0
60.00,58.39,0
96.00,60.48,0
53.00,62.58,0
102.00,64.63,0
36.00,66.46,0
75.00,67.71,0
37.00,68.27,0
59.00,68.15,0
55.00,67.54,0
50.00,66.65,0
59.00,65.53,0
37.00,64.21,0
44.00,62.54,0
40.00,60.56,0
65.00,58.61,0
36.00,56.90,0
50.00,55.26,0
43.00,53.67,0
43.00,52.16,0
45.00,50.73,0
63.00,49.59,0
60.00,48.98,0
46.00,48.80,0
56.00,48.77,0
100.00,49.27,0
54.00,50.58,0
92.00,52.39,0
38.00,54.31,0
98.00,56.18,0
52.00,58.10,0
90.00,60.05,0
49.00,61.87,0
77.00,63.40,0
36.00,64.44,0
65.00,64.87,0
60.00,64.91,0
47.00,64.71,0
63.00,64.21,0
35.00,63.43,0
47.00,62.23,0
37.00,60.63,0
36.00,58.71,0
50.00,56.62,0
67.00,54.84,0
35.00,53.48,0
41.00,52.16,0
43.00,50.75,0
47.00,49.44,0
52.00,48.37,0
127.00,48.26,0
55.00,49.59,0
76.00,51.55,0
49.00,53.45,0
107.00,55.45,0
46.00,57.69,0
96.00,59.92,0
58.00,62.09,0
109.00,64.33,0
50.00,66.60,0
89.00,68.58,0
43.00,70.06,0
76.00,70.95,0
40.00,71.22,0
36.00,70.65,0
50.00,69.22,0
36.00,67.26,0
65.00,65.10,0
43.00,63.04,0
52.00,61.06,0
37.00,59.06,0
37.00,56.94,0
40.00,54.69,0
61.00,52.65,0
36.00,50.99,0
36.00,49.44,0
42.00,47.87,0
41.00,46.43,0
55.00,45.27,0
60.00,44.64,0
60.00,44.63,0
74.00,45.24,0
51.00,46.34,0
91.00,47.85,0
45.00,49.71,0
100.00,51.80,0
47.00,54.10,0
108.00,56.55,0
48.00,59.12,0
88.00,61.52,0
43.00,63.53,0
78.00,65.03,0
46.00,66.05,0
64.00,66.57,0
49.00,66.61,0
53.00,66.21,0
66.00,65.54,0
44.00,64.76,0
57.00,63.76,0
36.00,62.51,0
43.00,60.91,0
37.00,58.99,0
70.00,57.13,0
43.00,55.64,0
37.00,54.27,0
38.00,52.71,0
42.00,51.06,0
56.00,49.59,0
56.00,48.57,0
63.00,48.10,0
80.00,48.31,0
56.00,49.19,0
97.00,50.62,0
51.00,52.52,0
92.00,54.63,0
53.00,56.82,0
96.00,59.03,0
56.00,61.25,0
95.00,63.41,0
34.00,65.28,0
70.00,66.47,0
39.00,66.94,0
52.00,66.72,0
51.00,65.96,0
46.00,64.85,0
59.00,63.52,0
41.00,62.11,0
62.00,60.67,0
36.00,59.22,0
36.00,57.57,0
38.00,55.61,0
46.00,53.60,0
38.00,51.68,0
39.00,49.85,0
48.00,48.16,0
42.00,46.76,0
57.00,45.70,0
69.00,45.24,0
52.00,45.44,0
85.00,46.21,0
47.00,47.50,0
105.00,49.25,0
50.00,51.50,0
91.00,53.95,0
49.00,56.35,0
97.00,58.67,0
45.00,60.88,0
56.00,62.56,0
41.00,63.40,0
78.00,63.73,0
45.00,63.87,0
50.00,63.67,0
64.00,63.15,0
46.00,62.51,0
61.00,61.75,0
37.00,60.82,0
47.00,59.61,0
36.00,58.11,0
43.00,56.38,0
54.00,54.66,0
44.00,53.15,0
40.00,51.76,0
40.00,50.33,0
52.00,49.01,0
60.00,48.07,0
70.00,47.78,0
74.00,48.25,0
46.00,49.19,0
95.00,50.44,0
45.00,52.04,0
105.00,53.95,0
58.00,56.20,0
97.00,58.68,0
43.00,61.07,0
83.00,63.07,0
38.00,64.54,0
65.00,65.37,0
38.00,65.53,0
56.00,65.11,0
52.00,64.30,0
40.00,63.21,0
61.00,61.88,0
39.00,60.49,0
39.00,58.90,0
36.00,57.00,0
40.00,54.92,0
38.00,52.79,0
47.00,50.78,0
33.00,48.94,0
50.00,47.26,0
50.00,45.94,0
73.00,45.26,0
53.00,45.31,0
81.00,46.00,0
48.00,47.17,0
96.00,48.76,0
46.00,50.72,0
106.00,52.96,0
45.00,55.42,0
104.00,57.94,0
53.00,60.46,0
94.00,62.90,0
45.00,65.03,0
88.00,66.75,0
45.00,68.05,0
48.00,68.66,0
56.00,68.48,0
44.00,67.76,0
64.00,66.69,0
36.00,65.39,0
46.00,63.74,0
50.00,61.84,0
64.00,60.09,0
72.00,58.84,0
38.00,57.99,0
42.00,56.99,0
40.00,55.69,0
47.00,54.25,0
56.00,52.93,0
55.00,51.95,0
79.00,51.51,0
55.00,51.69,0
58.00,52.16,0
51.00,52.63,0
87.00,53.29,0
48.00,54.29,0
96.00,55.56,0
45.00,57.06,0
99.00,58.66,0
46.00,60.33,0
68.00,61.75,0
39.00,62.61,0
55.00,62.86,0
58.00,62.68,0
42.00,62.24,0
64.00,61.54,0
36.00,60.68,0
45.00,59.51,0
37.00,58.00,0
40.00,56.24,0
35.00,54.30,0
40.00,52.28,0
38.00,50.27,0
39.00,48.37,0
66.00,46.83,0
58.00,46.00,0
56.00,45.81,0
89.00,46.31,0
101.00,47.93,0
85.00,50.68,0
45.00,53.73,0
102.00,56.55,0
49.00,59.29,0
100.00,61.89,0
44.00,64.25,0
87.00,66.18,0
38.00,67.58,0
78.00,68.40,0
35.00,68.66,0
75.00,68.43,0
47.00,67.91,0
44.00,67.03,0
60.00,65.75,0
38.00,64.28,0
53.00,62.59,0
42.00,60.78,0
45.00,58.90,0
63.00,57.13,0
40.00,55.64,0
36.00,54.15,0
38.00,52.46,0
41.00,50.71,0
55.00,49.14,0
54.00,48.03,0
64.00,47.47,0
50.00,47.39,0
73.00,47.73,0
44.00,48.39,0
88.00,49.35,0
49.00,50.67,0
103.00,52.38,0
56.00,54.52,0
96.00,56.91,0
53.00,59.33,0
47.00,61.27,0
40.00,62.25,0
97.00,62.78,0
39.00,63.37,0
70.00,63.75,0
52.00,63.83,0
43.00,63.59,0
57.00,62.90,0
43.00,61.96,0
57.00,60.85,0
39.00,59.61,0
42.00,58.16,0
87.00,56.87,0
35.00,56.09,0
37.00,55.24,0
40.00,54.00,0
40.00,52.57,0
40.00,51.07,0
57.00,49.70,0
56.00,48.76,0
49.00,48.23,0
94.00,48.29,0
52.00,49.13,0
92.00,50.54,0
50.00,52.31,0
99.00,54.34,0
50.00,56.54,0
97.00,58.80,0
47.00,60.97,0
76.00,62.81,0
51.00,64.20,0
58.00,65.09,0
38.00,65.31,0
56.00,64.89,0
56.00,64.13,0
97.00,63.62,0
62.00,63.72,0
36.00,63.81,0
48.00,63.27,0
40.00,62.18,0
42.00,60.71,0
56.00,59.08,0
92.00,57.92,0
34.00,57.38,0
43.00,56.76,0
44.00,55.76,0
54.00,54.69,0
54.00,53.78,0
56.00,53.10,0
60.00,52.70,0
86.00,52.82,0
54.00,53.53,0
88.00,54.62,0
54.00,56.00,0
103.00,57.67,0
46.00,59.55,0
101.00,61.46,0
50.00,63.35,0
101.00,65.19,0
41.00,66.85,0
79.00,68.06,0
52.00,68.81,0
44.00,68.98,0
58.00,68.46,0
58.00,67.60,0
57.00,66.63,0
40.00,65.44,0
43.00,63.86,0
36.00,61.89,0
42.00,59.65,0
52.00,57.40,0
40.00,55.33,0
58.00,53.50,0
42.00,51.97,0
43.00,50.62,0
38.00,49.30,0
53.00,48.08,0
60.00,47.25,0
56.00,46.96,0
74.00,47.21,0
48.00,47.92,0
70.00,48.87,0
42.00,49.88,0
98.00,51.08,0
56.00,52.73,0
95.00,54.76,0
43.00,56.88,0
86.00,58.82,0
38.00,60.44,0
64.00,61.54,0
42.00,62.07,0
57.00,62.11,0
50.00,61.79,0
45.00,61.18,0
43.00,60.21,0
41.00,58.90,0
54.00,57.45,0
44.00,56.03,0
41.00,54.62,0
69.00,53.35,0
38.00,52.41,0
37.00,51.48,0
38.00,50.30,0
40.00,49.01,0
38.00,47.70,0
42.00,46.43,0
62.00,45.45,0
64.00,45.11,0
112.00,45.86,0
51.00,47.71,0
95.00,50.09,0
52.00,52.66,0
98.00,55.33,0
52.00,58.00,0
104.00,60.64,0
50.00,63.21,0
98.00,65.57,0
40.00,67.55,0
80.00,68.97,0
39.00,69.73,0
61.00,69.81,0
39.00,69.21,0
54.00,68.06,0
63.00,66.67,0
40.00,65.23,0
47.00,63.55,0
35.00,61.57,0
40.00,59.31,0
63.00,57.11,0
38.00,55.23,0
38.00,53.44,0
40.00,51.58,0
45.00,49.82,0
58.00,48.38,0
42.00,47.37,0
71.00,46.80,0
41.00,46.67,0
78.00,46.94,0
49.00,47.62,0
93.00,48.78,0
48.00,50.39,0
103.00,52.36,0
56.00,54.70,0
96.00,57.24,0
56.00,59.79,0
84.00,62.17,0
60.00,64.27,0
72.00,66.02,0
44.00,67.21,0
56.00,67.69,0
63.00,67.63,0
42.00,67.20,0
58.00,66.34,0
36.00,65.10,0
41.00,63.41,0
36.00,61.30,0
37.00,58.90,0
57.00,56.51,0
35.00,54.36,0
42.00,52.33,0
104.00,50.90,0
66.00,50.75,0
53.00,51.34,0
57.00,51.99,0
76.00,52.77,0
51.00,53.77,0
91.00,54.98,0
47.00,56.40,0
103.00,57.99,0
64.00,59.90,0
96.00,62.09,0
49.00,64.21,0
70.00,65.88,0
45.00,66.91,0
71.00,67.38,0
42.00,67.41,0
57.00,66.96,0
57.00,66.16,0
45.00,65.15,0
72.00,64.04,0
38.00,62.95,0
44.00,61.63,0
39.00,59.95,0
53.00,58.14,0
39.00,56.37,0
47.00,54.63,0
38.00,52.91,0
37.00,51.18,0
52.00,49.53,0
47.00,48.19,0
66.00,47.33,0
69.00,47.17,0
39.00,47.49,0
79.00,48.03,0
58.00,48.97,0
99.00,50.50,0
49.00,52.52,0
96.00,54.74,0
55.00,57.06,0
109.00,59.55,0
51.00,62.15,0
90.00,64.57,0
41.00,66.51,0
77.00,67.86,0
55.00,68.69,0
53.00,69.04,0
60.00,68.85,0
39.00,68.18,0
64.00,67.09,0
103.00,66.28,0
49.00,66.10,0
38.00,65.75,0
63.00,64.86,0
36.00,63.70,0
37.00,62.13,0
38.00,60.11,0
54.00,57.97,0
45.00,56.00,0
56.00,54.31,0
57.00,53.00,0
66.00,52.20,0
51.00,51.84,0
93.00,52.02,0
46.00,52.78,0
99.00,53.96,0
54.00,55.54,0
101.00,57.45,0
50.00,59.53,0
112.00,61.72,0
42.00,63.97,0
75.00,65.80,0
43.00,66.96,0
76.00,67.59,0
40.00,67.78,0
58.00,67.45,0
94.00,67.04,0
56.00,67.01,0
64.00,67.00,0
38.00,66.61,0
45.00,65.64,0
31.00,64.04,0
78.00,62.24,0
37.00,60.66,0
42.00,59.07,0
40.00,57.23,0
46.00,55.34,0
61.00,53.67,0
74.00,52.62,0
65.00,52.35,0
70.00,52.68,0
57.00,53.35,0
96.00,54.42,0
51.00,55.90,0
92.00,57.58,0
56.00,59.36,0
98.00,61.24,0
46.00,63.11,0
100.00,64.84,0
47.00,66.43,0
80.00,67.71,0
41.00,68.49,0
66.00,68.70,0
57.00,68.50,0
55.00,68.02,0
68.00,67.35,0
53.00,66.62,0
61.00,65.82,0
46.00,64.85,0
40.00,63.57,0
41.00,61.88,0
68.00,60.13,0
37.00,58.57,0
36.00,56.92,0
42.00,55.04,0
39.00,53.10,0
52.00,51.29,0
52.00,49.83,0
81.00,49.03,0
74.00,49.19,0
64.00,50.10,0
98.00,51.62,0
50.00,53.62,0
91.00,55.76,0
46.00,57.84,0
104.00,59.89,0
53.00,62.00,0
97.00,64.09,0
44.00,65.96,0
82.00,67.41,0
51.00,68.42,0
70.00,69.03,0
64.00,69.31,0
49.00,69.28,0
71.00,68.89,0
38.00,68.21,0
54.00,67.09,0
34.00,65.50,0
41.00,63.48,0
43.00,61.16,0
69.00,59.00,0
37.00,57.20,0
39.00,55.45,0
54.00,53.68,0
40.00,52.11,0
50.00,50.71,0
62.00,49.65,0
63.00,49.15,0
83.00,49.38,0
54.00,50.26,0
97.00,51.65,0
52.00,53.47,0
99.00,55.56,0
53.00,57.81,0
98.00,60.13,0
50.00,62.36,0
90.00,64.38,0
44.00,66.05,0
77.00,67.24,0
48.00,67.96,0
74.00,68.30,0
62.00,68.43,0
49.00,68.31,0
55.00,67.73,0
46.00,66.75,0
52.00,65.45,0
41.00,63.87,0
44.00,62.04,0
36.00,59.95,0
66.00,57.89,0
36.00,56.09,0
37.00,54.32,0
40.00,52.42,0
47.00,50.60,0
58.00,49.13,0
54.00,48.18,0
52.00,47.66,0
76.00,47.63,0
51.00,48.15,0
127.00,49.47,0
49.00,51.77,0
107.00,54.55,0
52.00,57.47,0
101.00,60.36,0
50.00,63.08,0
126.00,65.76,0
52.00,68.55,0
92.00,71.06,0
44.00,72.94,0
64.00,73.97,0
54.00,74.17,0
52.00,73.73,0
67.00,72.81,0
40.00,71.58,0
61.00,70.00,0
41.00,68.16,0
52.00,66.12,0
37.00,63.89,0
64.00,61.66,0
36.00,59.58,0
38.00,57.47,0
47.00,55.28,0
42.00,53.23,0
40.00,51.32,0
61.00,49.69,0
49.00,48.55,0
66.00,47.93,0
57.00,47.85,0
117.00,48.67,0
50.00,50.53,0
100.00,52.89,0
59.00,55.50,0
102.00,58.29,0
52.00,61.09,0
92.00,63.66,0
42.00,65.81,0
75.00,67.34,0
42.00,68.21,0
54.00,68.38,0
54.00,67.93,0
42.00,67.03,0
43.00,65.63,0
43.00,63.80,0
52.00,61.80,0
39.00,59.78,0
50.00,57.75,0
37.00,55.76,0
61.00,53.93,0
38.00,52.39,0
40.00,50.95,0
43.00,49.50,0
45.00,48.17,0
60.00,47.17,0
60.00,46.70,0
83.00,46.99,0
106.00,48.39,0
57.00,50.76,0
100.00,53.53,0
53.00,56.42,0
101.00,59.29,0
59.00,62.11,0
104.00,64.87,0
52.00,67.46,0
95.00,69.70,0
44.00,71.46,0
78.00,72.59,0
43.00,73.06,0
62.00,72.87,0
53.00,72.13,0
46.00,70.96,0
82.00,69.60,0
37.00,68.31,0
59.00,66.85,0
37.00,65.13,0
38.00,63.07,0
37.00,60.65,0
56.00,58.20,0
36.00,55.94,0
38.00,53.74,0
52.00,51.65,0
49.00,49.93,0
59.00,48.70,0
70.00,48.12,0
60.00,48.23,0
98.00,49.09,0
55.00,50.69,0
102.00,52.79,0
48.00,55.18,0
100.00,57.64,0
62.00,60.17,0
120.00,62.94,0
52.00,65.89,0
92.00,68.57,0
40.00,70.63,0
73.00,71.88,0
47.00,72.38,0
54.00,72.20,0
68.00,71.52,0
50.00,70.62,0
64.00,69.53,0
37.00,68.17,0
56.00,66.50,0
37.00,64.57,0
39.00,62.35,0
37.00,59.87,0
70.00,57.51,0
75.00,55.90,0
36.00,54.94,0
45.00,53.99,0
47.00,52.91,0
65.00,52.02,0
72.00,51.69,0
59.00,51.94,0
79.00,52.64,0
64.00,53.75,0
96.00,55.32,0
54.00,57.25,0
112.00,59.44,0
61.00,61.94,0
118.00,64.71,0
35.00,67.42,0
81.00,69.47,0
40.00,70.69,0
86.00,71.32,0
51.00,71.62,0
55.00,71.49,0
68.00,70.91,0
45.00,70.08,0
62.00,68.94,0
40.00,67.53,0
72.00,65.99,0
56.00,64.63,0
41.00,63.31,0
35.00,61.65,0
43.00,59.62,0
38.00,57.43,0
43.00,55.20,0
48.00,53.10,0
57.00,51.37,0
57.00,50.16,0
71.00,49.58,0
48.00,49.55,0
93.00,50.05,0
55.00,51.16,0
108.00,52.90,0
57.00,55.18,0
96.00,57.72,0
57.00,60.26,0
107.00,62.83,0
47.00,65.32,0
88.00,67.45,0
42.00,69.03,0
73.00,69.97,0
53.00,70.36,0
42.00,70.16,0
74.00,69.43,0
43.00,68.50,0
56.00,67.32,0
38.00,65.78,0
48.00,63.92,0
49.00,61.91,0
39.00,59.86,0
39.00,57.70,0
42.00,55.46,0
36.00,53.23,0
40.00,51.06,0
55.00,49.13,0
61.00,47.78,0
67.00,47.21,0
78.00,47.47,0
48.00,48.34,0
96.00,49.65,0
51.00,51.41,0
102.00,53.53,0
63.00,56.00,0
97.00,58.71,0
54.00,61.39,0
126.00,64.13,0
41.00,66.97,0
81.00,69.30,0
43.00,70.81,0
64.00,71.53,0
52.00,71.56,0
50.00,71.02,0
70.00,70.10,0
40.00,68.98,0
58.00,67.57,0
36.00,65.85,0
38.00,63.76,0
40.00,61.32,0
34.00,58.70,0
36.00,55.96,0
37.00,53.22,0
41.00,50.62,0
39.00,48.28,0
40.00,46.21,0
49.00,44.51,0
62.00,43.39,0
78.00,43.18,0
58.00,43.88,0
93.00,45.35,0
47.00,47.38,0
121.00,49.91,0
43.00,52.93,0
98.00,55.99,0
53.00,58.89,0
97.00,61.63,0
42.00,64.07,0
37.00,65.60,0
35.00,65.82,0
55.00,65.16,0
61.00,64.20,0
48.00,63.22,0
55.00,62.12,0
43.00,60.90,0
45.00,59.50,0
36.00,57.85,0
36.00,55.95,0
61.00,54.06,0
36.00,52.43,0
37.00,50.87,0
39.00,49.23,0
50.00,47.73,0
49.00,46.56,0
51.00,45.77,0
83.00,45.59,0
95.00,46.55,0
86.00,48.70,0
54.00,51.38,0
95.00,54.11,0
54.00,56.87,0
110.00,59.67,0
50.00,62.51,0
99.00,65.16,0
55.00,67.52,0
81.00,69.48,0
37.00,70.77,0
79.00,71.35,0
56.00,71.50,0
40.00,71.16,0
63.00,70.19,0
42.00,68.85,0
57.00,67.23,0
37.00,65.37,0
49.00,63.28,0
38.00,61.02,0
53.00,58.76,0
39.00,56.61,0
42.00,54.53,0
61.00,52.67,0
62.00,51.39,0
58.00,50.72,0
70.00,50.58,0
44.00,50.81,0
83.00,51.29,0
58.00,52.18,0
96.00,53.57,0
52.00,55.35,0
104.00,57.39,0
52.00,59.62,0
99.00,61.88,0
44.00,63.99,0
96.00,65.81,0
46.00,67.35,0
73.00,68.45,0
47.00,68.99,0
50.00,68.92,0
75.00,68.42,0
43.00,67.78,0
62.00,66.90,0
42.00,65.74,0
43.00,64.25,0
36.00,62.35,0
67.00,60.35,0
37.00,58.54,0
36.00,56.70,0
44.00,54.68,0
46.00,52.75,0
52.00,51.09,0
55.00,49.84,0
58.00,49.06,0
73.00,48.86,0
48.00,49.18,0
93.00,49.97,0
47.00,51.23,0
93.00,52.81,0
52.00,54.61,0
100.00,56.63,0
49.00,58.78,0
110.00,61.02,0
40.00,63.26,0
119.00,65.42,0
41.00,67.53,0
66.00,69.11,0
54.00,69.90,0
59.00,70.12,0
64.00,69.92,0
40.00,69.32,0
55.00,68.23,0
39.00,66.70,0
46.00,64.81,0
37.00,62.62,0
71.00,60.46,0
40.00,58.64,0
38.00,56.87,0
42.00,54.96,0
38.00,53.01,0
62.00,51.26,0
44.00,49.94,0
61.00,49.03,0
86.00,48.80,0
54.00,49.38,0
86.00,50.50,0
43.00,51.90,0
103.00,53.53,0
60.00,55.56,0
103.00,57.95,0
51.00,60.47,0
100.00,62.91,0
43.00,65.11,0
90.00,66.91,0
69.00,68.48,0
72.00,69.89,0
44.00,70.78,0
55.00,70.88,0
40.00,70.22,0
44.00,68.88,0
63.00,67.16,0
38.00,65.35,0
44.00,63.33,0
39.00,61.07,0
65.00,58.88,0
37.00,56.97,0
36.00,55.08,0
37.00,53.03,0
39.00,50.95,0
43.00,48.99,0
53.00,47.36,0
56.00,46.24,0
40.00,45.56,0
49.00,45.07,0
85.00,45.04,0
51.00,45.76,0
107.00,47.24,0
52.00,49.42,0
100.00,52.01,0
59.00,54.84,0
93.00,57.75,0
48.00,60.47,0
88.00,62.83,0
42.00,64.74,0
68.00,66.03,0
61.00,66.81,0
50.00,67.17,0
67.00,67.11,0
56.00,66.83,0
58.00,66.36,0
41.00,65.57,0
44.00,64.33,0
39.00,62.65,0
66.00,60.85,0
36.00,59.18,0
39.00,57.42,0
42.00,55.47,0
44.00,53.53,0
60.00,51.86,0
70.00,50.81,0
41.00,50.33,0
80.00,50.22,0
44.00,50.51,0
103.00,51.29,0
56.00,52.72,0
102.00,54.69,0
52.00,56.96,0
128.00,59.56,0
54.00,62.56,0
93.00,65.49,0
43.00,67.89,0
78.00,69.60,0
46.00,70.62,0
59.00,70.95,0
60.00,70.71,0
44.00,70.04,0
62.00,68.95,0
43.00,67.59,0
58.00,66.02,0
37.00,64.27,0
40.00,62.24,0
37.00,59.92,0
65.00,57.64,0
157.00,56.68,0
42.00,57.58,0
44.00,58.71,0
46.00,59.09,0
56.00,59.01,0
69.00,58.87,0
48.00,58.82,0
82.00,58.88,0
49.00,59.14,0
102.00,59.71,0
52.00,60.68,0
102.00,61.96,0
48.00,63.40,0
107.00,64.91,0
40.00,66.41,0
101.00,67.73,0
49.00,68.91,0
78.00,69.81,0
40.00,70.21,0
61.00,70.01,0
63.00,69.40,0
48.00,68.58,0
75.00,67.62,0
46.00,66.68,0
50.00,65.55,0
35.00,64.02,0
37.00,62.04,0
40.00,59.73,0
73.00,57.56,0
36.00,55.85,0
37.00,54.21,0
41.00,52.41,0
45.00,50.67,0
56.00,49.22,0
57.00,48.26,0
59.00,47.83,0
92.00,48.13,0
54.00,49.22,0
136.00,51.19,0
36.00,54.00,0
103.00,56.91,0
62.00,59.75,0
125.00,62.85,0
67.00,66.25,0
102.00,69.62,0
50.00,72.54,0
98.00,74.83,0
43.00,76.49,0
82.00,77.42,0
63.00,77.80,0
54.00,77.69,0
74.00,77.06,0
67.00,76.26,0
61.00,75.35,0
45.00,74.09,0
45.00,72.31,0
38.00,70.01,0
67.00,67.49,0
43.00,65.13,0
35.00,62.74,0
54.00,60.22,0
46.00,57.89,0
50.00,55.82,0
50.00,54.02,0
51.00,52.53,0
69.00,51.49,0
38.00,50.88,0
93.00,50.69,0
57.00,51.21,0
104.00,52.48,0
55.00,54.35,0
96.00,56.54,0
58.00,58.87,0
104.00,61.30,0
48.00,63.72,0
93.00,65.87,0
52.00,67.69,0
74.00,69.07,0
54.00,69.94,0
59.00,70.28,0
64.00,70.16,0
45.00,69.67,0
61.00,68.77,0
39.00,67.51,0
38.00,65.78,0
37.00,63.55,0
60.00,61.16,0
43.00,58.99,0
46.00,56.97,0
48.00,55.06,0
42.00,53.31,0
50.00,51.73,0
60.00,50.48,0
84.00,49.96,0
87.00,50.52,0
61.00,51.90,0
106.00,53.84,0
52.00,56.21,0
99.00,58.72,0
62.00,61.26,0
109.00,63.91,0
61.00,66.63,0
100.00,69.23,0
52.00,71.51,0
122.00,73.57,0
45.00,75.52,0
46.00,76.64,0
65.00,76.63,0
55.00,75.98,0
71.00,75.02,0
45.00,73.80,0
58.00,72.25,0
36.00,70.30,0
38.00,67.88,0
36.00,65.02,0
38.00,61.90,0
42.00,58.75,0
43.00,55.77,0
41.00,53.07,0
56.00,50.75,0
61.00,49.08,0
78.00,48.32,0
54.00,48.38,0
105.00,49.25,0
54.00,50.92,0
118.00,53.25,0
68.00,56.22,0
107.00,59.62,0
57.00,63.04,0
86.00,66.09,0
46.00,68.50,0
70.00,70.11,0
74.00,71.15,0
59.00,71.88,0
74.00,72.26,0
37.00,72.16,0
51.00,71.35,0
36.00,69.81,0
72.00,67.93,0
37.00,66.05,0
37.00,63.94,0
49.00,61.54,0
48.00,59.19,0
58.00,57.13,0
64.00,55.56,0
62.00,54.58,0
88.00,54.31,0
61.00,54.78,0
98.00,55.88,0
46.00,57.37,0
103.00,59.03,0
58.00,60.90,0
111.00,63.04,0
55.00,65.35,0
91.00,67.53,0
41.00,69.25,0
86.00,70.40,0
43.00,71.07,0
63.00,71.16,0
71.00,70.86,0
51.00,70.39,0
41.00,69.48,0
36.00,67.88,0
44.00,65.70,0
52.00,63.33,0
36.00,60.95,0
35.00,58.44,0
37.00,55.78,0
41.00,53.16,0
45.00,50.76,0
53.00,48.78,0
64.00,47.44,0
66.00,46.90,0
83.00,47.26,0
65.00,48.43,0
121.00,50.48,0
64.00,53.46,0
107.00,56.90,0
73.00,60.53,0
116.00,64.35,0
58.00,68.12,0
100.00,71.48,0
39.00,74.12,0
82.00,75.83,0
48.00,76.69,0
76.00,76.92,0
59.00,76.68,0
55.00,76.03,0
63.00,74.93,0
40.00,73.44,0
82.00,71.74,0
41.00,70.11,0
46.00,68.28,0
68.00,66.30,0
35.00,64.40,0
37.00,62.27,0
39.00,59.82,0
41.00,57.26,0
42.00,54.78,0
50.00,52.52,0
71.00,50.83,0
64.00,49.98,0
84.00,50.03,0
53.00,50.77,0
98.00,52.04,0
80.00,54.02,0
118.00,56.85,0
52.00,60.17,0
110.00,63.45,0
53.00,66.53,0
96.00,69.25,0
41.00,71.39,0
72.00,72.71,0
52.00,73.26,0
60.00,73.21,0
63.00,72.68,0
45.00,71.78,0
71.00,70.57,0
37.00,69.17,0
47.00,67.39,0
38.00,65.21,0
34.00,62.70,0
38.00,59.91,0
39.00,57.04,0
49.00,54.34,0
53.00,52.06,0
63.00,50.41,0
72.00,49.56,0
54.00,49.43,0
82.00,49.87,0
53.00,50.80,0
114.00,52.31,0
44.00,54.43,0
108.00,56.81,0
57.00,59.35,0
109.00,62.06,0
61.00,64.84,0
104.00,67.59,0
53.00,70.10,0
86.00,72.13,0
44.00,73.52,0
64.00,74.11,0
75.00,74.15,0
55.00,73.95,0
67.00,73.44,0
40.00,72.52,0
64.00,71.17,0
34.00,69.45,0
38.00,67.26,0
42.00,64.62,0
35.00,61.78,0
39.00,58.83,0
42.00,55.93,0
46.00,53.27,0
43.00,50.95,0
51.00,49.01,0
57.00,47.59,0
66.00,46.85,0
89.00,47.04,0
51.00,48.07,0
105.00,49.71,0
52.00,51.90,0
107.00,54.46,0
59.00,57.29,0
154.00,60.68,0
73.00,64.87,0
120.00,69.38,0
55.00,73.56,0
97.00,77.00,0
45.00,79.50,0
76.00,80.94,0
63.00,81.50,0
54.00,81.35,0
66.00,80.49,0
38.00,79.03,0
57.00,76.94,0
42.00,74.40,0
62.00,71.68,0
42.00,68.97,0
38.00,66.14,0
43.00,63.13,0
42.00,60.13,0
54.00,57.35,0
60.00,55.08,0
67.00,53.53,0
93.00,52.96,0
57.00,53.35,0
103.00,54.43,0
53.00,56.07,0
89.00,57.92,0
66.00,59.88,0
114.00,62.15,0
48.00,64.65,0
108.00,67.04,0
57.00,69.29,0
90.00,71.29,0
50.00,72.83,0
68.00,73.71,0
58.00,73.97,0
60.00,73.74,0
78.00,73.23,0
40.00,72.55,0
64.00,71.46,0
38.00,69.97,0
50.00,68.09,0
36.00,65.86,0
61.00,63.49,0
38.00,61.21,0
36.00,58.89,0
44.00,56.45,0
38.00,54.07,0
61.00,51.97,0
70.00,50.56,0
63.00,50.00,0
82.00,50.22,0
60.00,51.10,0
99.00,52.56,0
63.00,54.60,0
107.00,57.08,0
65.00,59.90,0
114.00,62.96,0
90.00,66.37,0
115.00,70.14,0
55.00,73.79,0
97.00,76.78,0
47.00,78.96,0
90.00,80.32,0
70.00,81.16,0
95.00,81.79,0
68.00,82.28,0
41.00,82.18,0
72.00,81.21,0
37.00,79.62,0
41.00,77.33,0
37.00,74.31,0
60.00,71.00,0
37.00,67.74,0
40.00,64.46,0
45.00,61.18,0
52.00,58.17,0
40.00,55.52,0
80.00,53.42,0
60.00,52.22,0
90.00,51.98,0
74.00,52.67,0
108.00,54.33,0
62.00,56.71,0
105.00,59.43,0
66.00,62.34,0
113.00,65.37,0
57.00,68.40,0
97.00,71.12,0
56.00,73.37,0
81.00,75.06,0
63.00,76.17,0
66.00,76.76,0
58.00,76.76,0
51.00,76.16,0
69.00,75.06,0
43.00,73.67,0
42.00,71.81,0
39.00,69.39,0
37.00,66.56,0
50.00,63.55,0
52.00,60.73,0
38.00,58.16,0
35.00,55.63,0
54.00,53.21,0
55.00,51.25,0
62.00,49.93,0
70.00,49.33,0
61.00,49.43,0
112.00,50.40,0
57.00,52.28,0
74.00,54.47,0
67.00,56.57,0
112.00,58.95,0
58.00,61.69,0
116.00,64.57,0
55.00,67.49,0
99.00,70.15,0
56.00,72.42,0
81.00,74.15,0
47.00,75.21,0
71.00,75.57,0
79.00,75.56,0
65.00,75.48,0
74.00,75.27,0
32.00,74.64,0
48.00,73.24,0
39.00,71.12,0
41.00,68.55,0
40.00,65.66,0
85.00,62.99,0
41.00,60.96,0
48.00,59.18,0
55.00,57.46,0
53.00,55.99,0
50.00,54.77,0
68.00,53.86,0
70.00,53.51,0
99.00,54.01,0
64.00,55.35,0
114.00,57.35,0
57.00,59.88,0
113.00,62.63,0
74.00,65.60,0
128.00,68.91,0
64.00,72.40,0
112.00,75.70,0
53.00,78.52,0
84.00,80.56,0
46.00,81.66,0
73.00,81.85,0
39.00,81.20,0
36.00,79.56,0
57.00,77.07,0
40.00,74.21,0
55.00,71.16,0
39.00,68.04,0
53.00,64.97,0
37.00,61.99,0
56.00,59.19,0
36.00,56.64,0
41.00,54.22,0
41.00,51.90,0
45.00,49.81,0
92.00,48.42,0
80.00,48.32,0
70.00,49.30,0
88.00,50.95,0
70.00,53.13,0
110.00,55.82,0
62.00,58.92,0
110.00,62.17,0
60.00,65.41,0
112.00,68.54,0
76.00,71.62,0
143.00,74.95,0
60.00,78.49,0
122.00,81.77,0
51.00,84.49,0
81.00,86.28,0
57.00,87.03,0
60.00,86.82,0
74.00,85.86,0
46.00,84.39,0
72.00,82.43,0
38.00,80.10,0
43.00,77.25,0
37.00,73.86,0
75.00,70.43,0
38.00,67.35,0
37.00,64.33,0
51.00,61.27,0
55.00,58.51,0
100.00,56.64,0
57.00,55.93,0
69.00,55.87,0
115.00,56.55,0
71.00,58.25,0
102.00,60.58,0
61.00,63.13,0
113.00,65.76,0
55.00,68.42,0
117.00,70.99,0
43.00,73.34,0
115.00,75.33,0
56.00,77.07,0
88.00,78.44,0
38.00,79.12,0
66.00,78.92,0
79.00,78.21,0
80.00,77.60,0
75.00,77.17,0
38.00,76.50,0
52.00,75.15,0
35.00,73.09,0
44.00,70.49,0
67.00,67.76,0
70.00,65.49,0
36.00,63.61,0
43.00,61.61,0
46.00,59.44,0
44.00,57.31,0
58.00,55.38,0
70.00,53.99,0
67.00,53.34,0
96.00,53.57,0
76.00,54.75,0
106.00,56.77,0
66.00,59.37,0
120.00,62.34,0
79.00,65.72,0
116.00,69.38,0
58.00,72.92,0
60.00,75.61,0
59.00,77.11,0
62.00,77.68,0
47.00,77.46,0
63.00,76.53,0
73.00,75.32,0
58.00,74.12,0
72.00,72.92,0
51.00,71.68,0
50.00,70.22,0
59.00,68.53,0
37.00,66.66,0
37.00,64.44,0
36.00,61.85,0
41.00,59.07,0
39.00,56.30,0
60.00,53.82,0
48.00,51.86,0
62.00,50.46,0
80.00,49.82,0
63.00,50.04,0
100.00,51.08,0
59.00,52.85,0
104.00,55.11,0
69.00,57.77,0
114.00,60.82,0
82.00,64.26,0
118.00,68.02,0
67.00,71.81,0
112.00,75.32,0
52.00,78.34,0
84.00,80.52,0
51.00,81.75,0
61.00,82.02,0
68.00,81.50,0
52.00,80.47,0
74.00,79.06,0
38.00,77.33,0
47.00,75.10,0
44.00,72.38,0
36.00,69.33,0
37.00,65.99,0
50.00,62.59,0
49.00,59.47,0
43.00,56.72,0
56.00,54.32,0
63.00,52.52,0
63.00,51.43,0
75.00,51.09,0
72.00,51.49,0
119.00,52.90,0
66.00,55.33,0
117.00,58.39,0
127.00,62.34,0
119.00,67.33,0
71.00,72.49,0
124.00,77.20,0
65.00,81.40,0
113.00,84.93,0
56.00,87.68,0
83.00,89.41,0
79.00,90.26,0
67.00,90.47,0
92.00,90.16,0
52.00,89.45,0
78.00,88.22,0
52.00,86.53,0
55.00,84.34,0
37.00,81.52,0
37.00,78.06,0
40.00,74.09,0
44.00,69.95,0
37.00,65.86,0
40.00,61.89,0
57.00,58.26,0
42.00,55.20,0
62.00,52.72,0
83.00,51.15,0
65.00,50.69,0
84.00,51.13,0
71.00,52.28,0
118.00,54.26,0
61.00,57.01,0
115.00,60.14,0
69.00,63.51,0
106.00,66.94,0
50.00,70.07,0
117.00,72.80,0
58.00,75.30,0
64.00,77.16,0
48.00,77.96,0
85.00,78.01,0
68.00,77.84,0
72.00,77.55,0
74.00,77.14,0
40.00,76.42,0
91.00,75.38,0
46.00,74.31,0
42.00,72.91,0
39.00,70.82,0
68.00,68.45,0
39.00,66.15,0
38.00,63.74,0
55.00,61.21,0
54.00,58.93,0
45.00,56.96,0
80.00,55.44,0
44.00,54.51,0
102.00,54.23,0
44.00,54.64,0
108.00,55.61,0
61.00,57.17,0
63.00,58.88,0
77.00,60.41,0
129.00,62.45,0
81.00,65.36,0
116.00,68.77,0
62.00,72.18,0
101.00,75.21,0
52.00,77.64,0
62.00,79.12,0
64.00,79.62,0
61.00,79.45,0
77.00,78.86,0
48.00,77.99,0
70.00,76.75,0
36.00,75.13,0
51.00,73.00,0
40.00,70.45,0
68.00,67.83,0
40.00,65.37,0
35.00,62.87,0
45.00,60.15,0
43.00,57.49,0
59.00,55.14,0
54.00,53.31,0
67.00,52.08,0
92.00,51.74,0
57.00,52.31,0
103.00,53.56,0
73.00,55.53,0
114.00,58.19,0
51.00,61.20,0
118.00,64.22,0
73.00,67.37,0
139.00,70.87,0
64.00,74.60,0
112.00,78.11,0
53.00,81.01,0
93.00,83.11,0
59.00,84.41,0
76.00,84.98,0
131.00,85.44,0
54.00,86.19,0
70.00,86.47,0
42.00,85.78,0
54.00,84.14,0
42.00,81.71,0
68.00,78.85,0
57.00,76.02,0
35.00,73.15,0
38.00,69.91,0
41.00,66.40,0
54.00,62.98,0
51.00,59.95,0
58.00,57.44,0
80.00,55.67,0
74.00,54.90,0
106.00,55.27,0
64.00,56.61,0
84.00,58.39,0
58.00,60.22,0
123.00,62.28,0
78.00,64.96,0
124.00,68.17,0
59.00,71.55,0
110.00,74.65,0
54.00,77.29,0
96.00,79.34,0
65.00,80.84,0
66.00,81.72,0
70.00,81.90,0
50.00,81.43,0
54.00,80.23,0
44.00,78.35,0
47.00,75.86,0
40.00,72.93,0
64.00,69.88,0
37.00,66.94,0
41.00,63.97,0
49.00,60.99,0
68.00,58.42,0
55.00,56.51,0
64.00,55.20,0
56.00,54.35,0
88.00,54.08,0
66.00,54.56,0
100.00,55.75,0
107.00,57.89,0
120.00,61.19,0
65.00,65.07,0
125.00,68.97,0
65.00,72.79,0
113.00,76.33,0
59.00,79.39,0
102.00,81.84,0
51.00,83.59,0
91.00,84.59,0
70.00,85.05,0
64.00,85.02,0
74.00,84.43,0
42.00,83.29,0
62.00,81.48,0
38.00,79.09,0
43.00,76.16,0
40.00,72.76,0
69.00,69.36,0
38.00,66.27,0
37.00,63.23,0
47.00,60.14,0
45.00,57.27,0
62.00,54.83,0
65.00,53.11,0
66.00,52.18,0
89.00,52.12,0
61.00,52.88,0
98.00,54.26,0
50.00,56.05,0
124.00,58.24,0
56.00,60.89,0
93.00,63.62,0
43.00,65.94,0
102.00,67.85,0
49.00,69.50,0
84.00,70.81,0
44.00,71.62,0
67.00,71.84,0
68.00,71.66,0
48.00,71.23,0
58.00,70.38,0
37.00,69.07,0
41.00,67.22,0
37.00,64.88,0
36.00,62.21,0
38.00,59.35,0
51.00,56.56,0
55.00,54.18,0
38.00,52.22,0
48.00,50.49,0
51.00,49.03,0
49.00,47.95,0
73.00,47.38,0
48.00,47.39,0
89.00,47.97,0
44.00,49.05,0
92.00,50.48,0
39.00,52.10,0
97.00,53.81,0
47.00,55.65,0
74.00,57.39,0
40.00,58.77,0
89.00,59.87,0
91.00,61.29,0
61.00,63.08,0
40.00,64.44,0
62.00,65.03,0
71.00,65.26,0
38.00,65.28,0
46.00,64.73,0
36.00,63.55,0
42.00,61.87,0
40.00,59.88,0
39.00,57.71,0
50.00,55.54,0
55.00,53.66,0
42.00,52.13,0
37.00,50.70,0
41.00,49.23,0
71.00,48.06,0
42.00,47.44,0
62.00,47.20,0
43.00,47.18,0
65.00,47.36,0
55.00,47.82,0
81.00,48.71,0
36.00,49.86,0
79.00,51.00,0
39.00,52.11,0
86.00,53.24,0
38.00,54.39,0
106.00,55.69,0
35.00,57.19,0
67.00,58.45,0
37.00,59.18,0
69.00,59.51,0
46.00,59.62,0
39.00,59.39,0
49.00,58.67,0
37.00,57.62,0
42.00,56.28,0
36.00,54.69,0
39.00,52.94,0
34.00,51.09,0
45.00,49.25,0
36.00,47.54,0
38.00,45.96,0
41.00,44.50,0
86.00,43.62,0
47.00,43.65,0
59.00,44.22,0
46.00,44.93,0
57.00,45.71,0
35.00,46.40,0
89.00,47.18,0
35.00,48.25,0
74.00,49.40,0
38.00,50.47,0
75.00,51.47,0
76.00,52.71,0
69.00,54.36,0
36.00,55.88,0
55.00,56.81,0
37.00,57.15,0
52.00,57.02,0
70.00,56.78,0
41.00,56.65,0
46.00,56.31,0
55.00,55.75,0
52.00,55.20,0
50.00,54.68,0
45.00,54.11,0
37.00,53.35,0
72.00,52.58,0
44.00,52.13,0
38.00,51.69,0
65.00,51.18,0
40.00,50.82,0
40.00,50.40,0
50.00,49.81,0
41.00,49.22,0
58.00,48.71,0
37.00,48.31,0
53.00,47.95,0
34.00,47.54,0
73.00,47.27,0
35.00,47.28,0
70.00,47.48,0
36.00,47.81,0
111.00,48.57,0
39.00,50.00,0
56.00,51.46,0
37.00,52.41,0
47.00,52.87,0
40.00,52.89,0
43.00,52.56,0
48.00,52.01,0
41.00,51.35,0
58.00,50.71,0
39.00,50.17,0
61.00,49.72,0
36.00,49.37,0
63.00,49.09,0
36.00,48.89,0
35.00,48.53,0
38.00,47.83,0
44.00,47.00,0
37.00,46.17,0
48.00,45.38,0
38.00,44.69,0
60.00,44.21,0
53.00,44.13,0
63.00,44.51,0
33.00,45.08,0
72.00,45.68,0
34.00,46.37,0
67.00,47.08,0
37.00,47.75,0
58.00,48.32,0
34.00,48.71,0
51.00,48.86,0
38.00,48.79,0
102.00,49.02,0
47.00,49.96,0
36.00,50.94,0
45.00,51.36,0
37.00,51.32,0
38.00,50.89,0
35.00,50.10,0
39.00,49.07,0
47.00,47.98,0
52.00,47.09,0
71.00,46.70,0
35.00,46.76,0
45.00,46.79,0
39.00,46.63,0
45.00,46.35,0
53.00,46.10,0
35.00,45.93,0
60.00,45.80,0
43.00,45.82,0
80.00,46.18,0
39.00,46.93,0
66.00,47.80,0
37.00,48.59,0
106.00,49.63,0
36.00,51.13,0
63.00,52.56,0
36.00,53.56,0
55.00,54.11,0
35.00,54.24,0
42.00,53.92,0
69.00,53.45,0
40.00,53.14,0
58.00,52.86,0
38.00,52.51,0
37.00,51.91,0
41.00,51.00,0
40.00,49.93,0
37.00,48.77,0
38.00,47.54,0
36.00,46.25,0
38.00,44.97,0
46.00,43.81,0
46.00,42.94,0
43.00,42.36,0
56.00,42.07,0
39.00,42.06,0
70.00,42.35,0
35.00,42.94,0
57.00,43.60,0
35.00,44.17,0
78.00,44.85,0
33.00,45.73,0
75.00,46.70,0
36.00,47.70,0
58.00,48.58,0
43.00,49.26,0
38.00,49.64,0
48.00,49.68,0
41.00,49.51,0
52.00,49.24,0
35.00,48.90,0
39.00,48.35,0
49.00,47.68,0
37.00,47.03,0
68.00,46.55,0
36.00,46.39,0
34.00,46.16,0
38.00,45.64,0
40.00,44.98,0
43.00,44.32,0
37.00,43.70,0
105.00,43.62,0
44.00,44.51,0
57.00,45.78,0
36.00,46.84,0
66.00,47.70,0
42.00,48.52,0
71.00,49.36,0
38.00,50.21,0
81.00,51.08,0
35.00,51.99,0
65.00,52.75,0
33.00,53.23,0
95.00,53.69,0
35.00,54.41,0
41.00,54.85,0
54.00,54.78,0
41.00,54.49,0
57.00,54.06,0
39.00,53.55,0
44.00,52.88,0
37.00,51.97,0
39.00,50.86,0
61.00,49.79,0
36.00,48.96,0
36.00,48.11,0
40.00,47.10,0
39.00,46.05,0
42.00,45.05,0
39.00,44.15,0
48.00,43.39,0
42.00,42.84,0
44.00,42.46,0
37.00,42.15,0
72.00,42.09,0
36.00,42.44,0
78.00,43.14,0
35.00,44.13,0
81.00,45.31,0
35.00,46.63,0
74.00,47.95,0
33.00,49.16,0
59.00,50.09,0
37.00,50.70,0
48.00,50.98,0
54.00,51.06,0
36.00,51.01,0
58.00,50.81,0
52.00,50.67,0
52.00,50.65,0
38.00,50.57,0
68.00,50.46,0
58.00,50.62,0
38.00,50.90,0
41.00,50.88,0
40.00,50.51,0
37.00,49.86,0
36.00,48.96,0
38.00,47.88,0
40.00,46.73,0
45.00,45.66,0
54.00,44.86,0
38.00,44.34,0
66.00,44.11,0
36.00,44.17,0
88.00,44.62,0
36.00,45.54,0
76.00,46.68,0
36.00,47.85,0
73.00,48.99,0
36.00,50.03,0
70.00,50.95,0
40.00,51.75,0
106.00,52.76,0
35.00,54.16,0
45.00,55.26,0
39.00,55.63,0
37.00,55.39,0
60.00,54.80,0
71.00,54.43,0
46.00,54.39,0
35.00,54.20,0
39.00,53.55,0
36.00,52.51,0
79.00,51.56,0
38.00,51.04,0
36.00,50.54,0
37.00,49.71,0
38.00,48.66,0
55.00,47.64,0
52.00,46.94,0
37.00,46.48,0
66.00,46.18,0
34.00,46.10,0
91.00,46.38,0
36.00,47.14,0
75.00,48.12,0
36.00,49.12,0
38.00,49.78,0
38.00,49.87,0
72.00,49.84,0
37.00,49.97,0
60.00,50.12,0
41.00,50.22,0
53.00,50.24,0
43.00,50.17,0
37.00,49.91,0
52.00,49.45,0
39.00,48.96,0
55.00,48.50,0
35.00,48.06,0
45.00,47.55,0
37.00,46.93,0
70.00,46.46,0
41.00,46.38,0
39.00,46.36,0
40.00,46.13,0
39.00,45.74,0
42.00,45.25,0
50.00,44.81,0
41.00,44.51,0
58.00,44.38,0
42.00,44.46,0
67.00,44.78,0
106.00,45.87,0
73.00,48.09,0
35.00,50.57,0
78.00,52.60,0
39.00,54.30,0
72.00,55.69,0
35.00,56.70,0
68.00,57.33,0
37.00,57.64,0
55.00,57.60,0
43.00,57.23,0
40.00,56.55,0
51.00,55.60,0
37.00,54.51,0
39.00,53.23,0
37.00,51.76,0
39.00,50.18,0
36.00,48.57,0
42.00,47.00,0
41.00,45.58,0
40.00,44.35,0
44.00,43.32,0
46.00,42.54,0
37.00,41.97,0
52.00,41.58,0
37.00,41.38,0
75.00,41.52,0
35.00,42.10,0
82.00,43.03,0
38.00,44.28,0
77.00,45.71,0
36.00,47.18,0
60.00,48.46,0
35.00,49.41,0
61.00,50.07,0
56.00,50.68,0
41.00,51.24,0
60.00,51.61,0
40.00,51.84,0
37.00,51.76,0
36.00,51.23,0
66.00,50.58,0
45.00,50.17,0
42.00,49.84,0
35.00,49.29,0
37.00,48.48,0
51.00,47.59,0
41.00,46.82,0
42.00,46.13,0
63.00,45.64,0
38.00,45.46,0
86.00,45.68,0
36.00,46.38,0
79.00,47.33,0
35.00,48.37,0
87.00,49.52,0
85.00,51.20,0
89.00,53.63,0
37.00,56.20,0
96.00,58.43,0
36.00,60.39,0
66.00,61.81,0
43.00,62.58,0
37.00,62.66,0
60.00,62.10,0
40.00,61.26,0
47.00,60.13,0
37.00,58.70,0
47.00,57.06,0
40.00,55.34,0
70.00,53.83,0
33.00,52.66,0
37.00,51.46,0
42.00,50.08,0
42.00,48.72,0
49.00,47.52,0
58.00,46.68,0
46.00,46.23,0
68.00,46.17,0
37.00,46.42,0
80.00,46.90,0
40.00,47.69,0
49.00,48.43,0
39.00,48.86,0
66.00,49.17,0
36.00,49.49,0
57.00,49.71,0
39.00,49.79,0
55.00,49.77,0
46.00,49.73,0
39.00,49.59,0
48.00,49.26,0
39.00,48.83,0
56.00,48.38,0
54.00,48.14,0
51.00,48.14,0
42.00,48.19,0
36.00,48.04,0
36.00,47.58,0
39.00,46.87,0
41.00,46.06,0
39.00,45.24,0
42.00,44.46,0
45.00,43.78,0
38.00,43.22,0
43.00,42.73,0
38.00,42.27,0
88.00,42.25,0
43.00,42.96,0
80.00,44.18,0
38.00,45.64,0
86.00,47.24,0
35.00,48.92,0
82.00,50.55,0
35.00,52.05,0
65.00,53.26,0
37.00,54.09,0
86.00,54.79,0
58.00,55.72,0
44.00,56.61,0
59.00,57.12,0
38.00,57.26,0
44.00,56.96,0
35.00,56.17,0
36.00,54.95,0
63.00,53.61,0
36.00,52.46,0
36.00,51.26,0
40.00,49.88,0
42.00,48.48,0
43.00,47.20,0
46.00,46.11,0
57.00,45.33,0
40.00,44.90,0
66.00,44.76,0
48.00,45.00,0
83.00,45.72,0
38.00,46.84,0
84.00,48.15,0
40.00,49.59,0
76.00,51.03,0
36.00,52.32,0
48.00,53.20,0
46.00,53.57,0
50.00,53.66,0
34.00,53.44,0
47.00,52.87,0
44.00,52.11,0
38.00,51.24,0
56.00,50.34,0
36.00,49.53,0
47.00,48.73,0
36.00,47.87,0
56.00,47.09,0
61.00,46.66,0
37.00,46.57,0
38.00,46.39,0
37.00,45.97,0
37.00,45.35,0
43.00,44.66,0
44.00,44.04,0
54.00,43.64,0
43.00,43.50,0
58.00,43.60,0
41.00,43.89,0
84.00,44.51,0
37.00,45.55,0
78.00,46.78,0
76.00,48.40,0
77.00,50.56,0
38.00,52.74,0
79.00,54.58,0
42.00,56.14,0
62.00,57.32,0
36.00,58.00,0
45.00,58.08,0
50.00,57.67,0
42.00,56.99,0
48.00,56.10,0
38.00,55.02,0
53.00,53.85,0
38.00,52.68,0
37.00,51.42,0
64.00,50.22,0
36.00,49.31,0
38.00,48.43,0
40.00,47.41,0
38.00,46.36,0
39.00,45.31,0
41.00,44.31,0
73.00,43.69,0
43.00,43.67,0
64.00,44.06,0
50.00,44.72,0
75.00,45.71,0
37.00,46.91,0
82.00,48.19,0
50.00,49.64,0
85.00,51.30,0
44.00,53.05,0
89.00,54.80,0
41.00,56.48,0
73.00,57.91,0
36.00,58.93,0
102.00,59.79,0
44.00,60.82,0
47.00,61.55,0
50.00,61.63,0
41.00,61.20,0
49.00,60.34,0
39.00,59.17,0
44.00,57.74,0
38.00,56.10,0
40.00,54.33,0
38.00,52.48,0
39.00,50.62,0
38.00,48.80,0
36.00,47.06,0
44.00,45.45,0
49.00,44.15,0
51.00,43.31,0
60.00,42.98,0
45.00,43.09,0
67.00,43.55,0
40.00,44.26,0
86.00,45.27,0
41.00,46.62,0
80.00,48.16,0
41.00,49.74,0
87.00,51.34,0
40.00,52.98,0
81.00,54.52,0
36.00,55.85,0
66.00,56.83,0
35.00,57.37,0
44.00,57.37,0
55.00,56.93,0
82.00,56.67,0
60.00,56.91,0
36.00,57.17,0
36.00,56.87,0
37.00,55.95,0
41.00,54.66,0
38.00,53.17,0
46.00,51.62,0
35.00,50.10,0
37.00,48.56,0
46.00,47.06,0
46.00,45.81,0
46.00,44.86,0
40.00,44.14,0
45.00,43.54,0
77.00,43.35,0
40.00,43.76,0
99.00,44.73,0
39.00,46.28,0
85.00,48.10,0
42.00,49.96,0
89.00,51.86,0
42.00,53.76,0
95.00,55.63,0
43.00,57.49,0
72.00,59.09,0
35.00,60.19,0
50.00,60.62,0
55.00,60.51,0
44.00,60.11,0
61.00,59.51,0
39.00,58.78,0
42.00,57.77,0
42.00,56.46,0
39.00,54.96,0
38.00,53.30,0
39.00,51.55,0
46.00,49.85,0
41.00,48.33,0
51.00,47.06,0
57.00,46.19,0
59.00,45.86,0
80.00,46.20,0
42.00,47.10,0
83.00,48.26,0
43.00,49.63,0
95.00,51.22,0
41.00,53.00,0
98.00,54.87,0
35.00,56.72,0
76.00,58.28,0
38.00,59.39,0
60.00,60.02,0
38.00,60.14,0
57.00,59.84,0
57.00,59.35,0
43.00,58.80,0
44.00,57.97,0
38.00,56.83,0
48.00,55.46,0
38.00,54.02,0
35.00,52.45,0
101.00,51.24,0
38.00,50.90,0
38.00,50.74,0
38.00,50.20,0
41.00,49.41,0
40.00,48.49,0
50.00,47.61,0
71.00,47.11,0
53.00,47.19,0
74.00,47.77,0
41.00,48.63,0
87.00,49.69,0
35.00,50.91,0
58.00,51.93,0
49.00,52.64,0
92.00,53.49,0
41.00,54.64,0
86.00,55.85,0
39.00,57.00,0
74.00,57.97,0
38.00,58.64,0
58.00,58.93,0
52.00,58.91,0
46.00,58.66,0
61.00,58.23,0
42.00,57.71,0
63.00,57.12,0
38.00,56.49,0
38.00,55.61,0
58.00,54.52,0
39.00,53.49,0
38.00,52.37,0
57.00,51.21,0
44.00,50.26,0
47.00,49.46,0
52.00,48.79,0
59.00,48.40,0
61.00,48.42,0
70.00,48.90,0
47.00,49.70,0
81.00,50.69,0
42.00,51.84,0
95.00,53.15,0
40.00,54.63,0
64.00,55.93,0
44.00,56.82,0
87.00,57.59,0
39.00,58.40,0
67.00,59.00,0
39.00,59.25,0
59.00,59.18,0
48.00,58.85,0
41.00,58.28,0
65.00,57.53,0
37.00,56.78,0
52.00,55.91,0
38.00,54.88,0
35.00,53.63,0
71.00,52.39,0
36.00,51.47,0
35.00,50.54,0
39.00,49.35,0
41.00,48.09,0
47.00,46.93,0
46.00,46.00,0
56.00,45.38,0
48.00,45.11,0
52.00,45.10,0
50.00,45.27,0
87.00,45.88,0
38.00,47.00,0
88.00,48.37,0
49.00,49.99,0
77.00,51.75,0
42.00,53.39,0
73.00,54.82,0
37.00,55.94,0
63.00,56.68,0
52.00,57.15,0
42.00,57.35,0
52.00,57.15,0
36.00,56.62,0
63.00,55.89,0
38.00,55.14,0
41.00,54.23,0
45.00,53.11,0
38.00,51.90,0
60.00,50.76,0
37.00,49.83,0
40.00,48.91,0
36.00,47.86,0
41.00,46.75,0
45.00,45.70,0
59.00,44.96,0
69.00,44.85,0
40.00,45.23,0
81.00,45.93,0
57.00,47.08,0
88.00,48.74,0
35.00,50.60,0
98.00,52.46,0
48.00,54.45,0
101.00,56.59,0
42.00,58.76,0
74.00,60.61,0
39.00,61.90,0
57.00,62.55,0
46.00,62.62,0
45.00,62.20,0
45.00,61.32,0
52.00,60.17,0
59.00,59.03,0
36.00,57.91,0
43.00,56.59,0
42.00,55.07,0
41.00,53.48,0
48.00,51.93,0
41.00,50.50,0
68.00,49.39,0
41.00,48.71,0
41.00,48.16,0
61.00,47.68,0
39.00,47.40,0
59.00,47.26,0
40.00,47.22,0
80.00,47.44,0
48.00,48.09,0
94.00,49.22,0
44.00,50.77,0
91.00,52.52,0
80.00,54.64,0
90.00,57.26,0
43.00,59.86,0
83.00,61.99,0
39.00,63.61,0
53.00,64.51,0
55.00,64.71,0
42.00,64.41,0
63.00,63.74,0
38.00,62.81,0
69.00,61.75,0
53.00,60.80,0
46.00,59.89,0
37.00,58.73,0
35.00,57.18,0
57.00,55.47,0
40.00,53.90,0
43.00,52.41,0
41.00,50.92,0
39.00,49.47,0
40.00,48.04,0
43.00,46.71,0
95.00,45.98,0
73.00,46.42,0
97.00,48.03,0
36.00,50.17,0
88.00,52.26,0
38.00,54.18,0
99.00,56.03,0
40.00,57.86,0
92.00,59.58,0
45.00,61.13,0
80.00,62.46,0
80.00,63.76,0
58.00,65.11,0
65.00,66.13,0
57.00,66.75,0
50.00,66.90,0
42.00,66.45,0
64.00,65.56,0
44.00,64.48,0
50.00,63.19,0
39.00,61.62,0
43.00,59.81,0
61.00,57.99,0
37.00,56.36,0
42.00,54.72,0
48.00,53.06,0
40.00,51.52,0
44.00,50.07,0
50.00,48.78,0
60.00,47.87,0
56.00,47.48,0
81.00,47.71,0
67.00,48.66,0
93.00,50.34,0
47.00,52.43,0
88.00,54.56,0
61.00,56.73,0
99.00,59.05,0
45.00,61.38,0
83.00,63.37,0
38.00,64.84,0
66.00,65.67,0
63.00,66.06,0
64.00,66.29,0
69.00,66.42,0
43.00,66.35,0
56.00,65.85,0
37.00,64.87,0
57.00,63.54,0
40.00,62.00,0
40.00,60.24,0
40.00,58.23,0
38.00,56.09,0
37.00,53.86,0
40.00,51.65,0
43.00,49.59,0
54.00,47.87,0
47.00,46.62,0
72.00,45.95,0
41.00,45.83,0
71.00,46.09,0
44.00,46.63,0
90.00,47.57,0
49.00,48.96,0
94.00,50.73,0
49.00,52.75,0
90.00,54.88,0
40.00,56.90,0
57.00,58.44,0
44.00,59.31,0
72.00,59.81,0
52.00,60.19,0
49.00,60.35,0
73.00,60.32,0
43.00,60.27,0
65.00,60.10,0
38.00,59.72,0
50.00,59.04,0
38.00,58.02,0
38.00,56.70,0
60.00,55.25,0
36.00,53.92,0
37.00,52.53,0
44.00,51.00,0
41.00,49.53,0
47.00,48.20,0
41.00,47.05,0
108.00,46.59,0
45.00,47.19,0
81.00,48.41,0
40.00,49.77,0
87.00,51.21,0
53.00,52.82,0
89.00,54.62,0
46.00,56.48,0
103.00,58.38,0
42.00,60.32,0
114.00,62.29,0
50.00,64.38,0
59.00,66.09,0
60.00,67.09,0
66.00,67.65,0
72.00,68.02,0
37.00,68.10,0
45.00,67.48,0
42.00,66.18,0
66.00,64.61,0
41.00,63.06,0
40.00,61.35,0
38.00,59.33,0
40.00,57.12,0
39.00,54.85,0
40.00,52.62,0
53.00,50.61,0
64.00,49.14,0
47.00,48.29,0
87.00,48.07,0
36.00,48.45,0
89.00,49.18,0
35.00,50.18,0
94.00,51.37,0
42.00,52.76,0
85.00,54.26,0
46.00,55.73,0
78.00,57.12,0
45.00,58.32,0
66.00,59.25,0
44.00,59.82,0
99.00,60.36,0
71.00,61.37,0
39.00,62.42,0
64.00,62.91,0
37.00,62.90,0
43.00,62.31,0
96.00,61.61,0
60.00,61.47,0
46.00,61.50,0
39.00,61.06,0
38.00,60.05,0
40.00,58.59,0
40.00,56.85,0
45.00,55.00,0
37.00,53.17,0
60.00,51.49,0
52.00,50.24,0
82.00,49.66,0
37.00,49.67,0
59.00,49.81,0
44.00,49.91,0
87.00,50.28,0
47.00,51.08,0
93.00,52.27,0
47.00,53.76,0
90.00,55.40,0
38.00,57.01,0
69.00,58.29,0
56.00,59.25,0
56.00,59.98,0
49.00,60.35,0
69.00,60.48,0
72.00,60.71,0
37.00,60.95,0
53.00,60.77,0
38.00,60.11,0
61.00,59.20,0
42.00,58.22,0
37.00,57.05,0
96.00,56.03,0
42.00,55.64,0
56.00,55.46,0
76.00,55.38,0
70.00,55.80,0
101.00,56.88,0
96.00,58.88,0
112.00,61.78,0
87.00,65.32,0
128.00,69.26,0
95.00,73.60,0
134.00,78.19,0
95.00,82.88,0
142.00,87.56,0
97.00,92.16,0
129.00,96.46,0
74.00,100.07,0
111.00,102.72,0
78.00,104.42,0
69.00,105.05,0
70.00,104.41,0
68.00,102.78,0
77.00,100.48,0
43.00,97.58,0
48.00,93.90,0
36.00,89.45,0
58.00,84.58,0
37.00,79.65,0
42.00,74.70,0
86.00,70.19,0
60.00,66.70,0
69.00,64.12,0
93.00,62.44,0
89.00,61.94,0
106.00,62.64,0
87.00,64.31,0
121.00,66.77,0
92.00,69.92,0
140.00,73.68,0
88.00,77.89,0
133.00,82.22,0
83.00,86.40,0
102.00,90.04,0
87.00,92.92,0
126.00,95.36,0
75.00,97.49,0
100.00,98.98,0
59.00,99.60,0
72.00,99.18,0
74.00,97.86,0
72.00,96.04,0
90.00,94.02,0
39.00,91.78,0
45.00,88.80,0
36.00,84.96,0
62.00,80.71,0
40.00,76.47,0
46.00,72.27,0
54.00,68.23,0
61.00,64.67,0
78.00,61.93,0
76.00,60.23,0
81.00,59.51,0
104.00,59.83,0
92.00,61.24,0
119.00,63.66,0
88.00,66.84,0
129.00,70.55,0
87.00,74.61,0
128.00,78.81,0
91.00,82.97,0
134.00,87.06,0
75.00,90.87,0
123.00,94.13,0
65.00,96.68,0
103.00,98.37,0
66.00,99.17,0
76.00,99.07,0
74.00,98.12,0
59.00,96.48,0
62.00,94.13,0
41.00,91.08,0
47.00,87.33,0
36.00,83.00,0
66.00,78.49,0
44.00,74.21,0
42.00,70.13,0
55.00,66.22,0
62.00,62.84,0
70.00,60.24,0
90.00,58.69,0
87.00,58.36,0
110.00,59.30,0
98.00,61.39,0
77.00,64.10,0
92.00,66.89,0
132.00,70.05,0
92.00,73.82,0
133.00,77.96,0
88.00,82.23,0
123.00,86.32,0
72.00,89.93,0
113.00,92.85,0
63.00,94.98,0
93.00,96.20,0
71.00,96.61,0
69.00,96.23,0
77.00,95.12,0
53.00,93.42,0
61.00,91.05,0
36.00,87.97,0
43.00,84.18,0
36.00,79.83,0
58.00,75.30,0
37.00,70.93,0
49.00,66.77,0
81.00,63.18,0
56.00,60.58,0
74.00,58.81,0
111.00,58.13,0
83.00,58.82,0
111.00,60.61,0
94.00,63.27,0
131.00,66.76,0
89.00,70.88,0
122.00,75.23,0
85.00,79.51,0
147.00,83.76,0
90.00,88.10,0
105.00,92.05,0
80.00,95.16,0
106.00,97.43,0
63.00,98.88,0
80.00,99.27,0
83.00,98.82,0
66.00,97.79,0
72.00,96.15,0
55.00,93.90,0
59.00,91.09,0
45.00,87.75,0
38.00,83.83,0
45.00,79.46,0
65.00,75.12,0
40.00,71.11,0
63.00,67.43,0
63.00,64.29,0
79.00,62.00,0
86.00,60.77,0
103.00,60.75,0
82.00,61.82,0
118.00,63.76,0
83.00,66.44,0
144.00,69.81,0
100.00,73.95,0
129.00,78.58,0
85.00,83.16,0
138.00,87.49,0
85.00,91.59,0
127.00,95.27,0
86.00,98.43,0
106.00,100.92,0
56.00,102.41,0
78.00,102.61,0
56.00,101.58,0
68.00,99.57,0
75.00,96.97,0
42.00,93.92,0
40.00,90.15,0
40.00,85.62,0
41.00,80.68,0
55.00,75.72,0
52.00,71.13,0
43.00,66.96,0
62.00,63.23,0
53.00,60.13,0
66.00,57.71,0
89.00,56.23,0
91.00,56.01,0
72.00,56.82,0
125.00,58.55,0
88.00,61.31,0
135.00,64.98,0
89.00,69.33,0
128.00,73.98,0
93.00,78.70,0
136.00,83.39,0
87.00,87.94,0
127.00,92.10,0
77.00,95.67,0
105.00,98.41,0
68.00,100.18,0
90.00,100.96,0
76.00,100.89,0
104.00,100.35,0
70.00,99.55,0
45.00,98.04,0
49.00,95.34,0
38.00,91.63,0
41.00,87.13,0
36.00,82.11,0
43.00,76.87,0
52.00,71.77,0
49.00,67.15,0
75.00,63.27,0
76.00,60.50,0
71.00,58.86,0
101.00,58.30,0
88.00,58.92,0
117.00,60.69,0
86.00,63.40,0
126.00,66.81,0
100.00,70.80,0
130.00,75.25,0
94.00,79.91,0
139.00,84.59,0
83.00,89.11,0
115.00,93.07,0
65.00,96.13,0
104.00,98.16,0
86.00,99.43,0
72.00,99.98,0
75.00,99.61,0
48.00,98.27,0
58.00,95.90,0
36.00,92.59,0
46.00,88.48,0
36.00,83.79,0
36.00,78.72,0
34.00,73.45,0
67.00,68.43,0
44.00,64.10,0
59.00,60.46,0
52.00,57.47,0
74.00,55.24,0
80.00,54.05,0
102.00,54.13,0
89.00,55.48,0
154.00,58.26,0
94.00,62.49,0
126.00,67.50,0
91.00,72.68,0
128.00,77.83,0
100.00,82.86,0
134.00,87.77,0
127.00,92.69,0
127.00,97.63,0
90.00,102.05,0
107.00,105.46,0
70.00,107.65,0
78.00,108.46,0
82.00,108.03,0
63.00,106.66,0
79.00,104.46,0
46.00,101.54,0
38.00,97.69,0
36.00,92.82,0
75.00,87.57,0
40.00,82.56,0
48.00,77.69,0
42.00,72.90,0
66.00,68.48,0
56.00,64.77,0
74.00,61.88,0
84.00,60.02,0
104.00,59.49,0
106.00,60.41,0
116.00,62.69,0
89.00,65.89,0
129.00,69.66,0
84.00,73.78,0
134.00,78.04,0
92.00,82.37,0
131.00,86.66,0
46.00,90.36,0
112.00,92.95,0
71.00,94.67,0
94.00,95.72,0
44.00,95.84,0
56.00,94.74,0
78.00,92.70,0
42.00,90.18,0
57.00,87.08,0
41.00,83.48,0
42.00,79.48,0
59.00,75.33,0
41.00,71.34,0
34.00,67.40,0
41.00,63.42,0
64.00,59.79,0
69.00,57.02,0
70.00,55.27,0
98.00,54.67,0
87.00,55.34,0
110.00,57.17,0
64.00,59.77,0
93.00,62.50,0
91.00,65.33,0
132.00,68.70,0
92.00,72.69,0
127.00,76.97,0
79.00,81.20,0
127.00,85.14,0
75.00,88.69,0
85.00,91.44,0
126.00,93.58,0
54.00,95.34,0
81.00,96.13,0
50.00,95.73,0
91.00,94.51,0
41.00,92.71,0
41.00,90.03,0
37.00,86.33,0
46.00,82.01,0
42.00,77.43,0
43.00,72.82,0
52.00,68.40,0
62.00,64.50,0
81.00,61.54,0
112.00,60.03,0
101.00,60.26,0
127.00,62.11,0
99.00,65.22,0
146.00,69.31,0
82.00,74.06,0
135.00,78.90,0
86.00,83.59,0
134.00,88.03,0
90.00,92.17,0
132.00,95.95,0
72.00,99.17,0
108.00,101.52,0
80.00,102.99,0
86.00,103.63,0
73.00,103.38,0
68.00,102.25,0
65.00,100.29,0
58.00,97.61,0
68.00,94.40,0
39.00,90.76,0
44.00,86.57,0
37.00,81.88,0
58.00,77.06,0
51.00,72.52,0
36.00,68.30,0
55.00,64.31,0
41.00,60.69,0
83.00,57.75,0
90.00,56.06,0
78.00,55.74,0
113.00,56.61,0
127.00,58.96,0
126.00,62.85,0
99.00,67.68,0
135.00,72.90,0
97.00,78.31,0
136.00,83.67,0
110.00,88.95,0
133.00,94.05,0
85.00,98.63,0
131.00,102.44,0
66.00,105.36,0
102.00,107.11,0
84.00,107.82,0
78.00,107.65,0
75.00,106.55,0
43.00,104.40,0
106.00,101.52,0
36.00,98.37,0
44.00,94.54,0
37.00,89.83,0
38.00,84.56,0
56.00,79.13,0
72.00,74.22,0
67.00,70.25,0
56.00,67.08,0
102.00,64.78,0
109.00,63.94,0
93.00,64.64,0
146.00,66.67,0
91.00,69.98,0
142.00,74.08,0
101.00,78.68,0
142.00,83.61,0
73.00,88.38,0
132.00,92.55,0
85.00,96.15,0
86.00,98.91,0
78.00,100.51,0
72.00,100.97,0
74.00,100.43,0
48.00,98.91,0
37.00,96.19,0
35.00,92.23,0
41.00,87.39,0
61.00,82.30,0
38.00,77.35,0
42.00,72.52,0
100.00,68.28,0
65.00,65.35,0
92.00,63.62,0
85.00,62.96,0
109.00,63.43,0
85.00,64.90,0
131.00,67.27,0
93.00,70.48,0
156.00,74.50,0
98.00,79.26,0
139.00,84.32,0
90.00,89.24,0
141.00,93.82,0
82.00,97.96,0
85.00,101.09,0
86.00,102.92,0
108.00,103.93,0
69.00,104.33,0
88.00,103.93,0
83.00,102.90,0
57.00,101.29,0
68.00,98.92,0
36.00,95.72,0
48.00,91.69,0
36.00,86.98,0
42.00,81.84,0
87.00,76.95,0
40.00,72.79,0
51.00,69.03,0
56.00,65.53,0
81.00,62.72,0
80.00,60.97,0
90.00,60.38,0
111.00,60.99,0
95.00,62.79,0
138.00,65.73,0
77.00,69.49,0
152.00,73.72,0
69.00,78.22,0
201.00,83.11,0
107.00,88.84,0
140.00,94.85,0
88.00,100.21,0
121.00,104.58,0
81.00,107.84,0
100.00,109.91,0
79.00,110.84,0
85.00,110.71,0
88.00,109.74,0
56.00,108.00,0
67.00,105.32,0
34.00,101.66,0
62.00,97.16,0
38.00,92.15,0
39.00,86.76,0
61.00,81.27,0
50.00,76.15,0
57.00,71.55,0
57.00,67.51,0
59.00,64.11,0
79.00,61.51,0
46.00,59.67,0
124.00,58.74,0
96.00,59.30,0
132.00,61.47,0
100.00,64.88,0
127.00,69.11,0
117.00,73.94,0
136.00,79.29,0
54.00,84.39,0
148.00,88.71,0
102.00,92.80,0
139.00,96.90,0
86.00,100.66,0
118.00,103.73,0
56.00,105.76,0
98.00,106.51,0
90.00,106.39,0
60.00,105.57,0
85.00,103.91,0
53.00,101.54,0
108.00,98.87,0
43.00,96.14,0
47.00,92.89,0
49.00,88.89,0
39.00,84.44,0
37.00,79.61,0
58.00,74.73,0
49.00,70.22,0
59.00,66.24,0
64.00,62.94,0
86.00,60.61,0
97.00,59.59,0
135.00,60.28,0
104.00,62.71,0
120.00,66.29,0
103.00,70.51,0
145.00,75.28,0
98.00,80.46,0
143.00,85.74,0
99.00,90.91,0
131.00,95.73,0
88.00,99.94,0
131.00,103.46,0
64.00,106.13,0
119.00,107.77,0
84.00,108.64,0
76.00,108.70,0
91.00,107.86,0
51.00,106.20,0
66.00,103.54,0
44.00,99.98,0
52.00,95.67,0
47.00,90.84,0
49.00,85.77,0
37.00,80.59,0
46.00,75.37,0
61.00,70.49,0
38.00,66.15,0
75.00,62.42,0
105.00,59.95,0
71.00,59.04,0
132.00,59.55,0
112.00,61.68,0
130.00,65.28,0
106.00,69.80,0
205.00,75.45,0
113.00,82.46,0
134.00,89.73,0
99.00,96.25,0
135.00,101.88,0
86.00,106.55,0
108.00,110.00,0
72.00,112.07,0
88.00,112.76,0
79.00,112.25,0
71.00,110.77,0
80.00,108.46,0
50.00,105.45,0
58.00,101.65,0
70.00,97.35,0
36.00,92.80,0
67.00,87.99,0
44.00,83.21,0
37.00,78.40,0
67.00,73.68,0
66.00,69.62,0
80.00,66.54,0
84.00,64.56,0
110.00,63.88,0
98.00,64.57,0
165.00,66.86,0
127.00,70.96,0
148.00,76.43,0
80.00,82.21,0
139.00,87.58,0
93.00,92.50,0
162.00,97.20,0
92.00,101.77,0
130.00,105.81,0
74.00,108.91,0
86.00,110.66,0
75.00,111.00,0
111.00,110.46,0
83.00,109.54,0
68.00,108.06,0
80.00,105.85,0
52.00,102.99,0
60.00,99.43,0
39.00,95.19,0
46.00,90.35,0
62.00,85.26,0
46.00,80.36,0
54.00,75.70,0
59.00,71.41,0
64.00,67.74,0
84.00,64.96,0
120.00,63.60,0
110.00,64.04,0
88.00,65.82,0
130.00,68.43,0
91.00,71.77,0
144.00,75.70,0
124.00,80.34,0
148.00,85.66,0
108.00,91.23,0
140.00,96.61,0
117.00,101.67,0
145.00,106.45,0
93.00,110.69,0
121.00,113.98,0
77.00,116.13,0
101.00,117.03,0
144.00,117.34,0
69.00,117.48,0
79.00,116.68,0
51.00,114.50,0
66.00,111.10,0
37.00,106.65,0
41.00,101.24,0
58.00,95.21,0
39.00,89.10,0
56.00,83.09,0
67.00,77.58,0
77.00,73.03,0
91.00,69.74,0
91.00,67.84,0
122.00,67.42,0
92.00,68.41,0
127.00,70.46,0
93.00,73.34,0
170.00,77.10,0
106.00,81.85,0
158.00,87.24,0
108.00,92.84,0
151.00,98.35,0
95.00,103.47,0
127.00,107.80,0
80.00,111.08,0
115.00,113.22,0
62.00,114.19,0
86.00,113.84,0
90.00,112.48,0
75.00,110.56,0
120.00,108.41,0
49.00,106.21,0
49.00,103.22,0
51.00,99.17,0
38.00,94.38,0
62.00,89.19,0
49.00,84.04,0
72.00,79.27,0
52.00,75.04,0
71.00,71.40,0
86.00,68.58,0
96.00,66.98,0
93.00,66.62,0
110.00,67.39,0
