84.00,70.90,1
36.00,71.62,1
65.00,71.63,1
127.00,71.68,1
94.00,72.78,1
98.00,74.64,1
109.00,76.88,1
269.00,80.89,1
36.00,86.93,1
213.00,93.22,1
65.00,99.28,1
58.00,103.90,1
79.00,106.12,1
168.00,107.48,1
56.00,108.85,1
230.00,110.51,1
92.00,113.14,1
124.00,115.85,1
109.00,117.79,1
88.00,118.92,1
56.00,118.66,1
42.00,116.52,1
54.00,112.64,1
38.00,107.51,1
95.00,101.90,1
136.00,97.28,1
47.00,93.98,1
112.00,91.20,1
113.00,89.24,1
37.00,87.90,1
46.00,85.90,1
76.00,83.24,1
55.00,80.55,1
129.00,78.45,1
41.00,77.19,1
120.00,76.42,1
106.00,76.50,1
36.00,77.09,1
64.00,76.99,1
164.00,77.07,1
188.00,79.39,1
84.00,83.70,1
87.00,87.87,1
148.00,91.49,1
247.00,96.43,1
66.00,102.86,1
55.00,107.94,1
93.00,110.44,1
57.00,111.15,1
61.00,110.21,1
48.00,107.72,1
39.00,103.87,1
109.00,99.45,1
160.00,96.26,1
107.00,95.10,1
154.00,95.43,1
61.00,96.46,1
68.00,96.89,1
98.00,96.45,1
51.00,95.54,1
68.00,93.89,1
96.00,91.87,1
49.00,89.86,1
42.00,87.30,1
89.00,84.31,1
168.00,82.46,1
112.00,82.78,1
119.00,84.51,1
182.00,87.44,1
145.00,91.98,1
108.00,97.20,1
39.00,101.26,1
54.00,102.98,1
138.00,103.21,1
159.00,104.02,1
55.00,105.43,1
199.00,106.88,1
59.00,108.68,1
40.00,109.41,1
160.00,108.80,1
96.00,108.52,1
48.00,108.01,1
50.00,106.02,1
56.00,102.68,1
134.00,99.20,1
130.00,97.03,1
39.00,95.76,1
53.00,93.78,1
50.00,90.77,1
106.00,87.63,1
131.00,85.59,1
69.00,84.82,1
68.00,84.22,1
118.00,83.65,1
61.00,83.47,1
37.00,82.86,1
88.00,81.50,1
108.00,80.42,1
66.00,80.01,1
84.00,79.73,1
83.00,79.50,1
86.00,79.48,1
41.00,79.27,1
91.00,78.64,1
37.00,77.71,1
66.00,76.33,1
62.00,74.67,1
78.00,73.16,1
65.00,71.93,1
41.00,70.67,1
112.00,69.52,1
82.00,69.22,1
42.00,69.33,1
179.00,69.98,1
136.00,72.59,1
62.00,76.44,1
92.00,79.75,1
90.00,82.40,1
119.00,84.93,1
127.00,87.80,1
121.00,91.17,1
97.00,94.57,1
76.00,97.26,1
52.00,98.57,1
154.00,99.06,1
140.00,100.29,1
133.00,102.61,1
206.00,106.06,1
209.00,111.41,1
124.00,117.99,1
64.00,123.39,1
103.00,126.34,1
77.00,127.26,1
66.00,126.43,1
114.00,124.27,1
40.00,121.27,1
54.00,117.04,1
102.00,112.01,1
54.00,107.06,1
68.00,102.05,1
108.00,97.34,1
74.00,93.49,1
45.00,89.97,1
72.00,86.25,1
196.00,83.76,1
58.00,83.43,1
58.00,83.47,1
190.00,83.76,1
117.00,85.82,1
124.00,89.08,1
118.00,92.62,1
122.00,96.23,1
266.00,100.97,1
127.00,107.76,1
117.00,114.63,1
54.00,119.48,1
44.00,121.42,1
72.00,120.64,1
68.00,118.16,1
72.00,114.67,1
121.00,110.98,1
37.00,107.40,1
44.00,103.10,1
67.00,98.00,1
107.00,93.24,1
91.00,89.62,1
52.00,86.72,1
36.00,83.56,1
63.00,79.93,1
101.00,76.71,1
120.00,74.91,1
93.00,74.66,1
83.00,75.22,1
65.00,75.84,1
86.00,76.27,1
46.00,76.42,1
52.00,75.91,1
142.00,75.42,1
87.00,76.05,1
146.00,77.84,1
75.00,80.37,1
172.00,83.50,1
36.00,86.89,1
100.00,89.44,1
52.00,90.80,1
103.00,91.36,1
134.00,92.00,1
85.00,93.22,1
90.00,94.32,1
65.00,94.76,1
36.00,94.08,1
85.00,92.29,1
38.00,89.89,1
52.00,86.85,1
68.00,83.40,1
65.00,80.11,1
61.00,77.10,1
112.00,74.74,1
48.00,73.22,1
102.00,72.20,1
186.00,72.67,1
105.00,75.40,1
39.00,78.60,1
133.00,81.04,1
91.00,83.49,1
149.00,86.43,1
100.00,89.85,1
60.00,92.86,1
92.00,94.65,1
96.00,95.69,1
93.00,96.43,1
68.00,96.70,1
37.00,95.88,1
42.00,93.60,1
89.00,90.51,1
38.00,87.30,1
54.00,83.78,1
57.00,80.02,1
141.00,77.08,1
46.00,75.47,1
115.00,74.64,1
62.00,74.33,1
70.00,74.20,1
89.00,74.05,1
68.00,74.10,1
68.00,74.11,1
39.00,73.68,1
91.00,72.87,1
77.00,72.31,1
67.00,72.07,1
47.00,71.64,1
38.00,70.58,1
98.00,69.27,1
86.00,68.62,1
113.00,69.04,1
54.00,70.10,1
83.00,71.10,1
61.00,71.83,1
38.00,72.02,1
110.00,71.82,1
122.00,72.45,1
42.00,73.82,1
154.00,75.39,1
76.00,77.63,1
68.00,79.85,1
193.00,82.25,1
63.00,85.63,1
58.00,88.48,1
171.00,90.62,1
127.00,93.60,1
70.00,96.87,1
43.00,98.71,1
57.00,98.59,1
79.00,97.17,1
48.00,95.05,1
63.00,92.27,1
194.00,90.15,1
106.00,90.17,1
123.00,91.58,1
98.00,93.36,1
120.00,95.26,1
153.00,97.61,1
45.00,100.06,1
76.00,101.26,1
70.00,101.03,1
152.00,100.55,1
152.00,101.22,1
57.00,102.63,1
82.00,103.18,1
85.00,102.71,1
165.00,102.40,1
112.00,103.15,1
79.00,104.18,1
124.00,104.77,1
55.00,104.91,1
112.00,104.41,1
48.00,103.28,1
42.00,101.07,1
51.00,97.56,1
134.00,93.95,1
96.00,91.53,1
74.00,89.97,1
124.00,88.86,1
65.00,88.28,1
78.00,87.67,1
62.00,86.63,1
51.00,85.07,1
115.00,83.38,1
83.00,82.35,1
79.00,81.81,1
157.00,82.00,1
172.00,84.10,1
72.00,87.66,1
206.00,91.78,1
90.00,96.63,1
108.00,101.20,1
44.00,104.22,1
89.00,105.42,1
141.00,105.84,1
259.00,107.86,1
100.00,112.10,1
54.00,115.85,1
56.00,117.06,1
178.00,116.94,1
147.00,117.61,1
61.00,118.64,1
79.00,118.38,1
93.00,116.83,1
101.00,114.82,1
85.00,112.63,1
41.00,109.82,1
43.00,105.77,1
80.00,100.90,1
107.00,96.43,1
57.00,92.74,1
92.00,89.47,1
123.00,87.03,1
97.00,85.91,1
68.00,85.40,1
127.00,85.17,1
42.00,85.19,1
133.00,85.23,1
103.00,85.84,1
149.00,87.51,1
249.00,91.28,1
106.00,97.35,1
131.00,103.63,1
67.00,108.57,1
58.00,111.38,1
63.00,111.87,1
106.00,110.94,1
98.00,109.64,1
110.00,108.43,1
71.00,107.14,1
52.00,105.14,1
74.00,102.19,1
75.00,98.85,1
101.00,95.73,1
127.00,93.53,1
78.00,92.34,1
94.00,91.50,1
36.00,90.33,1
59.00,88.31,1
132.00,86.22,1
97.00,85.26,1
37.00,84.71,1
97.00,83.71,1
107.00,82.98,1
117.00,83.22,1
54.00,83.92,1
61.00,84.04,1
39.00,83.12,1
127.00,81.87,1
98.00,81.45,1
81.00,81.79,1
328.00,84.20,1
65.00,89.90,1
64.00,95.59,1
84.00,99.04,1
49.00,100.69,1
85.00,100.81,1
83.00,100.07,1
68.00,98.82,1
62.00,96.92,1
74.00,94.47,1
47.00,91.59,1
79.00,88.42,1
63.00,85.31,1
67.00,82.36,1
64.00,79.56,1
37.00,76.71,1
148.00,74.38,1
40.00,73.23,1
182.00,73.34,1
80.00,75.00,1
102.00,77.46,1
101.00,79.95,1
86.00,82.42,1
182.00,85.34,1
94.00,89.23,1
184.00,93.82,1
138.00,99.16,1
100.00,104.58,1
94.00,108.81,1
48.00,111.20,1
148.00,112.12,1
228.00,113.84,1
71.00,116.97,1
208.00,120.26,1
55.00,123.26,1
86.00,124.81,1
76.00,124.35,1
63.00,122.38,1
88.00,119.23,1
67.00,115.42,1
72.00,111.13,1
52.00,106.37,1
66.00,101.24,1
75.00,96.13,1
96.00,91.65,1
200.00,89.07,1
38.00,88.62,1
186.00,89.17,1
189.00,91.60,1
115.00,96.07,1
293.00,102.17,1
126.00,110.29,1
198.00,118.99,1
59.00,126.46,1
163.00,131.91,1
70.00,135.43,1
89.00,136.85,1
62.00,135.96,1
173.00,133.98,1
144.00,132.60,1
83.00,131.66,1
54.00,129.61,1
218.00,127.14,1
61.00,125.61,1
163.00,124.46,1
52.00,123.09,1
42.00,120.53,1
50.00,116.14,1
130.00,111.18,1
80.00,106.97,1
52.00,103.05,1
49.00,98.58,1
95.00,93.95,1
92.00,90.07,1
254.00,88.55,1
76.00,90.08,1
74.00,92.24,1
155.00,93.96,1
126.00,96.38,1
116.00,99.37,1
100.00,102.14,1
80.00,104.13,1
79.00,105.00,1
148.00,105.39,1
63.00,105.82,1
158.00,106.22,1
171.00,107.55,1
36.00,109.44,1
127.00,110.31,1
159.00,111.04,1
127.00,112.65,1
54.00,114.01,1
163.00,114.56,1
64.00,114.85,1
65.00,114.23,1
47.00,111.96,1
59.00,108.32,1
75.00,103.96,1
37.00,99.22,1
106.00,94.45,1
217.00,91.56,1
88.00,91.54,1
46.00,92.13,1
128.00,92.08,1
104.00,92.35,1
226.00,94.16,1
73.00,97.64,1
76.00,100.77,1
129.00,102.73,1
167.00,104.98,1
161.00,108.40,1
218.00,113.27,1
101.00,119.00,1
66.00,123.43,1
56.00,125.11,1
40.00,124.03,1
42.00,120.55,1
41.00,115.27,1
80.00,109.12,1
127.00,103.55,1
91.00,99.41,1
70.00,96.11,1
89.00,93.07,1
65.00,90.26,1
66.00,87.51,1
83.00,84.83,1
74.00,82.52,1
68.00,80.50,1
117.00,79.01,1
63.00,78.29,1
117.00,78.13,1
69.00,78.46,1
70.00,78.80,1
55.00,78.63,1
138.00,78.53,1
116.00,79.57,1
84.00,81.48,1
92.00,83.36,1
86.00,84.95,1
126.00,86.57,1
54.00,88.19,1
78.00,89.07,1
51.00,88.96,1
89.00,88.14,1
44.00,86.86,1
68.00,85.03,1
69.00,82.89,1
62.00,80.73,1
74.00,78.63,1
196.00,77.79,1
111.00,79.37,1
55.00,81.87,1
49.00,83.29,1
37.00,83.19,1
134.00,82.49,1
109.00,82.65,1
116.00,83.91,1
138.00,86.07,1
37.00,88.41,1
48.00,89.41,1
104.00,89.16,1
37.00,88.44,1
124.00,87.46,1
175.00,87.64,1
83.00,89.50,1
74.00,91.39,1
137.00,92.84,1
67.00,94.31,1
95.00,95.34,1
133.00,96.19,1
116.00,97.61,1
113.00,99.42,1
72.00,100.92,1
105.00,101.72,1
94.00,102.07,1
60.00,101.87,1
64.00,100.64,1
108.00,98.83,1
39.00,96.81,1
45.00,93.99,1
114.00,90.74,1
37.00,87.84,1
115.00,85.23,1
68.00,83.20,1
144.00,82.16,1
188.00,83.16,1
200.00,87.17,1
70.00,92.77,1
208.00,98.49,1
55.00,104.05,1
71.00,108.06,1
60.00,109.66,1
254.00,110.92,1
120.00,113.90,1
108.00,117.37,1
85.00,119.61,1
100.00,120.47,1
85.00,120.19,1
126.00,119.27,1
130.00,118.50,1
68.00,117.74,1
76.00,116.10,1
77.00,113.45,1
35.00,109.87,1
84.00,105.44,1
38.00,100.56,1
36.00,95.13,1
60.00,89.27,1
36.00,83.43,1
132.00,78.42,1
47.00,74.89,1
63.00,72.13,1
52.00,69.50,1
80.00,67.25,1
120.00,66.07,1
200.00,67.30,1
72.00,70.92,1
72.00,74.78,1
128.00,78.08,1
146.00,81.93,1
100.00,86.45,1
85.00,90.59,1
95.00,93.76,1
56.00,95.80,1
163.00,97.24,1
81.00,98.95,1
106.00,100.54,1
42.00,101.18,1
75.00,100.52,1
104.00,99.13,1
73.00,97.74,1
189.00,97.08,1
103.00,97.95,1
92.00,99.40,1
54.00,100.03,1
52.00,99.28,1
40.00,97.06,1
41.00,93.58,1
177.00,90.32,1
84.00,88.81,1
100.00,88.43,1
108.00,88.45,1
63.00,88.68,1
141.00,89.02,1
43.00,89.54,1
59.00,89.34,1
60.00,88.05,1
188.00,87.19,1
36.00,87.56,1
104.00,87.96,1
69.00,87.95,1
126.00,88.07,1
62.00,88.42,1
149.00,89.06,1
41.00,89.91,1
133.00,90.60,1
131.00,91.75,1
82.00,93.53,1
76.00,94.86,1
54.00,95.10,1
37.00,93.96,1
66.00,91.60,1
60.00,88.68,1
79.00,85.71,1
74.00,83.03,1
49.00,80.53,1
57.00,77.85,1
212.00,76.34,1
47.00,77.04,1
133.00,78.67,1
188.00,81.45,1
132.00,86.18,1
104.00,91.54,1
107.00,96.28,1
242.00,101.34,1
117.00,107.69,1
173.00,114.33,1
148.00,120.64,1
108.00,126.22,1
36.00,129.59,1
133.00,130.44,1
66.00,129.82,1
158.00,128.56,1
127.00,127.55,1
63.00,126.50,1
75.00,124.21,1
126.00,121.16,1
98.00,118.34,1
127.00,116.01,1
81.00,113.97,1
126.00,112.09,1
64.00,110.23,1
60.00,107.77,1
38.00,104.17,1
113.00,100.05,1
56.00,96.25,1
78.00,92.68,1
85.00,89.36,1
74.00,86.55,1
40.00,83.81,1
127.00,81.27,1
35.00,79.39,1
107.00,77.84,1
172.00,77.57,1
90.00,79.30,1
52.00,81.33,1
59.00,82.28,1
87.00,82.41,1
152.00,82.96,1
166.00,85.24,1
90.00,88.90,1
82.00,92.28,1
81.00,94.57,1
173.00,96.63,1
43.00,98.89,1
254.00,101.59,1
179.00,106.34,1
69.00,112.08,1
70.00,115.94,1
59.00,117.24,1
138.00,117.05,1
69.00,116.37,1
37.00,114.59,1
63.00,111.16,1
46.00,106.59,1
114.00,101.83,1
68.00,97.66,1
119.00,94.32,1
61.00,91.70,1
97.00,89.47,1
50.00,87.34,1
70.00,85.04,1
167.00,83.43,1
64.00,83.33,1
162.00,84.28,1
40.00,85.76,1
88.00,86.78,1
108.00,87.35,1
102.00,88.26,1
60.00,89.11,1
148.00,89.86,1
141.00,91.57,1
79.00,94.05,1
39.00,95.62,1
36.00,95.25,1
125.00,93.78,1
42.00,92.28,1
61.00,90.30,1
96.00,87.96,1
35.00,85.65,1
58.00,82.91,1
52.00,79.76,1
82.00,76.75,1
107.00,74.59,1
59.00,73.42,1
90.00,72.71,1
106.00,72.62,1
50.00,73.07,1
82.00,73.38,1
94.00,73.73,1
141.00,74.98,1
179.00,78.04,1
68.00,82.47,1
84.00,86.42,1
85.00,89.20,1
45.00,90.84,1
36.00,90.81,1
88.00,89.47,1
118.00,88.23,1
102.00,87.91,1
133.00,88.52,1
127.00,90.15,1
80.00,92.28,1
64.00,93.74,1
109.00,94.38,1
57.00,94.54,1
39.00,93.69,1
72.00,91.66,1
43.00,88.96,1
105.00,86.13,1
43.00,83.57,1
67.00,81.00,1
62.00,78.34,1
119.00,76.29,1
125.00,75.72,1
98.00,76.67,1
77.00,78.15,1
103.00,79.63,1
208.00,82.20,1
84.00,86.41,1
121.00,90.86,1
47.00,94.31,1
106.00,96.47,1
48.00,97.45,1
68.00,97.19,1
72.00,95.89,1
57.00,93.94,1
83.00,91.58,1
96.00,89.39,1
40.00,87.37,1
99.00,85.21,1
78.00,83.37,1
178.00,82.80,1
44.00,83.61,1
54.00,84.11,1
45.00,83.32,1
51.00,81.55,1
77.00,79.37,1
85.00,77.48,1
116.00,76.49,1
79.00,76.48,1
82.00,76.90,1
193.00,78.29,1
83.00,81.32,1
113.00,84.83,1
94.00,88.04,1
59.00,90.53,1
83.00,91.87,1
139.00,92.86,1
127.00,94.57,1
141.00,97.16,1
113.00,100.24,1
92.00,103.05,1
201.00,105.90,1
68.00,109.21,1
39.00,111.21,1
172.00,111.68,1
49.00,111.91,1
55.00,111.05,1
170.00,109.45,1
41.00,108.22,1
56.00,106.23,1
40.00,102.79,1
103.00,98.74,1
155.00,95.73,1
93.00,94.45,1
159.00,94.51,1
101.00,95.67,1
61.00,96.88,1
84.00,97.13,1
181.00,97.50,1
122.00,99.27,1
173.00,102.28,1
140.00,106.23,1
126.00,110.50,1
86.00,114.05,1
127.00,116.47,1
95.00,118.05,1
173.00,119.40,1
94.00,120.91,1
67.00,121.60,1
75.00,120.59,1
41.00,117.98,1
70.00,113.96,1
42.00,108.98,1
80.00,103.52,1
115.00,98.57,1
126.00,95.14,1
102.00,93.28,1
75.00,92.13,1
36.00,90.59,1
132.00,88.73,1
148.00,88.07,1
52.00,88.63,1
72.00,88.80,1
108.00,88.50,1
139.00,88.90,1
134.00,90.56,1
115.00,93.15,1
54.00,95.50,1
79.00,96.62,1
122.00,97.04,1
106.00,97.70,1
152.00,98.99,1
98.00,100.90,1
87.00,102.61,1
125.00,103.80,1
37.00,104.36,1
166.00,104.35,1
78.00,104.59,1
124.00,105.00,1
107.00,105.42,1
54.00,105.49,1
65.00,104.36,1
173.00,103.00,1
113.00,102.91,1
48.00,103.13,1
90.00,102.36,1
62.00,100.78,1
43.00,98.37,1
91.00,95.25,1
65.00,92.13,1
62.00,89.05,1
97.00,86.12,1
58.00,83.65,1
78.00,81.41,1
55.00,79.24,1
114.00,77.46,1
93.00,76.67,1
148.00,77.24,1
108.00,79.24,1
42.00,81.50,1
35.00,82.40,1
72.00,81.87,1
154.00,81.52,1
119.00,82.70,1
188.00,85.67,1
96.00,89.98,1
98.00,94.24,1
74.00,97.38,1
55.00,99.03,1
42.00,98.86,1
121.00,97.62,1
72.00,96.39,1
41.00,94.79,1
203.00,93.39,1
37.00,93.24,1
45.00,92.71,1
45.00,90.64,1
39.00,87.49,1
45.00,83.61,1
58.00,79.43,1
127.00,76.01,1
67.00,74.03,1
178.00,73.73,1
38.00,74.87,1
67.00,75.92,1
114.00,76.56,1
171.00,78.38,1
116.00,81.91,1
86.00,85.91,1
111.00,89.41,1
97.00,92.46,1
72.00,94.84,1
102.00,96.34,1
99.00,97.39,1
142.00,98.62,1
150.00,100.71,1
39.00,102.95,1
79.00,103.78,1
51.00,103.03,1
71.00,101.13,1
107.00,98.81,1
103.00,96.99,1
65.00,95.53,1
52.00,93.61,1
71.00,91.04,1
40.00,87.99,1
58.00,84.49,1
51.00,80.75,1
228.00,78.46,1
69.00,78.89,1
90.00,80.39,1
96.00,81.73,1
86.00,83.08,1
90.00,84.32,1
59.00,85.16,1
55.00,85.15,1
46.00,84.10,1
183.00,83.25,1
61.00,83.77,1
127.00,84.98,1
64.00,86.22,1
64.00,86.94,1
57.00,86.67,1
50.00,85.48,1
117.00,84.01,1
97.00,83.27,1
60.00,83.02,1
116.00,82.84,1
72.00,82.97,1
56.00,82.94,1
63.00,82.20,1
108.00,81.33,1
49.00,80.68,1
62.00,79.74,1
60.00,78.31,1
38.00,76.45,1
90.00,74.38,1
51.00,72.56,1
108.00,71.27,1
159.00,71.46,1
114.00,73.75,1
67.00,76.81,1
102.00,79.49,1
154.00,82.41,1
90.00,86.05,1
51.00,89.15,1
72.00,90.74,1
150.00,91.80,1
38.00,92.95,1
207.00,94.35,1
95.00,96.81,1
110.00,99.68,1
90.00,101.91,1
81.00,103.30,1
73.00,103.62,1
109.00,103.21,1
36.00,102.19,1
49.00,99.93,1
91.00,96.77,1
88.00,93.80,1
81.00,91.31,1
74.00,89.09,1
63.00,86.86,1
116.00,84.91,1
151.00,84.30,1
116.00,85.48,1
134.00,87.82,1
98.00,90.68,1
103.00,93.44,1
76.00,95.59,1
103.00,97.02,1
90.00,97.97,1
145.00,98.99,1
46.00,100.01,1
78.00,100.07,1
46.00,98.87,1
69.00,96.66,1
54.00,93.75,1
138.00,91.04,1
40.00,89.03,1
168.00,87.75,1
89.00,87.73,1
96.00,88.47,1
64.00,88.96,1
51.00,88.65,1
39.00,87.18,1
72.00,84.84,1
51.00,82.19,1
80.00,79.56,1
49.00,77.08,1
89.00,74.85,1
76.00,73.19,1
82.00,72.18,1
51.00,71.44,1
74.00,70.64,1
81.00,70.01,1
124.00,70.19,1
108.00,71.64,1
90.00,73.92,1
76.00,76.23,1
59.00,77.95,1
192.00,79.86,1
85.00,83.06,1
105.00,86.60,1
97.00,89.67,1
60.00,92.00,1
41.00,92.86,1
87.00,92.32,1
111.00,91.55,1
76.00,91.12,1
36.00,90.25,1
39.00,88.14,1
39.00,84.87,1
74.00,81.15,1
47.00,77.58,1
66.00,74.23,1
119.00,71.70,1
121.00,70.91,1
40.00,71.29,1
111.00,71.80,1
68.00,72.54,1
64.00,73.28,1
215.00,74.81,1
40.00,77.94,1
161.00,81.52,1
54.00,84.98,1
42.00,87.37,1
89.00,88.16,1
50.00,88.08,1
192.00,88.26,1
161.00,90.39,1
105.00,94.15,1
66.00,97.51,1
53.00,99.24,1
92.00,99.44,1
127.00,99.31,1
65.00,99.32,1
41.00,98.51,1
56.00,96.29,1
59.00,93.17,1
38.00,89.47,1
41.00,85.14,1
38.00,80.35,1
35.00,75.30,1
65.00,70.40,1
68.00,66.28,1
42.00,62.96,1
85.00,60.32,1
44.00,58.44,1
128.00,57.57,1
156.00,58.78,1
48.00,61.83,1
93.00,64.96,1
36.00,67.42,1
56.00,68.88,1
137.00,70.07,1
153.00,72.68,1
150.00,77.17,1
92.00,82.55,1
79.00,87.32,1
110.00,91.03,1
116.00,94.28,1
53.00,96.89,1
172.00,98.93,1
58.00,100.97,1
70.00,102.15,1
85.00,102.00,1
47.00,100.89,1
39.00,98.50,1
60.00,94.95,1
57.00,90.90,1
87.00,86.97,1
79.00,83.67,1
69.00,80.99,1
38.00,78.39,1
85.00,75.71,1
60.00,73.39,1
85.00,71.60,1
169.00,71.16,1
61.00,72.49,1
83.00,74.19,1
52.00,75.33,1
127.00,76.31,1
69.00,77.62,1
50.00,78.66,1
46.00,78.62,1
80.00,77.83,1
90.00,77.10,1
56.00,76.61,1
100.00,76.20,1
72.00,76.08,1
71.00,76.08,1
118.00,76.31,1
111.00,77.43,1
101.00,79.36,1
111.00,81.72,1
41.00,83.82,1
65.00,84.77,1
55.00,84.56,1
87.00,83.76,1
78.00,82.93,1
63.00,82.08,1
40.00,80.74,1
43.00,78.56,1
81.00,76.03,1
75.00,73.90,1
162.00,73.10,1
127.00,74.44,1
84.00,77.13,1
203.00,80.74,1
108.00,85.78,1
125.00,91.28,1
97.00,96.20,1
160.00,100.72,1
155.00,105.56,1
129.00,110.70,1
74.00,114.97,1
127.00,117.75,1
38.00,118.98,1
93.00,118.43,1
102.00,116.78,1
183.00,115.64,1
58.00,115.29,1
44.00,114.04,1
48.00,110.93,1
78.00,106.70,1
45.00,102.01,1
98.00,97.27,1
72.00,93.04,1
45.00,89.11,1
126.00,85.56,1
83.00,83.18,1
72.00,81.63,1
87.00,80.34,1
68.00,79.31,1
112.00,78.67,1
180.00,79.50,1
149.00,82.64,1
60.00,86.75,1
62.00,89.74,1
122.00,91.57,1
40.00,92.80,1
96.00,93.14,1
130.00,93.30,1
113.00,94.22,1
78.00,95.39,1
110.00,96.26,1
158.00,97.50,1
94.00,99.53,1
76.00,101.26,1
159.00,102.58,1
84.00,104.14,1
83.00,105.27,1
70.00,105.30,1
52.00,104.10,1
42.00,101.53,1
63.00,97.87,1
73.00,93.83,1
96.00,90.19,1
113.00,87.56,1
71.00,85.92,1
115.00,84.90,1
82.00,84.48,1
77.00,84.32,1
214.00,85.13,1
123.00,88.15,1
94.00,92.10,1
132.00,95.73,1
115.00,99.23,1
229.00,103.51,1
54.00,108.53,1
98.00,112.35,1
75.00,114.22,1
215.00,115.68,1
73.00,117.75,1
87.00,119.13,1
50.00,118.69,1
143.00,117.16,1
59.00,115.39,1
91.00,113.14,1
42.00,110.01,1
164.00,106.80,1
77.00,104.53,1
102.00,102.82,1
61.00,100.95,1
93.00,98.81,1
56.00,96.41,1
78.00,93.74,1
79.00,91.02,1
87.00,88.60,1
67.00,86.48,1
116.00,84.80,1
53.00,83.63,1
189.00,83.38,1
115.00,84.94,1
140.00,87.93,1
76.00,91.19,1
56.00,93.52,1
87.00,94.47,1
88.00,94.70,1
119.00,94.89,1
55.00,95.05,1
44.00,94.28,1
68.00,92.33,1
275.00,91.57,1
70.00,93.66,1
136.00,96.71,1
40.00,98.97,1
35.00,99.49,1
60.00,97.99,1
42.00,95.23,1
72.00,91.76,1
45.00,87.99,1
60.00,84.05,1
68.00,80.20,1
72.00,76.84,1
72.00,74.10,1
67.00,71.90,1
81.00,70.23,1
225.00,70.42,1
52.00,73.07,1
74.00,76.00,1
89.00,78.11,1
127.00,80.27,1
110.00,83.00,1
168.00,86.58,1
141.00,91.32,1
66.00,96.17,1
108.00,99.82,1
148.00,102.85,1
100.00,105.93,1
55.00,108.09,1
94.00,108.65,1
135.00,108.61,1
36.00,108.29,1
49.00,106.60,1
66.00,103.44,1
76.00,99.76,1
55.00,95.91,1
75.00,91.97,1
39.00,87.95,1
91.00,84.01,1
84.00,80.76,1
37.00,78.06,1
52.00,75.17,1
98.00,72.46,1
166.00,71.42,1
43.00,72.20,1
82.00,73.17,1
130.00,74.28,1
91.00,76.25,1
84.00,78.50,1
81.00,80.43,1
93.00,82.04,1
115.00,83.70,1
96.00,85.68,1
106.00,87.75,1
68.00,89.54,1
252.00,92.03,1
52.00,96.03,1
39.00,99.16,1
68.00,99.89,1
46.00,98.96,1
77.00,96.95,1
74.00,94.48,1
71.00,91.92,1
43.00,89.07,1
57.00,85.73,1
41.00,81.99,1
50.00,77.99,1
78.00,74.18,1
60.00,71.04,1
52.00,68.37,1
75.00,66.05,1
132.00,64.87,1
78.00,65.28,1
89.00,66.55,1
40.00,67.76,1
74.00,68.45,1
47.00,68.65,1
78.00,68.56,1
44.00,68.26,1
98.00,67.97,1
104.00,68.34,1
101.00,69.73,1
102.00,71.87,1
75.00,74.26,1
147.00,76.92,1
50.00,79.88,1
54.00,81.97,1
73.00,82.74,1
97.00,83.04,1
49.00,83.14,1
46.00,82.45,1
50.00,80.77,1
46.00,78.41,1
60.00,75.69,1
74.00,73.10,1
38.00,70.75,1
108.00,68.76,1
76.00,67.71,1
49.00,67.23,1
68.00,66.65,1
123.00,66.55,1
102.00,67.72,1
101.00,69.91,1
36.00,72.07,1
39.00,73.09,1
163.00,73.74,1
42.00,75.16,1
84.00,76.49,1
67.00,77.27,1
130.00,78.18,1
76.00,79.63,1
126.00,81.47,1
76.00,83.51,1
52.00,85.03,1
133.00,85.96,1
78.00,87.10,1
43.00,87.83,1
65.00,87.37,1
38.00,85.86,1
69.00,83.61,1
54.00,81.03,1
37.00,78.16,1
72.00,75.04,1
50.00,72.10,1
72.00,69.50,1
170.00,68.23,1
182.00,69.98,1
88.00,74.14,1
58.00,78.30,1
122.00,81.56,1
97.00,84.64,1
116.00,87.76,1
41.00,90.28,1
89.00,91.58,1
138.00,92.49,1
73.00,93.75,1
101.00,94.80,1
93.00,95.50,1
157.00,96.55,1
35.00,97.81,1
51.00,97.84,1
73.00,96.36,1
46.00,94.04,1
165.00,91.90,1
88.00,91.07,1
66.00,90.80,1
113.00,90.34,1
82.00,90.10,1
119.00,90.21,1
93.00,90.73,1
71.00,91.23,1
61.00,91.03,1
57.00,89.94,1
94.00,88.35,1
138.00,87.40,1
106.00,87.71,1
50.00,88.36,1
143.00,88.82,1
110.00,89.92,1
115.00,91.73,1
66.00,93.42,1
66.00,94.20,1
72.00,93.90,1
163.00,93.66,1
137.00,94.80,1
116.00,97.12,1
101.00,99.55,1
113.00,101.67,1
43.00,102.98,1
117.00,103.18,1
45.00,102.57,1
101.00,101.26,1
67.00,99.51,1
40.00,97.16,1
68.00,93.92,1
40.00,90.14,1
50.00,85.91,1
90.00,81.76,1
60.00,78.30,1
58.00,75.29,1
52.00,72.40,1
57.00,69.62,1
126.00,67.61,1
93.00,67.20,1
101.00,68.08,1
97.00,69.73,1
82.00,71.81,1
109.00,74.07,1
104.00,76.68,1
54.00,79.20,1
197.00,81.88,1
241.00,86.92,1
112.00,94.44,1
66.00,101.42,1
106.00,106.25,1
86.00,109.42,1
142.00,111.68,1
109.00,113.67,1
47.00,114.78,1
50.00,113.91,1
70.00,111.27,1
64.00,107.67,1
42.00,103.36,1
52.00,98.31,1
66.00,92.97,1
50.00,87.77,1
37.00,82.60,1
48.00,77.36,1
100.00,72.74,1
116.00,69.86,1
113.00,69.05,1
131.00,70.05,1
156.00,72.89,1
73.00,76.91,1
104.00,80.78,1
105.00,84.24,1
126.00,87.72,1
128.00,91.47,1
86.00,95.16,1
149.00,98.54,1
44.00,101.38,1
68.00,102.72,1
111.00,102.74,1
91.00,102.50,1
126.00,102.40,1
61.00,102.27,1
33.00,101.10,1
73.00,98.50,1
105.00,95.62,1
98.00,93.42,1
58.00,91.63,1
51.00,89.42,1
35.00,86.40,1
61.00,82.75,1
66.00,79.07,1
78.00,75.91,1
82.00,73.51,1
41.00,71.60,1
60.00,69.63,1
134.00,68.27,1
39.00,68.02,1
155.00,68.63,1
45.00,70.08,1
174.00,72.33,1
69.00,75.47,1
114.00,78.89,1
100.00,82.16,1
184.00,86.03,1
137.00,91.15,1
103.00,96.66,1
50.00,100.90,1
75.00,103.07,1
98.00,103.78,1
48.00,103.51,1
35.00,101.76,1
60.00,98.52,1
36.00,94.37,1
75.00,89.80,1
82.00,85.57,1
43.00,81.86,1
42.00,78.07,1
69.00,74.22,1
73.00,70.93,1
98.00,68.67,1
68.00,67.47,1
60.00,66.76,1
95.00,66.35,1
63.00,66.44,1
88.00,66.86,1
108.00,67.84,1
141.00,70.03,1
103.00,73.46,1
60.00,77.00,1
92.00,79.76,1
70.00,81.80,1
112.00,83.49,1
79.00,85.10,1
57.00,86.21,1
38.00,86.11,1
44.00,84.66,1
118.00,82.77,1
52.00,81.34,1
96.00,80.19,1
222.00,80.52,1
80.00,83.25,1
71.00,86.32,1
57.00,88.10,1
69.00,88.63,1
36.00,88.01,1
130.00,86.86,1
43.00,85.92,1
67.00,84.70,1
107.00,83.32,1
47.00,82.22,1
163.00,81.68,1
146.00,82.87,1
68.00,85.35,1
86.00,87.46,1
86.00,88.86,1
196.00,90.74,1
149.00,94.38,1
139.00,99.27,1
139.00,104.37,1
134.00,109.36,1
61.00,113.40,1
79.00,115.50,1
129.00,116.13,1
134.00,116.66,1
176.00,117.94,1
69.00,119.60,1
155.00,120.78,1
67.00,121.37,1
48.00,120.59,1
112.00,118.27,1
60.00,115.34,1
41.00,111.55,1
58.00,106.62,1
57.00,101.12,1
118.00,95.99,1
91.00,92.09,1
38.00,88.88,1
77.00,85.51,1
60.00,82.21,1
80.00,79.27,1
41.00,76.57,1
139.00,74.48,1
162.00,74.44,1
187.00,77.32,1
104.00,82.26,1
119.00,87.57,1
105.00,92.39,1
99.00,96.55,1
81.00,99.67,1
75.00,101.53,1
157.00,102.79,1
80.00,104.24,1
149.00,105.74,1
62.00,107.02,1
202.00,108.39,1
114.00,110.64,1
37.00,112.55,1
58.00,112.32,1
63.00,110.17,1
37.00,106.72,1
119.00,102.68,1
55.00,98.94,1
64.00,95.25,1
106.00,91.69,1
76.00,88.86,1
123.00,86.93,1
100.00,86.07,1
48.00,85.65,1
108.00,85.01,1
41.00,84.23,1
146.00,83.63,1
86.00,83.87,1
81.00,84.58,1
34.00,84.65,1
117.00,84.10,1
131.00,84.20,1
60.00,85.12,1
80.00,85.74,1
206.00,86.91,1
114.00,89.95,1
286.00,95.23,1
57.00,102.28,1
35.00,107.86,1
75.00,110.21,1
70.00,110.44,1
51.00,109.16,1
59.00,106.48,1
118.00,103.29,1
65.00,100.42,1
126.00,98.01,1
98.00,96.38,1
56.00,95.08,1
170.00,94.09,1
116.00,94.47,1
228.00,96.87,1
127.00,101.30,1
80.00,105.97,1
80.00,109.05,1
247.00,111.80,1
127.00,116.03,1
53.00,119.99,1
142.00,122.11,1
176.00,123.93,1
71.00,125.88,1
109.00,126.73,1
56.00,126.02,1
65.00,123.69,1
89.00,120.09,1
49.00,115.80,1
121.00,111.25,1
91.00,107.27,1
41.00,103.55,1
59.00,99.21,1
78.00,94.58,1
56.00,90.18,1
123.00,86.44,1
70.00,83.81,1
58.00,81.71,1
40.00,79.26,1
65.00,76.45,1
93.00,73.96,1
49.00,72.11,1
90.00,70.64,1
163.00,70.43,1
45.00,71.76,1
52.00,72.93,1
133.00,73.74,1
117.00,75.51,1
98.00,78.22,1
152.00,81.53,1
35.00,84.97,1
68.00,87.16,1
279.00,89.67,1
127.00,94.84,1
131.00,101.14,1
37.00,106.11,1
82.00,108.73,1
169.00,110.17,1
49.00,111.50,1
66.00,111.58,1
127.00,110.48,1
58.00,109.11,1
71.00,107.06,1
47.00,104.00,1
38.00,99.91,1
82.00,95.18,1
55.00,90.57,1
79.00,86.30,1
51.00,82.39,1
213.00,79.95,1
146.00,80.65,1
127.00,83.74,1
82.00,87.31,1
191.00,91.13,1
333.00,97.63,1
193.00,108.04,1
119.00,119.34,1
38.00,127.85,1
122.00,132.69,1
100.00,135.13,1
259.00,137.31,1
90.00,140.28,1
70.00,142.10,1
83.00,141.35,1
127.00,139.11,1
40.00,135.92,1
142.00,131.87,1
74.00,127.73,1
44.00,123.11,1
103.00,117.72,1
116.00,112.76,1
37.00,108.34,1
80.00,103.61,1
83.00,98.91,1
223.00,95.94,1
100.00,95.73,1
70.00,96.48,1
148.00,97.07,1
92.00,98.09,1
97.00,99.18,1
219.00,100.90,1
124.00,104.31,1
35.00,107.61,1
37.00,108.46,1
74.00,107.01,1
105.00,104.76,1
64.00,102.46,1
124.00,100.27,1
233.00,99.82,1
60.00,101.55,1
108.00,103.32,1
149.00,104.77,1
43.00,106.11,1
37.00,105.86,1
64.00,103.64,1
45.00,100.25,1
111.00,96.54,1
120.00,93.73,1
93.00,92.17,1
90.00,91.22,1
133.00,90.83,1
120.00,91.48,1
103.00,92.88,1
48.00,93.97,1
146.00,94.53,1
194.00,96.26,1
252.00,100.86,1
41.00,107.13,1
128.00,112.18,1
289.00,117.15,1
76.00,123.55,1
162.00,129.31,1
41.00,133.05,1
33.00,133.77,1
81.00,131.40,1
71.00,127.45,1
49.00,122.47,1
173.00,117.45,1
37.00,113.33,1
102.00,109.34,1
53.00,105.10,1
140.00,101.28,1
40.00,98.12,1
241.00,96.29,1
108.00,96.94,1
160.00,99.33,1
62.00,101.93,1
145.00,104.08,1
64.00,105.70,1
44.00,106.04,1
128.00,105.11,1
120.00,104.39,1
292.00,105.84,1
118.00,110.27,1
75.00,114.97,1
75.00,117.57,1
231.00,119.42,1
245.00,123.36,1
98.00,129.06,1
74.00,133.38,1
54.00,134.71,1
77.00,133.36,1
191.00,131.21,1
72.00,129.62,1
189.00,128.47,1
301.00,129.57,1
156.00,133.96,1
54.00,138.40,1
60.00,139.86,1
106.00,138.66,1
41.00,135.71,1
78.00,131.19,1
77.00,125.67,1
53.00,119.66,1
54.00,113.09,1
58.00,106.15,1
65.00,99.31,1
106.00,93.26,1
206.00,89.55,1
196.00,89.67,1
38.00,92.08,1
90.00,93.86,1
43.00,94.27,1
121.00,93.91,1
100.00,93.71,1
60.00,93.61,1
45.00,92.62,1
71.00,90.63,1
82.00,88.33,1
63.00,86.13,1
100.00,84.15,1
55.00,82.50,1
48.00,80.64,1
105.00,78.67,1
86.00,77.43,1
70.00,76.79,1
112.00,76.57,1
70.00,76.88,1
149.00,77.89,1
198.00,80.78,1
53.00,85.25,1
73.00,88.94,1
39.00,90.77,1
135.00,91.51,1
77.00,92.25,1
83.00,92.83,1
238.00,94.17,1
61.00,97.22,1
38.00,99.61,1
38.00,99.57,1
48.00,97.56,1
124.00,94.94,1
114.00,93.21,1
110.00,92.63,1
72.00,92.49,1
64.00,91.95,1
53.00,90.60,1
54.00,88.41,1
36.00,85.45,1
212.00,83.17,1
83.00,83.22,1
73.00,84.24,1
80.00,84.78,1
48.00,84.70,1
142.00,84.47,1
173.00,85.66,1
129.00,88.86,1
84.00,92.62,1
81.00,95.53,1
72.00,97.22,1
97.00,97.96,1
47.00,97.86,1
148.00,97.35,1
152.00,97.86,1
64.00,99.28,1
55.00,99.84,1
97.00,99.21,1
118.00,98.48,1
84.00,98.12,1
145.00,98.16,1
40.00,98.38,1
126.00,98.19,1
83.00,97.89,1
109.00,97.75,1
132.00,97.99,1
81.00,98.68,1
42.00,98.71,1
41.00,97.16,1
102.00,94.64,1
145.00,92.82,1
56.00,92.08,1
108.00,91.49,1
45.00,90.63,1
78.00,89.26,1
37.00,87.24,1
246.00,86.10,1
60.00,87.29,1
47.00,88.72,1
156.00,89.44,1
90.00,90.74,1
226.00,93.39,1
85.00,97.49,1
36.00,100.95,1
176.00,102.99,1
64.00,104.87,1
35.00,105.62,1
72.00,104.39,1
128.00,102.54,1
100.00,101.29,1
73.00,100.30,1
191.00,99.85,1
100.00,100.81,1
96.00,102.23,1
106.00,103.23,1
56.00,103.57,1
40.00,102.54,1
42.00,99.81,1
62.00,95.94,1
45.00,91.57,1
41.00,86.81,1
43.00,81.71,1
85.00,76.88,1
148.00,73.65,1
58.00,72.40,1
39.00,71.55,1
98.00,70.48,1
135.00,70.39,1
224.00,72.93,1
99.00,78.10,1
40.00,83.26,1
45.00,86.27,1
54.00,87.21,1
42.00,86.66,1
46.00,84.88,1
154.00,83.10,1
225.00,83.81,1
66.00,87.14,1
48.00,90.14,1
52.00,91.20,1
133.00,91.33,1
104.00,91.90,1
117.00,93.09,1
63.00,94.23,1
49.00,94.39,1
75.00,93.34,1
76.00,91.73,1
64.00,89.88,1
79.00,87.84,1
81.00,85.89,1
60.00,84.05,1
142.00,82.71,1
100.00,82.63,1
51.00,83.10,1
94.00,83.15,1
41.00,82.75,1
69.00,81.72,1
52.00,80.15,1
124.00,78.76,1
69.00,78.16,1
139.00,78.44,1
67.00,79.48,1
144.00,81.09,1
90.00,83.31,1
78.00,85.57,1
105.00,87.36,1
44.00,88.58,1
60.00,88.66,1
195.00,88.76,1
61.00,90.14,1
35.00,91.12,1
76.00,90.55,1
127.00,89.73,1
88.00,89.60,1
56.00,89.50,1
119.00,89.11,1
140.00,89.46,1
93.00,90.84,1
61.00,92.08,1
77.00,92.38,1
43.00,91.69,1
63.00,89.99,1
37.00,87.41,1
88.00,84.42,1
143.00,82.30,1
59.00,81.55,1
51.00,80.86,1
65.00,79.52,1
94.00,78.15,1
36.00,76.92,1
82.00,75.48,1
79.00,74.21,1
100.00,73.59,1
101.00,73.83,1
40.00,74.40,1
107.00,74.76,1
36.00,74.95,1
73.00,74.70,1
91.00,74.30,1
40.00,73.97,1
87.00,73.41,1
137.00,73.45,1
65.00,74.59,1
68.00,75.75,1
96.00,76.59,1
50.00,77.25,1
129.00,77.89,1
58.00,78.83,1
37.00,79.25,1
68.00,78.60,1
98.00,77.75,1
127.00,77.77,1
189.00,79.69,1
102.00,83.54,1
50.00,87.38,1
41.00,89.41,1
144.00,90.27,1
67.00,91.22,1
73.00,91.82,1
44.00,91.37,1
112.00,90.25,1
151.00,89.89,1
115.00,91.01,1
48.00,92.42,1
66.00,92.71,1
68.00,91.92,1
39.00,90.25,1
104.00,88.07,1
137.00,86.67,1
51.00,86.28,1
45.00,85.48,1
53.00,83.65,1
64.00,81.27,1
48.00,78.65,1
150.00,76.63,1
158.00,76.74,1
85.00,78.84,1
124.00,81.57,1
90.00,84.45,1
95.00,87.14,1
124.00,89.64,1
106.00,92.30,1
62.00,94.55,1
52.00,95.46,1
57.00,94.83,1
99.00,93.41,1
45.00,91.71,1
39.00,89.27,1
90.00,86.23,1
42.00,83.21,1
111.00,80.53,1
36.00,78.30,1
77.00,76.17,1
51.00,74.02,1
47.00,71.81,1
63.00,69.46,1
48.00,67.21,1
99.00,65.41,1
68.00,64.48,1
229.00,65.48,1
64.00,68.95,1
100.00,73.07,1
84.00,76.67,1
44.00,79.44,1
82.00,81.02,1
272.00,83.51,1
185.00,89.36,1
104.00,97.03,1
112.00,103.82,1
72.00,108.85,1
95.00,111.98,1
208.00,114.53,1
80.00,117.56,1
83.00,119.71,1
35.00,119.66,1
61.00,117.41,1
96.00,113.90,1
287.00,111.94,1
167.00,113.66,1
130.00,117.40,1
56.00,120.35,1
149.00,121.84,1
42.00,122.21,1
86.00,121.08,1
80.00,118.63,1
67.00,115.43,1
82.00,111.62,1
178.00,108.42,1
63.00,106.53,1
92.00,104.86,1
181.00,103.65,1
80.00,103.74,1
56.00,103.65,1
103.00,102.60,1
78.00,101.22,1
91.00,99.71,1
71.00,98.01,1
158.00,96.70,1
108.00,96.62,1
166.00,97.83,1
76.00,99.79,1
94.00,101.39,1
74.00,102.04,1
36.00,101.43,1
127.00,99.87,1
84.00,98.47,1
56.00,97.05,1
110.00,95.29,1
51.00,93.50,1
51.00,91.22,1
116.00,88.70,1
127.00,87.24,1
39.00,86.63,1
92.00,85.75,1
74.00,84.70,1
57.00,83.56,1
138.00,82.62,1
197.00,83.56,1
87.00,86.61,1
130.00,90.22,1
97.00,93.65,1
71.00,96.42,1
61.00,97.80,1
135.00,98.33,1
84.00,98.91,1
135.00,99.70,1
57.00,100.40,1
76.00,100.30,1
206.00,100.34,1
61.00,101.60,1
102.00,102.76,1
104.00,103.29,1
39.00,103.16,1
87.00,101.88,1
80.00,99.95,1
84.00,97.91,1
79.00,95.83,1
141.00,94.24,1
80.00,93.57,1
39.00,92.78,1
186.00,91.95,1
80.00,92.34,1
105.00,93.32,1
98.00,94.19,1
123.00,95.23,1
279.00,98.07,1
49.00,103.03,1
184.00,108.03,1
207.00,113.44,1
82.00,119.42,1
101.00,123.91,1
212.00,127.32,1
39.00,130.37,1
154.00,132.03,1
152.00,133.06,1
273.00,135.47,1
79.00,139.28,1
113.00,142.05,1
81.00,142.62,1
188.00,142.16,1
89.00,141.62,1
86.00,140.26,1
64.00,137.27,1
50.00,132.62,1
60.00,126.55,1
146.00,120.37,1
212.00,116.36,1
76.00,114.81,1
326.00,115.54,1
63.00,118.84,1
173.00,122.58,1
51.00,125.17,1
219.00,127.09,1
38.00,128.69,1
61.00,128.60,1
55.00,126.04,1
72.00,121.92,1
68.00,116.96,1
64.00,111.56,1
84.00,106.08,1
200.00,101.99,1
328.00,102.26,1
94.00,107.00,1
75.00,111.95,1
76.00,114.65,1
62.00,115.28,1
42.00,113.95,1
216.00,112.17,1
240.00,113.02,1
46.00,116.09,1
90.00,118.06,1
39.00,117.84,1
69.00,115.69,1
44.00,112.06,1
80.00,107.55,1
102.00,103.09,1
85.00,99.34,1
66.00,96.01,1
130.00,93.17,1
49.00,91.03,1
81.00,88.95,1
96.00,86.96,1
44.00,85.20,1
77.00,83.20,1
134.00,81.67,1
55.00,81.12,1
127.00,81.09,1
48.00,81.34,1
79.00,81.33,1
52.00,80.77,1
64.00,79.70,1
68.00,78.30,1
125.00,77.34,1
127.00,77.73,1
68.00,79.16,1
126.00,80.84,1
40.00,82.43,1
72.00,83.20,1
69.00,83.12,1
35.00,82.34,1
75.00,80.79,1
47.00,78.85,1
61.00,76.67,1
92.00,74.63,1
91.00,73.40,1
70.00,72.87,1
99.00,72.80,1
80.00,73.22,1
70.00,73.83,1
70.00,74.26,1
74.00,74.47,1
73.00,74.57,1
85.00,74.70,1
171.00,75.77,1
80.00,78.26,1
163.00,81.64,1
55.00,85.34,1
36.00,87.88,1
44.00,88.31,1
73.00,87.32,1
64.00,85.78,1
66.00,83.98,1
96.00,82.25,1
106.00,81.23,1
80.00,80.98,1
73.00,80.92,1
41.00,80.39,1
41.00,78.95,1
95.00,77.05,1
144.00,76.17,1
152.00,77.40,1
47.00,79.88,1
263.00,83.34,1
99.00,88.77,1
45.00,94.14,1
132.00,97.75,1
90.00,100.56,1
127.00,103.00,1
68.00,104.85,1
158.00,106.27,1
252.00,109.10,1
114.00,114.03,1
77.00,118.62,1
38.00,120.72,1
134.00,120.70,1
58.00,119.69,1
53.00,117.47,1
129.00,114.32,1
54.00,111.15,1
532.00,111.44,1
112.00,118.17,1
290.00,128.04,1
36.00,137.33,1
227.00,144.71,1
52.00,150.01,1
208.00,153.52,1
65.00,155.51,1
153.00,155.95,1
127.00,155.24,1
61.00,153.42,1
63.00,149.53,1
210.00,144.90,1
108.00,141.49,1
80.00,138.40,1
100.00,134.52,1
214.00,131.21,1
72.00,129.31,1
138.00,127.69,1
188.00,126.68,1
96.00,126.76,1
44.00,126.14,1
59.00,123.48,1
100.00,119.54,1
40.00,115.07,1
44.00,109.69,1
112.00,103.96,1
256.00,100.51,1
44.00,100.13,1
61.00,99.88,1
176.00,99.20,1
109.00,99.74,1
92.00,100.87,1
64.00,101.34,1
69.00,100.73,1
61.00,99.10,1
42.00,96.50,1
197.00,94.16,1
37.00,93.20,1
177.00,93.09,1
154.00,94.43,1
94.00,97.15,1
84.00,99.51,1
102.00,101.03,1
69.00,101.78,1
52.00,101.39,1
130.00,100.24,1
128.00,99.70,1
51.00,99.60,1
70.00,98.71,1
75.00,96.95,1
83.00,94.92,1
75.00,92.84,1
37.00,90.41,1
165.00,88.17,1
68.00,87.15,1
57.00,86.45,1
59.00,85.05,1
40.00,82.96,1
63.00,80.31,1
58.00,77.48,1
105.00,75.12,1
53.00,73.49,1
47.00,71.95,1
50.00,70.03,1
63.00,67.99,1
37.00,65.95,1
87.00,64.08,1
76.00,62.90,1
108.00,62.80,1
58.00,63.56,1
53.00,64.32,1
134.00,65.24,1
111.00,67.35,1
67.00,70.24,1
56.00,72.59,1
114.00,74.40,1
45.00,76.03,1
145.00,77.65,1
71.00,79.66,1
75.00,81.55,1
62.00,82.63,1
69.00,82.93,1
35.00,82.36,1
78.00,80.98,1
87.00,79.55,1
58.00,78.40,1
85.00,77.31,1
57.00,76.28,1
36.00,74.92,1
73.00,73.07,1
38.00,71.07,1
60.00,68.92,1
39.00,66.62,1
52.00,64.25,1
41.00,61.84,1
45.00,59.44,1
52.00,57.16,1
176.00,56.23,1
102.00,57.88,1
120.00,61.37,1
122.00,65.81,1
103.00,70.89,1
77.00,75.76,1
52.00,79.50,1
58.00,81.67,1
96.00,82.81,1
282.00,85.32,1
72.00,90.45,1
214.00,96.66,1
36.00,102.62,1
46.00,106.49,1
58.00,107.42,1
36.00,106.21,1
58.00,103.32,1
61.00,99.43,1
107.00,95.56,1
128.00,92.79,1
175.00,92.08,1
76.00,93.08,1
56.00,93.93,1
137.00,94.15,1
38.00,94.24,1
164.00,94.32,1
113.00,95.22,1
76.00,96.61,1
48.00,97.06,1
53.00,96.05,1
136.00,94.50,1
151.00,94.13,1
71.00,94.95,1
80.00,95.52,1
39.00,95.02,1
85.00,93.51,1
197.00,92.63,1
52.00,93.29,1
164.00,94.56,1
47.00,95.92,1
120.00,96.91,1
115.00,97.78,1
44.00,98.46,1
62.00,97.89,1
77.00,96.25,1
167.00,94.98,1
43.00,94.65,1
72.00,93.95,1
33.00,92.12,1
170.00,90.23,1
86.00,89.61,1
114.00,89.94,1
144.00,91.01,1
65.00,92.68,1
163.00,94.50,1
50.00,96.41,1
76.00,97.47,1
48.00,97.11,1
48.00,95.43,1
313.00,94.78,1
101.00,97.59,1
42.00,101.12,1
91.00,102.73,1
164.00,103.77,1
76.00,105.23,1
125.00,106.51,1
54.00,107.10,1
64.00,106.46,1
68.00,104.50,1
56.00,101.68,1
82.00,98.33,1
157.00,95.66,1
227.00,95.63,1
106.00,98.40,1
70.00,101.46,1
40.00,102.78,1
128.00,102.67,1
141.00,102.81,1
80.00,103.57,1
83.00,103.89,1
58.00,103.21,1
44.00,101.28,1
96.00,98.47,1
100.00,95.85,1
89.00,93.88,1
67.00,92.13,1
80.00,90.26,1
40.00,88.05,1
85.00,85.49,1
186.00,83.98,1
66.00,84.42,1
204.00,86.28,1
158.00,90.09,1
82.00,94.97,1
89.00,98.94,1
38.00,101.14,1
68.00,101.41,1
41.00,100.03,1
62.00,97.43,1
93.00,94.36,1
71.00,91.54,1
80.00,88.97,1
65.00,86.53,1
61.00,84.05,1
86.00,81.64,1
54.00,79.49,1
100.00,77.65,1
130.00,76.86,1
132.00,77.80,1
111.00,80.14,1
62.00,82.72,1
85.00,84.58,1
71.00,85.69,1
208.00,87.29,1
127.00,90.70,1
84.00,94.80,1
100.00,98.05,1
80.00,100.28,1
63.00,101.32,1
168.00,101.85,1
49.00,102.59,1
104.00,102.82,1
163.00,103.06,1
42.00,103.74,1
69.00,103.45,1
151.00,102.54,1
122.00,102.53,1
59.00,102.89,1
55.00,102.19,1
60.00,100.16,1
109.00,97.65,1
41.00,95.14,1
96.00,92.46,1
47.00,89.68,1
57.00,86.65,1
52.00,83.23,1
113.00,80.14,1
43.00,77.80,1
120.00,76.08,1
44.00,74.97,1
37.00,73.67,1
80.00,71.88,1
59.00,70.26,1
116.00,69.31,1
51.00,69.12,1
165.00,69.86,1
218.00,73.05,1
128.00,79.10,1
85.00,85.72,1
57.00,90.86,1
74.00,94.01,1
117.00,95.95,1
79.00,97.44,1
39.00,97.95,1
72.00,96.97,1
42.00,94.87,1
86.00,92.14,1
105.00,89.65,1
70.00,87.82,1
93.00,86.32,1
138.00,85.58,1
82.00,85.93,1
78.00,86.49,1
80.00,86.69,1
88.00,86.67,1
218.00,87.72,1
92.00,90.70,1
72.00,93.89,1
136.00,96.28,1
193.00,99.35,1
104.00,103.58,1
160.00,108.02,1
60.00,111.83,1
102.00,114.18,1
66.00,114.91,1
44.00,113.94,1
108.00,111.60,1
108.00,109.18,1
108.00,107.30,1
163.00,106.35,1
69.00,106.28,1
69.00,105.75,1
48.00,103.96,1
39.00,100.83,1
38.00,96.46,1
69.00,91.46,1
151.00,87.35,1
248.00,86.49,1
78.00,89.00,1
81.00,91.96,1
133.00,94.26,1
143.00,96.94,1
106.00,100.11,1
183.00,103.67,1
83.00,107.53,1
37.00,110.10,1
309.00,112.27,1
81.00,116.30,1
44.00,119.78,1
84.00,120.54,1
136.00,120.00,1
232.00,120.48,1
101.00,122.66,1
73.00,124.45,1
118.00,124.69,1
133.00,124.41,1
41.00,123.59,1
111.00,121.56,1
80.00,118.83,1
68.00,115.61,1
142.00,112.30,1
39.00,109.30,1
64.00,105.75,1
53.00,101.36,1
133.00,97.17,1
50.00,93.83,1
79.00,90.77,1
145.00,88.37,1
80.00,87.34,1
142.00,87.37,1
156.00,88.82,1
35.00,91.03,1
118.00,92.55,1
191.00,94.46,1
55.00,97.39,1
102.00,99.74,1
60.00,100.85,1
136.00,101.32,1
146.00,102.28,1
104.00,104.02,1
95.00,105.62,1
168.00,107.16,1
138.00,109.50,1
78.00,111.97,1
122.00,113.59,1
74.00,114.33,1
104.00,114.20,1
75.00,113.27,1
152.00,112.18,1
54.00,111.21,1
96.00,109.75,1
127.00,108.08,1
101.00,106.98,1
158.00,106.62,1
80.00,106.95,1
170.00,107.69,1
177.00,109.64,1
181.00,113.33,1
51.00,117.27,1
41.00,119.06,1
81.00,118.21,1
146.00,116.54,1
99.00,115.32,1
69.00,114.00,1
100.00,112.00,1
89.00,109.74,1
160.00,108.01,1
51.00,106.93,1
92.00,105.50,1
39.00,103.18,1
273.00,101.68,1
87.00,102.75,1
40.00,104.19,1
61.00,103.72,1
104.00,102.13,1
83.00,100.46,1
358.00,101.09,1
110.00,105.75,1
41.00,110.92,1
105.00,113.62,1
154.00,115.25,1
199.00,117.75,1
202.00,122.00,1
36.00,126.48,1
148.00,129.19,1
162.00,131.05,1
134.00,133.15,1
187.00,135.44,1
127.00,137.97,1
574.00,143.73,1
44.00,154.22,1
356.00,165.52,1
89.00,175.62,1
73.00,182.51,1
228.00,185.52,1
178.00,187.52,1
241.00,189.66,1
104.00,191.33,1
48.00,190.35,1
65.00,185.51,1
124.00,178.17,1
48.00,169.66,1
301.00,161.90,1
332.00,158.73,1
88.00,159.78,1
141.00,160.66,1
560.00,163.72,1
125.00,172.09,1
60.00,179.96,1
113.00,182.93,1
200.00,183.16,1
96.00,182.29,1
42.00,179.18,1
161.00,173.72,1
171.00,168.25,1
69.00,163.25,1
164.00,157.97,1
172.00,153.44,1
74.00,149.73,1
302.00,147.11,1
42.00,146.21,1
116.00,144.84,1
108.00,142.16,1
272.00,140.42,1
183.00,141.39,1
97.00,143.53,1
65.00,144.06,1
99.00,142.37,1
61.00,139.05,1
152.00,135.02,1
39.00,130.82,1
128.00,126.26,1
71.00,121.64,1
124.00,117.37,1
75.00,113.49,1
89.00,109.80,1
56.00,105.91,1
118.00,102.09,1
114.00,99.16,1
41.00,96.86,1
87.00,94.24,1
62.00,91.42,1
71.00,88.59,1
80.00,85.85,1
124.00,83.87,1
196.00,83.94,1
98.00,86.29,1
234.00,90.42,1
54.00,95.70,1
170.00,100.78,1
72.00,105.16,1
48.00,108.00,1
104.00,108.83,1
132.00,109.07,1
57.00,109.16,1
114.00,108.60,1
66.00,107.48,1
40.00,105.42,1
271.00,103.82,1
110.00,104.90,1
71.00,106.91,1
126.00,108.03,1
47.00,108.36,1
91.00,107.60,1
102.00,106.19,1
108.00,104.94,1
45.00,103.52,1
92.00,101.40,1
102.00,99.18,1
170.00,98.07,1
83.00,98.32,1
74.00,98.65,1
96.00,98.34,1
65.00,97.59,1
72.00,96.25,1
37.00,94.08,1
271.00,92.77,1
118.00,94.48,1
57.00,97.32,1
48.00,98.56,1
294.00,99.93,1
129.00,104.01,1
111.00,109.16,1
66.00,112.90,1
67.00,114.58,1
68.00,114.26,1
94.00,112.69,1
106.00,110.76,1
106.00,109.04,1
104.00,107.61,1
65.00,106.10,1
60.00,103.86,1
76.00,100.87,1
97.00,97.81,1
122.00,95.50,1
164.00,94.77,1
43.00,95.17,1
107.00,95.27,1
92.00,95.08,1
43.00,94.55,1
88.00,93.20,1
105.00,91.77,1
55.00,90.57,1
231.00,90.36,1
54.00,91.95,1
146.00,94.15,1
97.00,96.37,1
47.00,98.06,1
132.00,98.77,1
199.00,100.27,1
36.00,102.78,1
113.00,104.45,1
45.00,104.79,1
90.00,104.00,1
37.00,102.10,1
185.00,100.17,1
82.00,99.43,1
58.00,98.95,1
60.00,97.45,1
122.00,95.56,1
55.00,93.93,1
153.00,92.77,1
148.00,93.04,1
77.00,94.53,1
54.00,95.47,1
86.00,95.28,1
150.00,95.09,1
132.00,96.10,1
105.00,97.99,1
165.00,100.38,1
46.00,102.86,1
40.00,103.79,1
44.00,102.44,1
38.00,99.38,1
160.00,96.08,1
128.00,94.42,1
37.00,93.80,1
44.00,92.25,1
56.00,89.51,1
90.00,86.49,1
124.00,84.32,1
120.00,83.67,1
93.00,84.19,1
65.00,84.88,1
180.00,85.93,1
51.00,87.83,1
50.00,89.11,1
50.00,88.80,1
155.00,88.15,1
116.00,88.67,1
130.00,90.43,1
95.00,92.68,1
252.00,96.06,1
92.00,101.17,1
159.00,106.64,1
83.00,111.34,1
113.00,114.86,1
49.00,116.68,1
169.00,117.34,1
83.00,117.85,1
48.00,117.49,1
68.00,115.38,1
37.00,111.78,1
60.00,107.01,1
49.00,101.54,1
154.00,96.61,1
142.00,93.79,1
43.00,92.55,1
99.00,91.25,1
67.00,89.79,1
52.00,88.06,1
104.00,86.12,1
154.00,85.21,1
143.00,86.32,1
102.00,88.79,1
82.00,91.28,1
77.00,92.99,1
106.00,94.03,1
70.00,94.68,1
97.00,94.88,1
60.00,94.56,1
101.00,93.82,1
56.00,92.79,1
76.00,91.31,1
140.00,90.05,1
43.00,89.42,1
83.00,88.53,1
106.00,87.53,1
48.00,86.72,1
44.00,85.25,1
127.00,83.49,1
104.00,82.73,1
225.00,84.07,1
74.00,87.52,1
76.00,90.96,1
74.00,93.04,1
240.00,95.38,1
45.00,98.96,1
83.00,101.83,1
74.00,102.98,1
157.00,103.66,1
155.00,105.25,1
64.00,107.37,1
114.00,108.71,1
193.00,110.14,1
261.00,113.89,1
74.00,119.50,1
112.00,124.12,1
63.00,126.51,1
122.00,127.12,1
141.00,127.09,1
75.00,126.82,1
349.00,127.74,1
78.00,131.27,1
50.00,134.21,1
95.00,134.21,1
71.00,132.34,1
40.00,128.81,1
39.00,123.39,1
96.00,116.96,1
97.00,110.93,1
47.00,105.46,1
45.00,99.76,1
49.00,93.68,1
134.00,88.24,1
97.00,84.62,1
54.00,82.24,1
115.00,80.36,1
67.00,79.17,1
60.00,78.21,1
115.00,77.39,1
84.00,77.31,1
152.00,78.28,1
142.00,80.81,1
112.00,84.61,1
58.00,88.21,1
191.00,91.49,1
71.00,95.19,1
120.00,98.60,1
48.00,100.91,1
66.00,101.65,1
63.00,100.86,1
74.00,99.13,1
49.00,96.68,1
139.00,94.20,1
35.00,92.19,1
113.00,90.27,1
199.00,89.65,1
127.00,91.49,1
58.00,94.09,1
162.00,96.30,1
57.00,98.42,1
124.00,100.08,1
269.00,102.78,1
65.00,107.46,1
129.00,111.83,1
104.00,114.98,1
175.00,117.81,1
68.00,120.37,1
49.00,121.31,1
80.00,120.03,1
84.00,117.49,1
69.00,114.29,1
100.00,110.73,1
74.00,107.20,1
329.00,105.72,1
57.00,107.67,1
134.00,110.35,1
47.00,111.82,1
274.00,113.39,1
35.00,116.03,1
300.00,119.53,1
107.00,124.36,1
134.00,129.28,1
42.00,132.19,1
163.00,133.19,1
142.00,133.75,1
146.00,134.66,1
97.00,135.28,1
63.00,134.60,1
155.00,132.76,1
61.00,130.55,1
60.00,127.33,1
73.00,122.77,1
177.00,118.41,1
49.00,115.12,1
153.00,112.35,1
43.00,109.82,1
326.00,108.95,1
97.00,111.30,1
174.00,115.14,1
78.00,118.58,1
191.00,121.58,1
42.00,123.98,1
317.00,126.61,1
49.00,130.43,1
177.00,133.92,1
62.00,135.98,1
224.00,137.38,1
44.00,138.48,1
252.00,139.40,1
41.00,140.36,1
183.00,140.72,1
99.00,140.53,1
146.00,140.08,1
41.00,138.68,1
60.00,135.43,1
380.00,132.95,1
89.00,134.21,1
80.00,136.01,1
51.00,135.35,1
142.00,133.03,1
166.00,131.00,1
148.00,130.27,1
220.00,131.08,1
456.00,136.02,1
288.00,146.97,1
68.00,159.54,1
46.00,167.70,1
232.00,171.62,1
64.00,173.67,1
97.00,173.23,1
310.00,171.87,1
131.00,172.16,1
49.00,171.82,1
194.00,169.37,1
117.00,166.48,1
260.00,164.46,1
109.00,163.67,1
155.00,162.89,1
97.00,161.16,1
45.00,157.76,1
117.00,152.46,1
115.00,146.65,1
205.00,141.95,1
43.00,138.39,1
85.00,134.21,1
107.00,129.22,1
84.00,124.32,1
198.00,120.40,1
76.00,118.05,1
94.00,116.03,1
96.00,113.62,1
181.00,111.91,1
181.00,112.20,1
39.00,113.53,1
50.00,113.32,1
59.00,111.04,1
53.00,107.46,1
172.00,103.96,1
154.00,102.43,1
198.00,103.49,1
66.00,106.00,1
178.00,108.60,1
301.00,112.97,1
141.00,120.22,1
86.00,127.29,1
145.00,132.23,1
36.00,135.00,1
280.00,136.75,1
114.00,139.43,1
81.00,141.73,1
162.00,142.42,1
76.00,142.20,1
109.00,140.81,1
156.00,138.82,1
102.00,137.04,1
58.00,134.60,1
43.00,130.44,1
57.00,124.65,1
194.00,119.02,1
109.00,115.40,1
91.00,112.99,1
127.00,110.88,1
60.00,108.96,1
48.00,106.33,1
91.00,102.86,1
60.00,99.21,1
190.00,96.47,1
109.00,95.74,1
127.00,96.44,1
247.00,98.85,1
120.00,103.53,1
75.00,108.31,1
82.00,111.26,1
38.00,112.10,1
103.00,111.19,1
112.00,109.75,1
51.00,108.15,1
109.00,106.03,1
79.00,103.78,1
60.00,101.34,1
87.00,98.50,1
69.00,95.59,1
47.00,92.46,1
159.00,89.68,1
53.00,88.08,1
39.00,86.46,1
66.00,84.00,1
115.00,81.71,1
184.00,81.26,1
81.00,82.91,1
171.00,85.69,1
224.00,90.34,1
172.00,97.42,1
87.00,105.00,1
139.00,111.29,1
61.00,115.92,1
183.00,119.26,1
88.00,122.12,1
54.00,123.67,1
39.00,122.69,1
166.00,120.35,1
237.00,119.64,1
101.00,121.28,1
54.00,122.59,1
310.00,123.83,1
96.00,127.05,1
188.00,131.00,1
45.00,133.94,1
45.00,134.41,1
49.00,131.83,1
44.00,127.02,1
74.00,120.91,1
126.00,114.90,1
87.00,109.95,1
124.00,106.05,1
164.00,103.72,1
198.00,103.91,1
228.00,107.17,1
108.00,112.41,1
186.00,117.90,1
49.00,122.54,1
214.00,126.13,1
61.00,129.13,1
174.00,131.36,1
142.00,133.26,1
167.00,135.46,1
136.00,137.72,1
200.00,140.17,1
55.00,142.28,1
240.00,143.72,1
60.00,144.97,1
203.00,145.79,1
53.00,145.87,1
68.00,144.23,1
127.00,140.82,1
94.00,137.01,1
160.00,133.51,1
110.00,130.76,1
115.00,128.45,1
132.00,126.34,1
76.00,124.33,1
132.00,122.12,1
41.00,119.54,1
59.00,115.87,1
214.00,112.34,1
277.00,112.29,1
360.00,117.89,1
80.00,127.13,1
83.00,134.94,1
51.00,138.84,1
115.00,139.68,1
128.00,139.06,1
152.00,138.31,1
312.00,139.34,1
67.00,142.49,1
54.00,144.32,1
127.00,143.44,1
78.00,141.22,1
127.00,138.23,1
60.00,134.64,1
35.00,129.77,1
147.00,124.05,1
191.00,119.90,1
85.00,117.86,1
111.00,116.32,1
44.00,114.19,1
56.00,110.91,1
107.00,106.91,1
74.00,103.18,1
42.00,99.39,1
87.00,95.24,1
92.00,91.48,1
40.00,88.17,1
37.00,84.47,1
56.00,80.26,1
104.00,76.49,1
193.00,74.89,1
160.00,76.62,1
149.00,80.88,1
148.00,86.45,1
138.00,92.66,1
109.00,98.72,1
181.00,104.51,1
56.00,109.81,1
141.00,113.79,1
97.00,116.65,1
153.00,118.99,1
43.00,120.53,1
277.00,121.98,1
223.00,125.85,1
101.00,131.46,1
68.00,135.46,1
49.00,136.36,1
87.00,134.60,1
40.00,130.97,1
146.00,126.46,1
59.00,122.08,1
378.00,120.03,1
48.00,121.62,1
138.00,123.87,1
130.00,125.24,1
131.00,126.50,1
72.00,127.11,1
239.00,127.62,1
152.00,129.59,1
97.00,132.10,1
67.00,133.05,1
123.00,132.30,1
88.00,130.67,1
147.00,128.80,1
142.00,127.44,1
154.00,127.04,1
47.00,126.65,1
286.00,126.57,1
48.00,127.85,1
96.00,128.54,1
44.00,127.14,1
127.00,124.44,1
62.00,121.25,1
91.00,117.63,1
64.00,113.54,1
115.00,109.44,1
110.00,106.05,1
55.00,103.19,1
89.00,100.15,1
48.00,96.84,1
249.00,94.70,1
69.00,95.06,1
97.00,96.20,1
157.00,97.36,1
65.00,98.96,1
80.00,99.93,1
41.00,99.57,1
50.00,97.74,1
149.00,95.52,1
117.00,94.52,1
56.00,94.27,1
130.00,93.92,1
102.00,94.01,1
80.00,94.40,1
40.00,94.05,1
42.00,92.33,1
88.00,89.72,1
57.00,87.04,1
77.00,84.43,1
90.00,82.14,1
91.00,80.56,1
62.00,79.46,1
101.00,78.61,1
147.00,78.78,1
121.00,80.57,1
38.00,82.80,1
160.00,84.71,1
138.00,87.46,1
92.00,91.04,1
120.00,94.40,1
146.00,97.79,1
170.00,101.94,1
247.00,107.81,1
74.00,114.80,1
57.00,120.05,1
270.00,123.84,1
173.00,129.02,1
90.00,134.51,1
64.00,137.65,1
188.00,138.86,1
370.00,141.88,1
97.00,148.01,1
139.00,153.58,1
80.00,156.50,1
60.00,156.50,1
246.00,154.99,1
156.00,154.57,1
95.00,154.54,1
316.00,154.89,1
178.00,157.52,1
79.00,160.53,1
224.00,162.11,1
102.00,163.15,1
169.00,163.48,1
383.00,165.15,1
336.00,171.52,1
244.00,181.42,1
112.00,190.69,1
42.00,195.64,1
929.00,202.22,1
436.00,220.06,1
548.00,245.80,1
138.00,271.04,1
64.00,288.54,1
358.00,297.44,1
120.00,301.84,1
634.00,305.38,1
242.00,311.47,1
43.00,315.39,1
113.00,311.50,1
108.00,301.34,1
68.00,286.90,1
122.00,269.42,1
140.00,250.92,1
311.00,234.45,1
190.00,222.06,1
37.00,211.32,1
162.00,199.68,1
101.00,188.05,1
342.00,178.83,1
206.00,174.13,1
193.00,172.64,1
72.00,171.29,1
72.00,167.98,1
77.00,162.33,1
258.00,156.65,1
249.00,154.12,1
174.00,154.81,1
146.00,156.36,1
146.00,157.43,1
106.00,157.53,1
48.00,155.76,1
51.00,151.36,1
464.00,148.09,1
100.00,149.65,1
187.00,152.94,1
76.00,154.94,1
197.00,155.76,1
95.00,155.89,1
112.00,154.96,1
105.00,152.62,1
43.00,148.79,1
90.00,143.27,1
62.00,136.69,1
36.00,129.24,1
120.00,121.39,1
135.00,114.82,1
108.00,110.13,1
271.00,108.09,1
52.00,108.78,1
163.00,110.16,1
127.00,111.74,1
128.00,113.74,1
48.00,115.07,1
179.00,115.61,1
139.00,116.71,1
276.00,119.75,1
166.00,125.17,1
95.00,130.98,1
50.00,134.40,1
82.00,134.83,1
70.00,133.02,1
109.00,129.99,1
123.00,126.78,1
99.00,123.90,1
106.00,121.14,1
37.00,117.91,1
41.00,113.36,1
46.00,107.51,1
37.00,100.91,1
69.00,94.11,1
47.00,87.67,1
69.00,81.79,1
127.00,77.20,1
42.00,74.19,1
43.00,71.55,1
55.00,68.69,1
86.00,66.23,1
59.00,64.53,1
193.00,64.39,1
87.00,66.59,1
171.00,70.51,1
62.00,75.22,1
102.00,79.60,1
85.00,83.19,1
237.00,87.39,1
265.00,94.53,1
92.00,103.93,1
139.00,112.49,1
47.00,118.73,1
140.00,122.62,1
196.00,125.85,1
146.00,129.75,1
106.00,133.34,1
74.00,135.23,1
172.00,135.71,1
82.00,135.72,1
74.00,134.62,1
59.00,131.72,1
37.00,127.02,1
432.00,123.92,1
470.00,128.81,1
258.00,141.94,1
145.00,156.61,1
157.00,168.40,1
431.00,179.17,1
220.00,191.67,1
428.00,205.60,1
49.00,218.69,1
441.00,229.40,1
342.00,240.47,1
103.00,251.09,1
100.00,256.20,1
404.00,257.46,1
75.00,258.03,1
167.00,255.86,1
464.00,252.97,1
166.00,252.82,1
229.00,252.83,1
110.00,250.53,1
206.00,245.92,1
320.00,241.24,1
372.00,239.78,1
95.00,240.31,1
474.00,241.34,1
297.00,245.28,1
425.00,252.53,1
247.00,261.22,1
863.00,273.96,1
166.00,292.28,1
101.00,307.25,1
411.00,314.85,1
472.00,321.75,1
141.00,328.72,1
267.00,331.55,1
154.00,329.60,1
40.00,322.27,1
600.00,312.88,1
58.00,306.14,1
153.00,298.07,1
1023.00,293.59,1
216.00,300.52,1
131.00,308.95,1
68.00,309.63,1
185.00,303.59,1
496.00,296.67,1
137.00,292.48,1
196.00,287.59,1
54.00,279.19,1
92.00,266.81,1
150.00,251.75,1
90.00,235.93,1
54.00,219.28,1
94.00,201.73,1
51.00,184.14,1
110.00,167.21,1
98.00,151.86,1
79.00,138.36,1
70.00,126.21,1
69.00,115.19,1
165.00,106.08,1
142.00,100.11,1
144.00,97.20,1
208.00,97.06,1
168.00,99.75,1
99.00,103.82,1
132.00,107.59,1
124.00,110.93,1
98.00,113.75,1
72.00,115.37,1
160.00,116.10,1
178.00,117.53,1
391.00,122.30,1
358.00,132.81,1
190.00,147.16,1
110.00,160.21,1
74.00,168.80,1
371.00,174.93,1
148.00,181.80,1
220.00,188.34,1
196.00,193.56,1
167.00,197.56,1
120.00,199.45,1
148.00,198.85,1
124.00,196.25,1
168.00,192.43,1
354.00,189.91,1
322.00,191.64,1
174.00,196.29,1
366.00,201.91,1
115.00,207.96,1
376.00,213.71,1
70.00,218.76,1
178.00,221.09,1
77.00,219.67,1
429.00,217.62,1
184.00,218.11,1
126.00,218.90,1
103.00,216.69,1
309.00,213.14,1
57.00,209.83,1
113.00,204.81,1
166.00,197.92,1
106.00,190.67,1
92.00,182.74,1
148.00,174.29,1
156.00,166.59,1
126.00,160.08,1
80.00,153.87,1
90.00,147.15,1
70.00,139.89,1
48.00,132.04,1
460.00,126.89,1
406.00,130.11,1
235.00,140.71,1
127.00,152.42,1
77.00,160.95,1
419.00,167.90,1
75.00,175.82,1
54.00,181.15,1
280.00,183.02,1
303.00,185.97,1
199.00,191.06,1
191.00,195.99,1
270.00,200.29,1
318.00,205.61,1
135.00,211.47,1
123.00,214.83,1
334.00,216.18,1
303.00,219.13,1
206.00,223.61,1
74.00,226.14,1
91.00,224.22,1
119.00,218.46,1
40.00,209.93,1
188.00,199.66,1
193.00,190.28,1
284.00,183.96,1
38.00,179.69,1
186.00,175.01,1
138.00,170.20,1
112.00,165.66,1
37.00,160.01,1
163.00,153.30,1
213.00,147.90,1
204.00,145.49,1
49.00,144.38,1
247.00,143.30,1
132.00,143.34,1
97.00,143.65,1
36.00,142.13,1
360.00,140.64,1
158.00,142.41,1
66.00,145.18,1
64.00,145.38,1
235.00,144.27,1
73.00,143.67,1
58.00,142.10,1
184.00,139.28,1
47.00,136.44,1
131.00,133.14,1
44.00,129.14,1
74.00,124.25,1
233.00,119.93,1
73.00,117.78,1
120.00,116.37,1
104.00,114.90,1
38.00,113.00,1
147.00,110.52,1
237.00,109.68,1
109.00,111.45,1
56.00,113.33,1
41.00,113.16,1
106.00,111.30,1
286.00,110.68,1
124.00,113.19,1
66.00,116.32,1
36.00,117.25,1
159.00,116.54,1
167.00,116.45,1
98.00,117.42,1
176.00,118.73,1
198.00,121.16,1
132.00,124.82,1
123.00,128.31,1
196.00,131.47,1
70.00,134.37,1
363.00,137.90,1
45.00,142.98,1
149.00,147.09,1
74.00,148.77,1
108.00,148.48,1
81.00,146.40,1
57.00,142.68,1
42.00,137.10,1
51.00,129.91,1
115.00,122.27,1
93.00,115.52,1
73.00,109.66,1
141.00,104.73,1
128.00,101.52,1
113.00,99.93,1
85.00,99.05,1
211.00,99.20,1
140.00,101.37,1
42.00,104.09,1
127.00,105.60,1
80.00,106.37,1
176.00,107.26,1
116.00,108.94,1
213.00,111.74,1
441.00,118.33,1
171.00,129.97,1
106.00,141.87,1
64.00,149.91,1
103.00,153.81,1
129.00,154.99,1
39.00,154.05,1
50.00,150.36,1
42.00,144.05,1
43.00,135.93,1
97.00,127.13,1
101.00,119.03,1
116.00,112.37,1
81.00,107.01,1
122.00,102.72,1
389.00,101.98,1
41.00,105.84,1
137.00,110.33,1
326.00,115.39,1
183.00,123.46,1
104.00,132.11,1
71.00,138.12,1
37.00,140.44,1
190.00,140.28,1
36.00,139.25,1
81.00,136.71,1
35.00,132.14,1
65.00,126.08,1
110.00,119.58,1
93.00,113.81,1
118.00,109.09,1
84.00,105.31,1
126.00,102.37,1
59.00,100.01,1
163.00,98.28,1
74.00,97.53,1
57.00,96.77,1
97.00,95.35,1
100.00,94.02,1
61.00,92.86,1
42.00,91.08,1
130.00,88.99,1
65.00,87.49,1
78.00,86.26,1
72.00,84.88,1
59.00,83.36,1
94.00,81.79,1
78.00,80.58,1
130.00,80.14,1
147.00,81.18,1
153.00,84.05,1
45.00,87.59,1
116.00,90.35,1
158.00,93.05,1
387.00,98.84,1
176.00,109.14,1
54.00,119.92,1
391.00,129.73,1
230.00,141.70,1
123.00,154.17,1
48.00,162.85,1
67.00,166.42,1
79.00,165.80,1
187.00,163.25,1
74.00,160.26,1
71.00,156.03,1
161.00,150.78,1
202.00,146.73,1
37.00,143.78,1
181.00,140.56,1
42.00,137.10,1
67.00,132.67,1
44.00,126.72,1
133.00,120.38,1
159.00,115.45,1
226.00,113.50,1
74.00,113.96,1
46.00,114.02,1
72.00,112.25,1
137.00,109.89,1
163.00,108.67,1
127.00,109.04,1
309.00,111.75,1
40.00,116.61,1
103.00,120.52,1
72.00,122.11,1
40.00,121.65,1
39.00,118.84,1
124.00,114.74,1
39.00,110.52,1
73.00,105.93,1
44.00,100.82,1
39.00,95.27,1
52.00,89.33,1
55.00,83.50,1
43.00,78.00,1
197.00,74.03,1
77.00,72.79,1
76.00,73.00,1
121.00,73.63,1
184.00,75.83,1
145.00,80.27,1
86.00,85.63,1
122.00,90.50,1
78.00,94.58,1
112.00,97.77,1
61.00,99.96,1
96.00,101.05,1
91.00,101.37,1
75.00,101.18,1
88.00,100.39,1
98.00,99.36,1
71.00,98.22,1
182.00,97.60,1
45.00,97.87,1
57.00,97.56,1
54.00,95.86,1
138.00,93.89,1
47.00,92.41,1
56.00,90.61,1
93.00,88.31,1
116.00,86.61,1
96.00,85.94,1
154.00,86.41,1
117.00,88.21,1
219.00,91.70,1
84.00,96.62,1
113.00,101.30,1
132.00,105.16,1
100.00,108.56,1
113.00,111.23,1
80.00,112.94,1
156.00,114.04,1
85.00,115.05,1
120.00,115.71,1
92.00,115.82,1
49.00,114.99,1
40.00,112.44,1
127.00,108.89,1
76.00,105.65,1
38.00,102.31,1
45.00,97.99,1
174.00,93.97,1
108.00,91.96,1
81.00,91.28,1
59.00,90.47,1
60.00,89.00,1
354.00,89.35,1
69.00,93.64,1
127.00,98.93,1
88.00,103.08,1
120.00,106.31,1
83.00,108.65,1
188.00,110.75,1
92.00,113.25,1
70.00,115.06,1
69.00,115.11,1
85.00,113.72,1
138.00,112.03,1
86.00,110.73,1
73.00,109.24,1
161.00,107.75,1
42.00,106.67,1
115.00,105.28,1
53.00,103.44,1
64.00,100.96,1
55.00,97.67,1
47.00,93.77,1
223.00,90.77,1
41.00,89.94,1
53.00,89.29,1
47.00,87.46,1
36.00,84.66,1
36.00,81.02,1
52.00,76.90,1
49.00,72.78,1
87.00,69.20,1
91.00,66.79,1
140.00,66.15,1
98.00,67.35,1
123.00,69.83,1
82.00,72.92,1
107.00,76.12,1
79.00,79.13,1
77.00,81.63,1
98.00,83.57,1
164.00,85.89,1
61.00,88.84,1
97.00,91.32,1
54.00,92.73,1
127.00,93.49,1
112.00,94.45,1
252.00,97.05,1
74.00,101.52,1
62.00,105.38,1
61.00,106.93,1
50.00,106.49,1
64.00,104.49,1
83.00,101.67,1
49.00,98.46,1
60.00,94.75,1
73.00,90.80,1
70.00,87.08,1
114.00,84.08,1
103.00,82.34,1
125.00,81.97,1
123.00,82.93,1
82.00,84.68,1
74.00,86.19,1
122.00,87.39,1
121.00,89.06,1
70.00,90.97,1
72.00,92.17,1
88.00,92.53,1
93.00,92.56,1
95.00,92.58,1
105.00,92.73,1
97.00,93.11,1
131.00,93.87,1
52.00,94.74,1
55.00,94.66,1
62.00,93.32,1
60.00,91.20,1
47.00,88.46,1
39.00,85.04,1
69.00,81.23,1
56.00,77.57,1
57.00,74.20,1
40.00,70.91,1
61.00,67.70,1
49.00,64.77,1
59.00,62.20,1
86.00,60.29,1
92.00,59.51,1
76.00,59.81,1
49.00,60.49,1
45.00,60.81,1
79.00,60.84,1
96.00,61.33,1
74.00,62.54,1
85.00,64.11,1
93.00,65.97,1
92.00,68.20,1
78.00,70.58,1
136.00,73.23,1
78.00,76.37,1
154.00,79.92,1
76.00,83.80,1
83.00,87.19,1
60.00,89.37,1
107.00,90.63,1
56.00,91.31,1
114.00,91.57,1
56.00,91.54,1
50.00,90.78,1
39.00,88.79,1
84.00,86.10,1
125.00,83.95,1
68.00,82.88,1
89.00,82.22,1
57.00,81.51,1
136.00,81.07,1
91.00,81.54,1
44.00,82.19,1
172.00,82.87,1
84.00,84.56,1
118.00,86.84,1
147.00,89.55,1
52.00,92.49,1
123.00,94.76,1
101.00,96.65,1
138.00,98.72,1
252.00,102.24,1
145.00,108.04,1
41.00,113.68,1
40.00,116.38,1
68.00,116.14,1
39.00,113.88,1
72.00,110.17,1
50.00,105.63,1
81.00,100.77,1
73.00,96.11,1
67.00,91.81,1
210.00,88.96,1
69.00,88.47,1
176.00,89.51,1
81.00,91.50,1
52.00,93.21,1
40.00,93.28,1
102.00,92.17,1
208.00,92.03,1
117.00,94.15,1
169.00,97.70,1
151.00,102.19,1
78.00,106.77,1
97.00,110.06,1
97.00,111.96,1
84.00,112.80,1
156.00,113.18,1
82.00,113.68,1
141.00,114.11,1
124.00,114.70,1
83.00,115.26,1
132.00,115.36,1
38.00,114.80,1
52.00,112.73,1
42.00,108.95,1
87.00,104.33,1
104.00,100.01,1
64.00,96.38,1
90.00,93.11,1
84.00,90.25,1
107.00,88.11,1
86.00,86.74,1
66.00,85.69,1
177.00,85.33,1
160.00,87.06,1
124.00,90.64,1
146.00,94.95,1
60.00,99.03,1
134.00,102.16,1
120.00,104.87,1
218.00,108.37,1
91.00,112.81,1
97.00,116.56,1
122.00,118.90,1
38.00,119.87,1
90.00,119.01,1
96.00,117.01,1
126.00,114.99,1
95.00,113.32,1
78.00,111.55,1
38.00,108.90,1
89.00,105.30,1
60.00,101.36,1
86.00,97.44,1
63.00,93.68,1
98.00,90.29,1
103.00,87.71,1
63.00,85.90,1
161.00,84.90,1
69.00,85.09,1
406.00,88.26,1
100.00,95.87,1
111.00,104.41,1
263.00,112.29,1
78.00,120.48,1
75.00,126.79,1
63.00,129.82,1
58.00,129.96,1
60.00,127.73,1
38.00,123.58,1
60.00,117.93,1
39.00,111.37,1
246.00,105.88,1
94.00,103.38,1
68.00,102.22,1
82.00,100.54,1
102.00,98.70,1
80.00,97.06,1
49.00,95.18,1
74.00,92.68,1
46.00,89.72,1
38.00,86.19,1
84.00,82.35,1
50.00,78.82,1
123.00,76.08,1
176.00,75.39,1
97.00,77.12,1
220.00,80.76,1
83.00,86.02,1
154.00,91.63,1
76.00,96.72,1
42.00,100.25,1
104.00,101.79,1
50.00,102.07,1
93.00,101.35,1
71.00,99.99,1
127.00,98.64,1
134.00,98.15,1
73.00,98.40,1
90.00,98.40,1
118.00,98.21,1
106.00,98.39,1
159.00,99.32,1
34.00,100.53,1
121.00,100.99,1
254.00,102.39,1
57.00,105.75,1
56.00,108.30,1
108.00,108.94,1
87.00,108.80,1
52.00,107.84,1
78.00,105.77,1
68.00,102.99,1
192.00,100.82,1
48.00,99.98,1
102.00,99.26,1
43.00,97.86,1
177.00,96.58,1
96.00,96.49,1
221.00,98.13,1
199.00,102.25,1
97.00,107.94,1
48.00,112.34,1
68.00,114.11,1
35.00,113.47,1
56.00,110.84,1
110.00,107.29,1
230.00,105.23,1
60.00,105.39,1
126.00,105.97,1
141.00,106.64,1
94.00,107.78,1
52.00,108.24,1
182.00,108.14,1
61.00,108.44,1
80.00,108.25,1
234.00,108.29,1
96.00,110.07,1
86.00,112.01,1
58.00,112.46,1
111.00,111.67,1
40.00,110.02,1
154.00,107.98,1
38.00,106.04,1
137.00,104.09,1
60.00,102.25,1
221.00,101.42,1
65.00,102.14,1
122.00,103.22,1
46.00,103.57,1
59.00,102.65,1
41.00,100.23,1
136.00,97.37,1
215.00,96.33,1
195.00,98.64,1
37.00,102.46,1
96.00,104.99,1
144.00,106.52,1
86.00,108.05,1
182.00,109.76,1
36.00,111.45,1
64.00,111.66,1
88.00,110.21,1
38.00,107.75,1
43.00,104.03,1
54.00,99.21,1
63.00,94.05,1
200.00,90.16,1
114.00,89.03,1
118.00,89.76,1
174.00,91.67,1
108.00,94.87,1
40.00,97.71,1
161.00,99.53,1
141.00,101.78,1
176.00,105.25,1
53.00,108.91,1
128.00,111.48,1
118.00,113.27,1
233.00,115.82,1
153.00,120.03,1
71.00,124.31,1
80.00,126.54,1
87.00,126.67,1
180.00,126.16,1
50.00,125.70,1
81.00,124.18,1
301.00,123.16,1
89.00,124.70,1
102.00,126.56,1
113.00,127.12,1
66.00,126.60,1
72.00,124.62,1
78.00,121.37,1
118.00,117.74,1
55.00,114.14,1
106.00,110.39,1
122.00,107.11,1
40.00,104.30,1
106.00,101.25,1
174.00,99.12,1
41.00,98.31,1
76.00,97.20,1
126.00,95.77,1
89.00,94.97,1
76.00,94.36,1
102.00,93.61,1
250.00,94.33,1
92.00,97.51,1
132.00,101.40,1
54.00,104.39,1
78.00,105.83,1
116.00,106.11,1
39.00,105.70,1
107.00,104.38,1
137.00,103.14,1
84.00,102.64,1
94.00,102.16,1
80.00,101.33,1
92.00,100.20,1
115.00,99.16,1
71.00,98.34,1
68.00,97.16,1
77.00,95.38,1
76.00,93.34,1
109.00,91.49,1
48.00,89.89,1
97.00,88.19,1
73.00,86.59,1
137.00,85.66,1
83.00,85.68,1
156.00,86.66,1
109.00,88.72,1
47.00,90.83,1
98.00,91.92,1
67.00,92.27,1
181.00,92.90,1
61.00,94.36,1
189.00,96.42,1
110.00,99.33,1
46.00,102.03,1
79.00,103.02,1
194.00,103.67,1
55.00,105.05,1
45.00,105.51,1
44.00,103.91,1
44.00,100.73,1
125.00,97.09,1
156.00,94.83,1
89.00,94.33,1
38.00,93.90,1
99.00,92.65,1
67.00,91.14,1
88.00,89.63,1
127.00,88.58,1
47.00,88.07,1
109.00,87.50,1
82.00,87.04,1
113.00,87.00,1
109.00,87.54,1
196.00,89.43,1
44.00,92.42,1
96.00,94.77,1
99.00,96.18,1
87.00,97.23,1
57.00,97.53,1
64.00,96.73,1
59.00,94.93,1
96.00,92.71,1
88.00,90.77,1
130.00,89.62,1
70.00,89.23,1
73.00,88.83,1
89.00,88.10,1
334.00,89.48,1
68.00,94.39,1
110.00,99.79,1
110.00,103.87,1
49.00,106.67,1
53.00,107.42,1
43.00,106.05,1
94.00,103.42,1
63.00,100.43,1
84.00,97.35,1
88.00,94.42,1
132.00,92.32,1
61.00,91.09,1
66.00,89.79,1
105.00,88.29,1
96.00,87.31,1
62.00,86.64,1
169.00,86.49,1
39.00,87.15,1
37.00,87.11,1
106.00,86.01,1
88.00,85.11,1
143.00,85.13,1
98.00,86.24,1
69.00,87.61,1
79.00,88.36,1
43.00,88.23,1
100.00,87.41,1
147.00,87.12,1
55.00,87.74,1
63.00,87.95,1
76.00,87.32,1
41.00,86.06,1
42.00,83.91,1
106.00,81.42,1
49.00,79.33,1
92.00,77.58,1
151.00,76.84,1
146.00,78.24,1
74.00,81.00,1
135.00,83.96,1
64.00,86.81,1
205.00,89.98,1
73.00,93.94,1
179.00,98.23,1
188.00,103.36,1
128.00,109.47,1
289.00,116.56,1
72.00,124.52,1
135.00,131.15,1
99.00,135.49,1
166.00,138.43,1
94.00,140.43,1
123.00,141.24,1
68.00,140.55,1
36.00,137.80,1
35.00,132.57,1
55.00,125.54,1
70.00,117.81,1
60.00,110.14,1
33.00,102.51,1
96.00,95.14,1
62.00,88.77,1
67.00,83.36,1
68.00,78.68,1
74.00,74.81,1
50.00,71.60,1
86.00,68.94,1
74.00,67.08,1
63.00,65.91,1
77.00,65.13,1
130.00,65.26,1
104.00,66.85,1
104.00,69.52,1
109.00,72.73,1
61.00,75.93,1
68.00,78.32,1
61.00,79.68,1
114.00,80.58,1
70.00,81.58,1
184.00,83.26,1
72.00,86.00,1
101.00,88.79,1
123.00,91.25,1
59.00,93.46,1
79.00,94.69,1
56.00,94.76,1
52.00,93.68,1
39.00,91.39,1
109.00,88.60,1
40.00,86.01,1
98.00,83.56,1
67.00,81.45,1
67.00,79.62,1
129.00,78.33,1
101.00,78.28,1
86.00,79.11,1
77.00,80.02,1
86.00,80.77,1
116.00,81.68,1
104.00,83.16,1
85.00,84.92,1
127.00,86.77,1
114.00,89.04,1
75.00,91.39,1
64.00,92.85,1
41.00,92.91,1
105.00,91.94,1
97.00,91.05,1
160.00,91.16,1
122.00,92.68,1
38.00,94.42,1
85.00,94.94,1
101.00,94.75,1
113.00,94.78,1
77.00,95.01,1
48.00,94.64,1
42.00,93.00,1
45.00,90.14,1
40.00,86.40,1
69.00,82.30,1
111.00,78.85,1
59.00,76.52,1
82.00,74.80,1
64.00,73.38,1
98.00,72.43,1
102.00,72.31,1
88.00,73.05,1
58.00,73.98,1
116.00,74.89,1
102.00,76.34,1
128.00,78.63,1
89.00,81.47,1
72.00,84.06,1
69.00,85.74,1
52.00,86.36,1
38.00,85.70,1
66.00,83.97,1
63.00,81.81,1
111.00,79.96,1
69.00,78.84,1
56.00,77.91,1
37.00,76.41,1
61.00,74.33,1
53.00,72.04,1
37.00,69.60,1
117.00,67.46,1
41.00,66.19,1
76.00,65.32,1
71.00,64.67,1
41.00,64.19,1
80.00,63.62,1
87.00,63.47,1
62.00,63.88,1
148.00,65.05,1
40.00,67.09,1
120.00,69.31,1
140.00,72.17,1
80.00,75.94,1
36.00,79.07,1
126.00,81.13,1
92.00,83.15,1
38.00,84.81,1
168.00,86.04,1
77.00,87.87,1
46.00,89.40,1
81.00,89.66,1
41.00,88.95,1
54.00,87.25,1
177.00,85.76,1
56.00,85.65,1
69.00,85.70,1
86.00,85.21,1
44.00,84.37,1
50.00,82.78,1
49.00,80.41,1
77.00,77.81,1
127.00,76.00,1
62.00,75.36,1
76.00,75.09,1
123.00,75.19,1
73.00,76.05,1
134.00,77.52,1
127.00,79.96,1
180.00,83.87,1
66.00,88.65,1
124.00,92.96,1
90.00,96.50,1
39.00,98.82,1
103.00,99.55,1
36.00,99.14,1
136.00,98.11,1
108.00,97.53,1
148.00,98.00,1
106.00,99.34,1
94.00,100.84,1
60.00,101.57,1
117.00,101.48,1
78.00,101.14,1
79.00,100.44,1
52.00,98.94,1
64.00,96.57,1
126.00,94.10,1
78.00,92.38,1
81.00,91.02,1
40.00,89.28,1
84.00,87.02,1
157.00,85.44,1
63.00,85.24,1
147.00,85.83,1
57.00,86.87,1
44.00,87.30,1
69.00,86.50,1
103.00,85.39,1
93.00,84.76,1
66.00,84.42,1
100.00,84.06,1
151.00,84.45,1
37.00,85.61,1
37.00,85.81,1
124.00,85.08,1
105.00,84.94,1
77.00,85.42,1
73.00,85.71,1
97.00,85.74,1
111.00,86.05,1
62.00,86.59,1
104.00,86.94,1
118.00,87.54,1
122.00,88.93,1
95.00,90.83,1
222.00,93.69,1
166.00,98.61,1
81.00,104.37,1
52.00,108.44,1
99.00,110.28,1
263.00,112.28,1
125.00,116.31,1
58.00,120.24,1
193.00,122.83,1
45.00,124.77,1
44.00,124.82,1
40.00,122.09,1
51.00,117.41,1
109.00,112.04,1
113.00,107.40,1
93.00,103.87,1
45.00,100.60,1
54.00,96.74,1
40.00,92.20,1
63.00,87.32,1
40.00,82.41,1
120.00,78.14,1
154.00,75.92,1
82.00,75.95,1
43.00,76.46,1
117.00,76.66,1
63.00,77.10,1
72.00,77.48,1
144.00,78.12,1
92.00,79.77,1
193.00,82.70,1
151.00,87.41,1
179.00,93.69,1
98.00,100.38,1
100.00,106.07,1
87.00,110.06,1
44.00,112.07,1
61.00,111.81,1
61.00,109.78,1
73.00,106.70,1
64.00,103.07,1
60.00,99.06,1
101.00,95.08,1
56.00,91.54,1
41.00,87.92,1
74.00,84.02,1
97.00,80.63,1
39.00,77.94,1
49.00,75.16,1
127.00,72.75,1
105.00,71.89,1
38.00,71.97,1
128.00,72.21,1
129.00,73.51,1
91.00,76.02,1
115.00,78.93,1
66.00,81.73,1
61.00,83.70,1
77.00,84.61,1
100.00,85.11,1
154.00,86.24,1
123.00,88.65,1
111.00,91.77,1
95.00,94.75,1
220.00,98.18,1
37.00,102.28,1
146.00,105.64,1
59.00,107.91,1
70.00,108.81,1
37.00,107.82,1
100.00,105.51,1
39.00,102.53,1
93.00,99.11,1
36.00,95.39,1
48.00,91.15,1
50.00,86.42,1
46.00,81.56,1
70.00,76.92,1
140.00,73.55,1
91.00,72.21,1
139.00,72.64,1
49.00,74.03,1
138.00,75.73,1
71.00,77.81,1
72.00,79.73,1
86.00,81.04,1
82.00,82.05,1
100.00,82.99,1
53.00,83.74,1
38.00,83.53,1
108.00,82.57,1
72.00,81.81,1
115.00,81.56,1
68.00,81.73,1
56.00,81.70,1
127.00,81.51,1
65.00,81.77,1
52.00,81.82,1
37.00,80.83,1
40.00,78.76,1
52.00,75.98,1
159.00,73.86,1
87.00,73.59,1
329.00,76.47,1
158.00,83.68,1
46.00,92.13,1
85.00,98.28,1
93.00,102.22,1
126.00,105.12,1
128.00,107.76,1
46.00,109.73,1
127.00,110.46,1
105.00,110.71,1
53.00,110.45,1
54.00,108.79,1
63.00,105.75,1
68.00,101.99,1
58.00,97.87,1
130.00,94.10,1
48.00,91.15,1
47.00,88.15,1
72.00,84.71,1
66.00,81.42,1
71.00,78.50,1
65.00,75.95,1
75.00,73.77,1
49.00,71.87,1
37.00,69.77,1
72.00,67.47,1
86.00,65.71,1
82.00,64.90,1
101.00,65.05,1
46.00,65.74,1
90.00,66.44,1
139.00,67.79,1
57.00,70.10,1
41.00,71.96,1
45.00,72.51,1
86.00,72.32,1
78.00,72.23,1
60.00,72.26,1
59.00,72.03,1
54.00,71.38,1
95.00,70.69,1
81.00,70.52,1
60.00,70.68,1
74.00,70.74,1
116.00,71.13,1
134.00,72.74,1
66.00,75.29,1
43.00,77.29,1
38.00,77.80,1
126.00,77.64,1
66.00,77.90,1
64.00,78.18,1
65.00,77.94,1
55.00,77.24,1
73.00,76.20,1
52.00,74.97,1
175.00,74.48,1
43.00,75.34,1
112.00,76.59,1
61.00,77.72,1
127.00,78.99,1
132.00,81.06,1
61.00,83.68,1
58.00,85.48,1
84.00,86.18,1
66.00,86.26,1
94.00,86.04,1
67.00,85.67,1
53.00,84.88,1
51.00,83.31,1
64.00,81.16,1
68.00,78.89,1
62.00,76.72,1
46.00,74.49,1
113.00,72.55,1
80.00,71.59,1
63.00,71.27,1
134.00,71.49,1
118.00,73.01,1
97.00,75.62,1
82.00,78.37,1
80.00,80.68,1
74.00,82.38,1
42.00,83.17,1
53.00,82.75,1
163.00,82.27,1
92.00,83.09,1
113.00,84.77,1
60.00,86.37,1
102.00,87.50,1
63.00,88.17,1
52.00,88.07,1
77.00,87.10,1
97.00,85.98,1
65.00,85.06,1
52.00,83.86,1
48.00,81.95,1
63.00,79.54,1
56.00,76.97,1
137.00,75.05,1
47.00,74.24,1
83.00,73.76,1
141.00,73.89,1
127.00,75.63,1
56.00,78.19,1
131.00,80.60,1
95.00,83.19,1
94.00,85.85,1
111.00,88.29,1
64.00,90.36,1
49.00,91.31,1
59.00,90.82,1
70.00,89.41,1
106.00,87.89,1
100.00,86.99,1
45.00,86.33,1
155.00,85.83,1
91.00,86.30,1
74.00,87.21,1
55.00,87.44,1
44.00,86.60,1
57.00,84.74,1
138.00,82.97,1
47.00,82.03,1
76.00,81.15,1
47.00,79.82,1
57.00,78.04,1
96.00,76.23,1
76.00,75.03,1
86.00,74.40,1
131.00,74.60,1
50.00,75.59,1
98.00,76.57,1
62.00,77.32,1
75.00,77.79,1
71.00,77.91,1
99.00,78.04,1
98.00,78.60,1
38.00,79.17,1
37.00,78.73,1
74.00,77.31,1
34.00,75.48,1
72.00,73.36,1
52.00,71.23,1
112.00,69.63,1
127.00,69.45,1
70.00,70.64,1
72.00,72.01,1
59.00,72.93,1
39.00,73.10,1
74.00,72.56,1
44.00,71.65,1
43.00,70.28,1
57.00,68.45,1
42.00,66.45,1
71.00,64.48,1
152.00,63.63,1
60.00,64.50,1
55.00,65.73,1
78.00,66.54,1
91.00,67.46,1
39.00,68.40,1
104.00,69.11,1
84.00,70.10,1
40.00,71.12,1
40.00,71.22,1
40.00,70.26,1
77.00,68.83,1
102.00,67.91,1
39.00,67.62,1
35.00,66.92,1
53.00,65.52,1
58.00,63.93,1
92.00,62.77,1
39.00,62.14,1
90.00,61.75,1
71.00,61.82,1
37.00,62.04,1
81.00,62.03,1
114.00,62.57,1
55.00,63.92,1
91.00,65.44,1
64.00,66.92,1
40.00,67.98,1
66.00,68.26,1
44.00,68.01,1
72.00,67.43,1
101.00,67.16,1
72.00,67.61,1
174.00,69.18,1
50.00,71.99,1
57.00,74.48,1
74.00,75.87,1
86.00,76.83,1
78.00,77.69,1
84.00,78.47,1
70.00,79.09,1
43.00,79.14,1
95.00,78.63,1
40.00,77.90,1
44.00,76.57,1
36.00,74.37,1
74.00,71.81,1
67.00,69.57,1
39.00,67.60,1
62.00,65.59,1
125.00,64.27,1
73.00,64.34,1
54.00,64.95,1
97.00,65.56,1
75.00,66.53,1
105.00,67.99,1
36.00,69.50,1
38.00,70.12,1
80.00,69.84,1
77.00,69.59,1
97.00,69.84,1
78.00,70.62,1
38.00,71.28,1
35.00,70.98,1
66.00,69.83,1
157.00,69.32,1
93.00,70.57,1
50.00,72.45,1
45.00,73.44,1
59.00,73.41,1
49.00,72.69,1
81.00,71.71,1
85.00,71.04,1
48.00,70.65,1
50.00,69.94,1
84.00,68.99,1
89.00,68.53,1
46.00,68.47,1
44.00,68.02,1
200.00,68.20,1
157.00,71.07,1
140.00,76.31,1
63.00,81.91,1
73.00,86.26,1
80.00,89.10,1
108.00,91.11,1
108.00,92.97,1
90.00,94.74,1
98.00,96.13,1
69.00,96.94,1
91.00,97.06,1
64.00,96.52,1
78.00,95.38,1
56.00,93.64,1
49.00,91.17,1
50.00,87.96,1
39.00,84.16,1
70.00,80.13,1
68.00,76.45,1
38.00,73.15,1
84.00,70.10,1
68.00,67.74,1
47.00,65.91,1
58.00,64.16,1
79.00,62.71,1
79.00,61.97,1
63.00,61.85,1
122.00,62.43,1
141.00,64.52,1
147.00,68.55,1
59.00,73.44,1
57.00,77.38,1
72.00,79.84,1
76.00,81.35,1
64.00,82.18,1
69.00,82.35,1
68.00,81.98,1
74.00,81.29,1
116.00,80.82,1
55.00,80.78,1
134.00,81.06,1
59.00,81.75,1
66.00,82.21,1
51.00,81.83,1
37.00,80.53,1
62.00,78.42,1
59.00,76.04,1
56.00,73.67,1
48.00,71.24,1
88.00,69.01,1
95.00,67.68,1
71.00,67.33,1
83.00,67.49,1
153.00,68.61,1
80.00,71.08,1
100.00,74.05,1
88.00,76.90,1
162.00,80.14,1
127.00,84.43,1
62.00,88.85,1
59.00,91.85,1
127.00,93.62,1
35.00,94.74,1
62.00,94.60,1
62.00,93.19,1
34.00,90.84,1
116.00,88.08,1
52.00,85.70,1
36.00,83.18,1
69.00,80.10,1
41.00,76.88,1
44.00,73.50,1
61.00,70.07,1
42.00,66.86,1
110.00,64.33,1
55.00,62.90,1
53.00,61.99,1
79.00,61.24,1
39.00,60.71,1
161.00,60.93,1
123.00,63.10,1
107.00,66.93,1
100.00,71.25,1
105.00,75.58,1
79.00,79.60,1
46.00,82.57,1
103.00,84.35,1
127.00,86.05,1
121.00,88.45,1
90.00,91.16,1
106.00,93.56,1
65.00,95.33,1
106.00,96.34,1
54.00,96.65,1
78.00,96.11,1
39.00,94.57,1
62.00,92.07,1
68.00,89.04,1
44.00,85.79,1
72.00,82.35,1
44.00,78.94,1
69.00,75.63,1
76.00,72.74,1
76.00,70.60,1
50.00,68.94,1
106.00,67.73,1
95.00,67.52,1
84.00,68.28,1
119.00,69.77,1
128.00,72.32,1
115.00,75.92,1
88.00,79.83,1
114.00,83.52,1
137.00,87.30,1
99.00,91.31,1
175.00,95.56,1
79.00,99.99,1
86.00,103.51,1
35.00,105.13,1
133.00,105.26,1
47.00,104.75,1
36.00,103.07,1
80.00,100.01,1
67.00,96.54,1
62.00,93.00,1
69.00,89.37,1
37.00,85.62,1
70.00,81.69,1
39.00,77.79,1
46.00,73.85,1
91.00,70.25,1
40.00,67.41,1
73.00,65.04,1
97.00,63.43,1
69.00,62.90,1
48.00,62.76,1
42.00,62.29,1
139.00,62.11,1
197.00,64.22,1
127.00,69.18,1
172.00,75.82,1
85.00,82.97,1
78.00,89.14,1
39.00,93.18,1
38.00,94.74,1
96.00,94.53,1
134.00,94.25,1
81.00,94.61,1
44.00,94.57,1
63.00,93.32,1
45.00,91.06,1
37.00,87.90,1
55.00,84.02,1
37.00,79.81,1
60.00,75.53,1
58.00,71.56,1
71.00,68.22,1
128.00,66.14,1
70.00,65.67,1
39.00,65.68,1
62.00,65.26,1
116.00,65.08,1
41.00,65.57,1
51.00,65.82,1
132.00,66.11,1
46.00,67.13,1
45.00,67.91,1
77.00,68.02,1
71.00,68.08,1
53.00,68.12,1
59.00,67.85,1
153.00,68.08,1
35.00,69.34,1
75.00,70.46,1
86.00,71.22,1
116.00,72.46,1
75.00,74.25,1
49.00,75.76,1
47.00,76.22,1
129.00,76.29,1
36.00,76.65,1
39.00,76.37,1
48.00,74.95,1
101.00,73.35,1
80.00,72.43,1
57.00,71.97,1
48.00,71.24,1
38.00,69.91,1
64.00,68.14,1
46.00,66.29,1
79.00,64.64,1
156.00,64.22,1
72.00,65.63,1
78.00,67.65,1
121.00,69.83,1
46.00,72.21,1
130.00,74.46,1
152.00,77.51,1
103.00,81.69,1
74.00,85.75,1
69.00,88.63,1
39.00,89.96,1
64.00,89.73,1
58.00,88.44,1
100.00,86.86,1
282.00,87.25,1
94.00,90.96,1
155.00,95.93,1
61.00,100.38,1
38.00,103.05,1
77.00,103.43,1
90.00,102.61,1
145.00,101.93,1
92.00,101.94,1
40.00,101.62,1
118.00,100.41,1
81.00,99.12,1
42.00,97.52,1
54.00,94.87,1
127.00,92.00,1
59.00,89.82,1
179.00,88.70,1
183.00,89.88,1
39.00,92.64,1
76.00,94.45,1
44.00,94.63,1
58.00,93.48,1
180.00,92.31,1
59.00,92.32,1
129.00,92.81,1
140.00,93.89,1
65.00,95.53,1
61.00,96.36,1
37.00,95.64,1
40.00,93.36,1
128.00,90.57,1
41.00,88.24,1
131.00,86.37,1
70.00,85.17,1
92.00,84.46,1
74.00,83.83,1
69.00,83.14,1
54.00,82.07,1
87.00,80.71,1
69.00,79.47,1
42.00,78.11,1
63.00,76.26,1
106.00,74.61,1
84.00,73.85,1
84.00,73.80,1
64.00,73.94,1
72.00,73.94,1
42.00,73.56,1
61.00,72.63,1
116.00,71.84,1
75.00,71.92,1
120.00,72.79,1
59.00,74.14,1
36.00,74.98,1
85.00,74.92,1
147.00,75.32,1
61.00,76.77,1
110.00,78.47,1
131.00,80.57,1
36.00,82.89,1
56.00,84.03,1
116.00,84.31,1
67.00,84.66,1
61.00,84.70,1
42.00,83.83,1
119.00,82.58,1
107.00,82.11,1
67.00,82.34,1
104.00,82.65,1
217.00,84.24,1
42.00,87.46,1
229.00,91.40,1
41.00,95.86,1
68.00,99.21,1
43.00,100.31,1
115.00,100.06,1
240.00,100.81,1
36.00,103.27,1
69.00,104.88,1
80.00,104.72,1
66.00,103.57,1
105.00,101.89,1
119.00,100.51,1
53.00,99.42,1
111.00,98.07,1
83.00,96.77,1
119.00,95.85,1
84.00,95.33,1
154.00,95.43,1
57.00,96.06,1
59.00,96.06,1
94.00,95.11,1
48.00,93.68,1
136.00,92.19,1
93.00,91.42,1
62.00,90.99,1
92.00,90.21,1
100.00,89.49,1
67.00,88.95,1
80.00,88.19,1
82.00,87.25,1
44.00,86.04,1
110.00,84.58,1
50.00,83.27,1
59.00,81.75,1
185.00,80.81,1
159.00,82.31,1
78.00,85.52,1
71.00,88.32,1
92.00,90.09,1
41.00,90.91,1
210.00,91.70,1
158.00,94.38,1
188.00,99.23,1
63.00,104.58,1
118.00,108.76,1
96.00,111.59,1
90.00,113.35,1
50.00,113.64,1
139.00,112.81,1
74.00,111.78,1
121.00,110.67,1
65.00,109.31,1
40.00,107.07,1
75.00,103.64,1
94.00,99.94,1
57.00,96.48,1
68.00,92.94,1
115.00,89.72,1
103.00,87.62,1
81.00,86.46,1
237.00,86.88,1
94.00,89.71,1
105.00,93.28,1
220.00,97.25,1
53.00,102.01,1
126.00,105.99,1
70.00,108.61,1
74.00,109.81,1
136.00,110.01,1
102.00,110.24,1
54.00,110.01,1
86.00,108.66,1
110.00,106.82,1
204.00,106.11,1
126.00,107.38,1
38.00,108.89,1
84.00,108.80,1
47.00,107.22,1
94.00,104.72,1
93.00,102.06,1
52.00,99.41,1
78.00,96.38,1
106.00,93.48,1
151.00,91.84,1
54.00,91.39,1
71.00,90.75,1
54.00,89.32,1
76.00,87.39,1
97.00,85.53,1
45.00,83.90,1
49.00,81.83,1
86.00,79.44,1
70.00,77.41,1
109.00,76.08,1
85.00,75.64,1
90.00,75.85,1
33.00,75.97,1
49.00,75.24,1
60.00,73.77,1
42.00,71.96,1
62.00,69.90,1
42.00,67.74,1
100.00,65.90,1
55.00,64.78,1
81.00,64.19,1
55.00,63.87,1
70.00,63.68,1
37.00,63.34,1
132.00,63.28,1
77.00,64.27,1
65.00,65.80,1
56.00,66.97,1
106.00,67.98,1
107.00,69.60,1
74.00,71.79,1
103.00,74.04,1
181.00,77.12,1
89.00,81.49,1
124.00,86.12,1
123.00,90.59,1
54.00,94.50,1
126.00,97.30,1
34.00,99.01,1
73.00,99.23,1
55.00,98.07,1
138.00,96.59,1
65.00,95.55,1
176.00,95.27,1
125.00,96.39,1
78.00,98.23,1
273.00,100.96,1
179.00,106.36,1
227.00,114.09,1
201.00,123.09,1
124.00,132.09,1
157.00,139.57,1
411.00,147.67,1
213.00,158.78,1
68.00,169.46,1
164.00,176.18,1
144.00,179.93,1
332.00,183.32,1
424.00,190.04,1
176.00,200.13,1
84.00,208.28,1
77.00,211.03,1
52.00,208.51,1
185.00,202.72,1
118.00,196.06,1
112.00,188.92,1
331.00,182.82,1
95.00,179.34,1
164.00,176.43,1
114.00,172.83,1
122.00,168.62,1
279.00,165.11,1
142.00,163.79,1
86.00,162.74,1
192.00,160.74,1
138.00,158.94,1
221.00,158.01,1
72.00,157.47,1
47.00,155.26,1
45.00,150.17,1
135.00,143.55,1
47.00,136.76,1
212.00,130.72,1
332.00,128.47,1
91.00,130.52,1
279.00,134.33,1
546.00,142.69,1
87.00,156.43,1
111.00,168.56,1
51.00,175.12,1
241.00,178.05,1
99.00,179.62,1
204.00,180.17,1
174.00,180.26,1
231.00,180.85,1
52.00,180.99,1
196.00,179.50,1
42.00,176.44,1
114.00,171.48,1
286.00,166.64,1
66.00,163.68,1
34.00,159.73,1
87.00,153.27,1
67.00,145.56,1
217.00,138.50,1
54.00,133.14,1
123.00,128.37,1
65.00,123.52,1
36.00,118.14,1
48.00,111.68,1
74.00,104.78,1
111.00,98.60,1
79.00,93.75,1
102.00,90.03,1
158.00,87.88,1
141.00,87.96,1
101.00,89.57,1
109.00,91.58,1
95.00,93.49,1
124.00,95.35,1
47.00,96.84,1
134.00,97.67,1
44.00,98.04,1
43.00,97.26,1
214.00,96.30,1
113.00,97.21,1
427.00,101.88,1
49.00,110.50,1
412.00,121.14,1
185.00,133.97,1
147.00,146.99,1
49.00,156.37,1
50.00,160.74,1
42.00,160.30,1
99.00,156.54,1
85.00,151.19,1
113.00,145.28,1
40.00,138.86,1
139.00,132.14,1
73.00,125.89,1
88.00,120.06,1
40.00,114.05,1
54.00,107.54,1
102.00,101.09,1
130.00,96.05,1
56.00,92.51,1
89.00,89.49,1
127.00,87.23,1
252.00,87.56,1
108.00,91.02,1
48.00,94.92,1
105.00,97.29,1
124.00,99.04,1
239.00,101.99,1
279.00,108.12,1
289.00,118.19,1
152.00,130.28,1
84.00,140.75,1
66.00,147.27,1
52.00,149.56,1
60.00,148.23,1
79.00,144.38,1
38.00,138.79,1
78.00,131.86,1
121.00,124.83,1
56.00,118.47,1
83.00,112.34,1
84.00,106.49,1
49.00,101.00,1
78.00,95.64,1
37.00,90.41,1
41.00,85.03,1
192.00,80.70,1
96.00,79.09,1
69.00,78.99,1
122.00,79.25,1
43.00,79.78,1
66.00,79.80,1
38.00,78.94,1
63.00,77.34,1
46.00,75.31,1
79.00,73.21,1
132.00,71.99,1
50.00,71.92,1
100.00,72.24,1
54.00,72.61,1
118.00,73.18,1
38.00,73.91,1
50.00,74.03,1
36.00,73.10,1
108.00,71.87,1
71.00,71.24,1
80.00,71.13,1
126.00,71.65,1
119.00,73.42,1
64.00,75.89,1
37.00,77.61,1
90.00,78.23,1
85.00,78.60,1
80.00,79.10,1
127.00,79.94,1
213.00,82.49,1
132.00,87.37,1
94.00,92.92,1
68.00,97.26,1
127.00,100.29,1
194.00,103.54,1
132.00,107.94,1
49.00,111.91,1
217.00,114.92,1
153.00,118.66,1
61.00,122.41,1
39.00,123.83,1
141.00,123.11,1
53.00,121.57,1
36.00,118.71,1
57.00,114.11,1
73.00,108.68,1
147.00,103.86,1
132.00,100.88,1
40.00,99.02,1
72.00,96.67,1
168.00,94.60,1
51.00,93.71,1
127.00,93.21,1
129.00,93.34,1
43.00,93.89,1
41.00,93.31,1
92.00,91.57,1
127.00,90.13,1
66.00,89.46,1
73.00,88.75,1
146.00,88.23,1
80.00,88.60,1
74.00,89.10,1
60.00,88.91,1
38.00,87.74,1
137.00,86.20,1
127.00,85.81,1
52.00,86.34,1
36.00,86.09,1
60.00,84.57,1
105.00,82.78,1
111.00,81.84,1
73.00,81.73,1
125.00,82.10,1
139.00,83.50,1
77.00,85.78,1
48.00,87.49,1
89.00,88.05,1
92.00,88.19,1
48.00,88.04,1
82.00,87.25,1
170.00,86.92,1
41.00,87.64,1
47.00,87.76,1
128.00,87.11,1
124.00,87.27,1
109.00,88.52,1
50.00,89.79,1
82.00,90.19,1
65.00,89.82,1
37.00,88.63,1
203.00,87.62,1
49.00,88.02,1
50.00,88.32,1
120.00,87.85,1
106.00,87.86,1
55.00,88.16,1
64.00,87.79,1
98.00,86.93,1
37.00,85.86,1
46.00,84.01,1
74.00,81.50,1
65.00,79.03,1
62.00,76.74,1
49.00,74.43,1
72.00,72.13,1
67.00,70.15,1
38.00,68.33,1
150.00,67.12,1
121.00,67.78,1
48.00,69.70,1
158.00,71.95,1
197.00,75.94,1
82.00,81.71,1
91.00,87.13,1
207.00,92.27,1
107.00,98.19,1
54.00,103.37,1
58.00,106.13,1
85.00,106.82,1
193.00,107.30,1
89.00,108.74,1
154.00,110.59,1
79.00,112.27,1
76.00,113.03,1
38.00,112.10,1
53.00,109.33,1
95.00,105.60,1
66.00,101.82,1
167.00,98.85,1
48.00,97.03,1
36.00,94.90,1
96.00,91.93,1
111.00,89.43,1
94.00,87.99,1
58.00,86.93,1
113.00,85.93,1
125.00,85.71,1
97.00,86.52,1
38.00,87.22,1
92.00,87.07,1
40.00,86.23,1
108.00,85.06,1
85.00,84.17,1
96.00,83.81,1
107.00,83.94,1
75.00,84.44,1
127.00,85.21,1
98.00,86.52,1
102.00,88.17,1
39.00,89.32,1
76.00,89.35,1
92.00,88.76,1
65.00,88.05,1
98.00,87.25,1
126.00,86.97,1
92.00,87.53,1
127.00,88.67,1
44.00,89.83,1
71.00,90.10,1
97.00,89.67,1
92.00,89.33,1
58.00,88.92,1
52.00,87.82,1
67.00,85.95,1
92.00,83.99,1
51.00,82.21,1
87.00,80.47,1
164.00,79.70,1
78.00,80.56,1
40.00,81.53,1
137.00,82.00,1
55.00,82.70,1
120.00,83.54,1
110.00,84.76,1
115.00,86.65,1
120.00,89.02,1
54.00,91.26,1
59.00,92.32,1
108.00,92.38,1
53.00,92.08,1
36.00,90.87,1
82.00,88.66,1
43.00,86.06,1
198.00,84.26,1
84.00,84.43,1
118.00,85.78,1
70.00,87.19,1
60.00,88.01,1
66.00,87.84,1
88.00,87.11,1
80.00,86.34,1
39.00,85.27,1
85.00,83.64,1
128.00,82.42,1
87.00,82.31,1
90.00,82.75,1
42.00,82.89,1
76.00,82.33,1
172.00,82.20,1
128.00,83.92,1
106.00,86.89,1
73.00,89.68,1
132.00,92.01,1
74.00,94.14,1
110.00,95.87,1
116.00,97.40,1
180.00,99.67,1
131.00,103.12,1
78.00,106.63,1
80.00,108.80,1
38.00,109.13,1
36.00,107.34,1
174.00,104.77,1
40.00,102.86,1
60.00,100.60,1
78.00,97.52,1
86.00,94.45,1
39.00,91.38,1
206.00,89.08,1
152.00,89.40,1
36.00,91.22,1
88.00,92.17,1
60.00,92.07,1
237.00,92.64,1
105.00,95.31,1
216.00,99.69,1
108.00,105.06,1
82.00,109.91,1
92.00,112.96,1
106.00,114.63,1
176.00,116.07,1
61.00,117.62,1
62.00,117.89,1
40.00,116.05,1
104.00,112.82,1
151.00,109.94,1
71.00,108.06,1
72.00,106.07,1
88.00,103.55,1
80.00,100.92,1
44.00,98.00,1
38.00,94.22,1
147.00,90.45,1
74.00,87.94,1
94.00,86.35,1
128.00,85.51,1
123.00,85.96,1
102.00,87.42,1
69.00,88.90,1
40.00,89.41,1
127.00,89.12,1
66.00,88.93,1
161.00,89.32,1
135.00,90.99,1
126.00,93.87,1
89.00,96.90,1
119.00,99.49,1
112.00,101.80,1
99.00,103.84,1
141.00,105.68,1
127.00,107.79,1
80.00,109.76,1
52.00,110.42,1
113.00,109.72,1
110.00,108.76,1
68.00,107.75,1
249.00,107.52,1
119.00,109.48,1
100.00,112.20,1
38.00,113.51,1
40.00,112.55,1
171.00,110.49,1
47.00,108.82,1
64.00,106.67,1
88.00,103.67,1
39.00,100.26,1
151.00,96.98,1
135.00,95.23,1
127.00,95.29,1
71.00,95.99,1
165.00,96.94,1
38.00,98.09,1
142.00,98.89,1
55.00,99.34,1
42.00,98.83,1
99.00,97.14,1
140.00,95.79,1
45.00,95.10,1
79.00,93.99,1
76.00,92.34,1
146.00,91.16,1
78.00,90.92,1
130.00,91.30,1
57.00,91.84,1
175.00,92.67,1
46.00,93.99,1
172.00,95.51,1
51.00,97.16,1
168.00,98.86,1
61.00,100.58,1
39.00,101.28,1
67.00,100.15,1
60.00,97.91,1
144.00,95.71,1
173.00,95.18,1
122.00,96.69,1
68.00,98.65,1
38.00,99.32,1
44.00,98.10,1
44.00,95.32,1
97.00,91.94,1
59.00,88.78,1
146.00,86.43,1
78.00,85.34,1
90.00,84.93,1
160.00,85.27,1
267.00,88.34,1
98.00,94.31,1
150.00,100.80,1
102.00,106.53,1
49.00,110.68,1
46.00,112.21,1
146.00,112.04,1
142.00,112.17,1
42.00,112.47,1
74.00,111.46,1
35.00,108.83,1
75.00,105.05,1
41.00,100.56,1
81.00,95.79,1
62.00,91.19,1
40.00,86.70,1
47.00,81.99,1
87.00,77.52,1
40.00,73.72,1
87.00,70.50,1
40.00,67.82,1
67.00,65.48,1
74.00,63.58,1
50.00,62.23,1
93.00,61.36,1
104.00,61.48,1
104.00,62.91,1
118.00,65.49,1
76.00,68.73,1
130.00,72.24,1
71.00,75.89,1
81.00,79.07,1
78.00,81.44,1
104.00,83.36,1
67.00,84.99,1
102.00,86.22,1
39.00,86.86,1
35.00,86.27,1
76.00,84.48,1
72.00,82.47,1
100.00,80.87,1
72.00,79.81,1
39.00,78.72,1
85.00,77.22,1
136.00,76.38,1
47.00,76.57,1
60.00,76.57,1
77.00,76.06,1
40.00,75.25,1
133.00,74.55,1
70.00,74.66,1
132.00,75.62,1
116.00,77.60,1
240.00,81.54,1
116.00,87.73,1
66.00,93.99,1
123.00,98.70,1
35.00,101.88,1
115.00,103.45,1
46.00,103.79,1
62.00,102.82,1
126.00,101.13,1
210.00,100.84,1
91.00,102.54,1
118.00,104.68,1
38.00,105.85,1
94.00,105.62,1
163.00,105.17,1
55.00,105.27,1
274.00,106.38,1
74.00,109.31,1
110.00,112.34,1
98.00,114.16,1
34.00,114.58,1
263.00,114.65,1
49.00,115.96,1
51.00,116.52,1
115.00,115.28,1
65.00,113.38,1
184.00,111.74,1
74.00,110.99,1
48.00,109.90,1
160.00,108.16,1
79.00,106.96,1
211.00,106.88,1
86.00,108.14,1
303.00,111.24,1
87.00,116.35,1
78.00,120.98,1
88.00,123.23,1
285.00,125.32,1
105.00,129.08,1
53.00,132.19,1
36.00,132.20,1
96.00,129.68,1
49.00,125.75,1
141.00,121.37,1
107.00,117.64,1
256.00,115.98,1
138.00,117.18,1
115.00,119.57,1
135.00,121.59,1
291.00,124.72,1
114.00,129.84,1
109.00,134.63,1
128.00,137.60,1
268.00,140.54,1
69.00,144.20,1
73.00,146.14,1
123.00,145.58,1
80.00,143.62,1
56.00,140.15,1
232.00,136.37,1
124.00,134.33,1
66.00,132.85,1
56.00,129.89,1
54.00,125.25,1
92.00,119.70,1
110.00,114.40,1
105.00,110.03,1
119.00,106.71,1
47.00,103.88,1
84.00,100.75,1
349.00,99.73,1
225.00,104.04,1
258.00,112.64,1
54.00,122.04,1
110.00,129.09,1
134.00,133.54,1
100.00,136.45,1
288.00,139.29,1
383.00,145.62,1
408.00,157.79,1
195.00,173.33,1
40.00,186.33,1
58.00,192.79,1
93.00,193.35,1
36.00,189.68,1
97.00,182.71,1
165.00,174.62,1
123.00,167.25,1
214.00,161.28,1
107.00,156.86,1
232.00,153.78,1
236.00,153.04,1
120.00,154.23,1
288.00,156.35,1
73.00,159.15,1
149.00,160.83,1
166.00,161.21,1
138.00,161.30,1
76.00,160.28,1
169.00,158.01,1
100.00,155.30,1
35.00,151.44,1
120.00,145.88,1
114.00,140.04,1
83.00,134.53,1
63.00,128.72,1
59.00,122.26,1
231.00,116.71,1
107.00,113.84,1
48.00,111.97,1
111.00,109.43,1
116.00,107.08,1
68.00,105.15,1
389.00,105.55,1
86.00,110.08,1
96.00,115.31,1
169.00,119.15,1
40.00,122.05,1
97.00,123.07,1
58.00,122.19,1
50.00,119.64,1
169.00,116.46,1
54.00,113.84,1
60.00,110.87,1
136.00,107.52,1
203.00,105.85,1
73.00,106.16,1
82.00,106.45,1
51.00,105.52,1
86.00,103.57,1
171.00,101.91,1
39.00,101.15,1
58.00,99.77,1
128.00,97.74,1
125.00,96.60,1
60.00,96.16,1
39.00,94.99,1
136.00,93.21,1
57.00,91.82,1
94.00,90.57,1
185.00,90.19,1
103.00,91.60,1
75.00,93.49,1
92.00,94.68,1
64.00,95.13,1
197.00,95.77,1
114.00,97.83,1
89.00,100.41,1
48.00,101.86,1
49.00,101.52,1
96.00,99.89,1
149.00,98.58,1
42.00,97.92,1
81.00,96.79,1
211.00,96.16,1
66.00,97.22,1
155.00,98.94,1
58.00,100.56,1
63.00,101.23,1
56.00,100.36,1
55.00,98.28,1
49.00,95.22,1
92.00,91.76,1
43.00,88.38,1
102.00,85.21,1
81.00,82.69,1
42.00,80.57,1
38.00,77.97,1
85.00,75.09,1
158.00,73.46,1
117.00,74.08,1
57.00,75.80,1
121.00,77.51,1
67.00,79.29,1
48.00,80.51,1
120.00,81.13,1
83.00,81.98,1
40.00,82.61,1
42.00,82.06,1
38.00,80.24,1
75.00,77.80,1
64.00,75.46,1
189.00,74.44,1
182.00,76.35,1
37.00,80.16,1
129.00,83.59,1
83.00,86.55,1
52.00,88.81,1
118.00,90.10,1
92.00,91.24,1
42.00,91.93,1
92.00,91.63,1
77.00,90.87,1
175.00,90.77,1
76.00,91.87,1
42.00,92.72,1
144.00,92.81,1
42.00,92.88,1
35.00,92.03,1
70.00,89.85,1
185.00,88.20,1
125.00,88.72,1
64.00,90.31,1
41.00,90.95,1
113.00,90.57,1
49.00,89.90,1
36.00,88.45,1
64.00,85.95,1
193.00,84.16,1
83.00,84.43,1
69.00,85.38,1
131.00,86.18,1
41.00,87.02,1
86.00,87.25,1
84.00,86.99,1
60.00,86.51,1
74.00,85.59,1
124.00,84.80,1
104.00,84.92,1
54.00,85.40,1
109.00,85.58,1
223.00,86.99,1
127.00,90.84,1
92.00,95.47,1
102.00,99.25,1
79.00,101.94,1
40.00,103.07,1
215.00,103.61,1
128.00,105.54,1
132.00,108.50,1
105.00,111.28,1
65.00,113.07,1
60.00,113.13,1
36.00,111.22,1
43.00,107.54,1
164.00,103.55,1
66.00,100.72,1
41.00,98.01,1
62.00,94.46,1
45.00,90.36,1
61.00,86.01,1
65.00,81.78,1
42.00,77.77,1
54.00,73.84,1
51.00,70.07,1
61.00,66.68,1
64.00,63.86,1
68.00,61.73,1
78.00,60.37,1
108.00,60.09,1
132.00,61.41,1
76.00,64.10,1
49.00,66.78,1
94.00,68.82,1
73.00,70.66,1
42.00,72.05,1
70.00,72.60,1
91.00,72.87,1
165.00,74.13,1
69.00,76.69,1
59.00,79.10,1
77.00,80.48,1
63.00,81.16,1
45.00,81.03,1
43.00,79.86,1
64.00,77.94,1
63.00,75.84,1
83.00,73.99,1
82.00,72.71,1
36.00,71.67,1
79.00,70.44,1
39.00,69.09,1
112.00,68.01,1
38.00,67.43,1
79.00,66.97,1
78.00,66.67,1
129.00,67.27,1
68.00,68.84,1
106.00,70.82,1
50.00,72.71,1
122.00,74.46,1
107.00,76.64,1
40.00,78.87,1
109.00,80.40,1
96.00,81.82,1
122.00,83.71,1
68.00,85.75,1
57.00,87.06,1
36.00,86.99,1
124.00,86.14,1
36.00,85.29,1
35.00,83.73,1
66.00,81.20,1
73.00,78.57,1
51.00,76.15,1
44.00,73.61,1
46.00,70.76,1
44.00,67.74,1
39.00,64.64,1
46.00,61.52,1
79.00,58.86,1
71.00,57.16,1
85.00,56.52,1
78.00,56.80,1
71.00,57.71,1
119.00,59.30,1
125.00,62.14,1
97.00,66.10,1
53.00,70.00,1
79.00,72.98,1
74.00,75.18,1
144.00,77.44,1