175,103.1,1
88,465.69,1
71,454.78,1
140,434.51,1
87,408.27,1
840,384.37,1
216,369.89,1
444,360.85,1
483,355.17,1
1023,359.15,1
459,374.95,1
381,393.82,1
315,407.82,1
140,414.48,1
916,418.28,1
164,425.02,1
66,426.93,1
115,417.72,1
173,400.77,1
144,379.68,1
254,357.04,1
242,335.41,1
54,314.43,1
404,294.34,1
1023,284.93,1
323,291.4,1
57,300.94,1
621,307,1
456,315.99,1
600,329.98,1
89,344.11,1
60,350.4,1
790,351.82,1
144,355.99,1
226,358.18,1
148,354.06,1
549,348.1,1
1023,350.79,1
427,366.14,1
959,389.24,1
160,414.61,1
224,432.61,1
181,438.49,1
50,433.69,1
327,420.77,1
421,406.37,1
215,393.42,1
82,378.29,1
986,365.57,1
206,362.56,1
327,362.54,1
385,360.84,1
366,359.71,1
690,361.93,1
1023,374.49,1
406,397.66,1
223,419.14,1
355,431.58,1
79,435.15,1
229,429.64,1
698,421.42,1
57,415.14,1
350,406.24,1
739,398.42,1
423,397.87,1
316,400.01,1
119,398.13,1
180,389.6,1
146,375.42,1
432,359.7,1
830,351.14,1
297,352.75,1
90,354.82,1
209,350.29,1
148,340.71,1
42,326.71,1
259,309.32,1
130,291.57,1
288,275.11,1
94,260.12,1
593,248.95,1
306,245.39,1
332,247.26,1
60,249.02,1
763,252.18,1
398,262.62,1
497,278.85,1
773,299.87,1
493,326.86,1
361,354.06,1
1023,381.5,1
230,411.58,1
876,440.31,1
1023,472.38,1
1023,513.74,1
1023,562.17,1
811,612.39,1
654,657.56,1
172,689.05,1
122,699.55,1
55,688.07,1
890,665.91,1
523,646.55,1
378,629.58,1
300,608.93,1
446,584.91,1
1023,565.62,1
420,556.32,1
682,551.89,1
103,545.87,1
1023,539.04,1
850,540.8,1
418,550.22,1
212,554.81,1
637,552.18,1
1023,552.65,1
576,561.79,1
148,569.37,1
746,569.71,1
149,565.92,1
242,554.9,1
738,539.56,1
67,524.82,1
286,505.82,1
1023,488.4,1
1023,486.67,1
938,502.28,1
108,522.45,1
34,530.32,1
592,525.22,1
973,522.09,1
329,526.19,1
836,532.28,1
428,539.4,1
154,542.2,1
624,537.66,1
560,532.65,1
699,531.42,1
778,535.5,1
537,544,1
1023,556.22,1
549,573.05,1
930,592.13,1
243,608.97,1
703,619.06,1
264,622.08,1
269,616.23,1
493,602.09,1
374,584.9,1
388,565.95,1
473,546.28,1
242,526.25,1
144,502.78,1
59,473.15,1
912,444.65,1
816,430.54,1
44,426.95,1
418,421.02,1
375,412.96,1
40,403.17,1
986,394.31,1
394,394.4,1
770,402.48,1
1023,419.78,1
555,446.87,1
413,473.78,1
283,492.3,1
162,499.55,1
678,499.09,1
49,495.19,1
389,485.48,1
58,469.37,1
61,446.27,1
278,417.76,1
219,389.23,1
488,364.62,1
142,344.91,1
263,327.08,1
166,309.59,1
718,296.93,1
1023,299.22,1
524,318.19,1
546,343.74,1
75,365.77,1
74,376.8,1
56,375.07,1
415,366.29,1
122,355.82,1
96,342.38,1
558,328.01,1
178,317.74,1
48,307.38,1
159,292.84,1
196,276.77,1
1023,268.4,1
250,273.93,1
139,282.8,1
183,286.04,1
74,283.81,1
550,280.01,1
658,283.02,1
380,294.59,1
242,307.36,1
289,316.43,1
86,320.36,1
1023,325.03,1
128,336.57,1
804,351.43,1
138,366.63,1
262,377.14,1
267,380.34,1
53,377.25,1
208,367.17,1
150,352.51,1
195,335.51,1
120,316.93,1
139,297.08,1
98,276.26,1
230,255.95,1
552,241.2,1
152,234.31,1
81,229.08,1
366,223.15,1
873,225.23,1
507,241.08,1
70,261.36,1
107,274.4,1
84,278.33,1
356,277.33,1
367,277.02,1
56,277.1,1
557,276.56,1
118,277.66,1
145,277.08,1
159,272.14,1
494,267.3,1
121,265.29,1
324,263.75,1
408,263.58,1
266,266.39,1
79,268.14,1
296,266.56,1
219,263.9,1
79,259.88,1
302,253.86,1
112,247.47,1
48,239.17,1
47,227.1,1
641,216.89,1
48,213.34,1
102,210.52,1
300,205.99,1
191,203.11,1
86,200.56,1
36,195.29,1
289,188.55,1
267,184.47,1
638,187.4,1
798,202.7,1
352,228.97,1
620,258.97,1
201,288.01,1
117,309.98,1
340,322.86,1
52,328.91,1
856,333.38,1
158,341.64,1
47,346.7,1
429,344.73,1
159,340.63,1
164,333.81,1
36,321.85,1
242,306.08,1
347,291.16,1
234,279.88,1
591,273.67,1
220,273.42,1
96,273.51,1
170,269.32,1
590,265.71,1
53,265.75,1
129,263.83,1
500,260.34,1
90,259.16,1
189,256.88,1
113,251.42,1
36,242.7,1
538,234.03,1
145,230.09,1
115,227.28,1
105,221.59,1
291,215.03,1
134,209.73,1
87,204.11,1
243,197.66,1
153,192.22,1
198,187.91,1
139,184.11,1
64,179.61,1
111,173.38,1
272,167.52,1
159,164.27,1
114,162.19,1
555,163.04,1
603,173.37,1
219,191.83,1
500,212.24,1
266,233.03,1
112,250.58,1
374,262.79,1
102,271.3,1
220,275.4,1
108,274.81,1
226,270.7,1
231,265.17,1
266,260.08,1
94,254.7,1
611,251,1
112,251.69,1
315,253.39,1
292,254.85,1
443,258.61,1
506,266.85,1
103,277.16,1
499,285.85,1
618,297.18,1
250,312.36,1
259,324.95,1
73,330.72,1
140,328.69,1
160,320.52,1
113,308.38,1
967,300.13,1
167,302.16,1
222,306.28,1
51,304.75,1
303,298.69,1
41,289.99,1
736,283.06,1
134,282.02,1
196,281.82,1
696,282.45,1
964,294.71,1
358,318.97,1
436,344.37,1
105,363.31,1
52,371.47,1
42,367.49,1
464,357.21,1
102,346.45,1
261,334.51,1
127,320.6,1
431,307.23,1
277,297.39,1
280,290.52,1
34,282.89,1
83,271.31,1
219,257.05,1
409,245.39,1
139,238.16,1
139,231.62,1
215,224.22,1
90,216.63,1
187,208.51,1
313,201.86,1
139,198.01,1
275,195.69,1
454,196.91,1
619,206.24,1
349,223.33,1
139,240.98,1
128,252.67,1
152,257.74,1
586,261.47,1
395,269.86,1
312,281.23,1
166,290.38,1
138,294.14,1
166,292.34,1
390,288.41,1
440,287.4,1
601,292.58,1
70,300.99,1
248,305.61,1
211,305.43,1
200,302.39,1
200,296.77,1
72,288.2,1
48,275.39,1
40,258.3,1
288,240.18,1
402,226.88,1
118,219.25,1
187,213.03,1
358,208.29,1
73,205.86,1
51,201.82,1
256,195.62,1
154,190.36,1
180,186.23,1
621,186.28,1
251,194.06,1
298,205.27,1
212,215.76,1
40,222.87,1
125,224.36,1
98,221.29,1
355,217.22,1
353,216.55,1
246,219.69,1
195,223.4,1
60,224.58,1
856,227.73,1
371,240.3,1
181,256.57,1
131,267.57,1
231,272.65,1
133,273.51,1
354,272.15,1
60,269.56,1
110,263.53,1
130,253.62,1
101,241.57,1
270,229.4,1
51,218.3,1
318,208.35,1
94,200.36,1
51,192.27,1
41,181.74,1
111,169.74,1
189,158.75,1
172,150.61,1
118,144.82,1
194,140.62,1
125,137.99,1
258,137.23,1
305,139.97,1
278,146.9,1
170,155.83,1
1009,170.88,1
180,196.35,1
467,224.36,1
46,247.83,1
208,263.75,1
112,271.92,1
244,274.74,1
182,274.26,1
347,272.71,1
109,270.67,1
60,265.33,1
96,255.13,1
114,241.96,1
130,227.7,1
75,213.04,1
128,198.24,1
279,185.48,1
1023,183.75,1
112,196.65,1
208,211.97,1
90,221.71,1
190,226.54,1
131,227.69,1
262,226.95,1
236,226.25,1
508,228.51,1
88,233.75,1
265,237.84,1
171,239.62,1
80,238.71,1
189,234.44,1
207,228.95,1
85,222.88,1
520,218.31,1
40,217.24,1
193,215.79,1
35,211.36,1
55,203.63,1
127,193.26,1
112,182.45,1
75,171.73,1
99,160.89,1
202,151.27,1
854,150.17,1
240,162.1,1
40,177.13,1
284,187.67,1
106,195.39,1
167,200.26,1
141,202.16,1
401,203.95,1
386,209.52,1
272,218.72,1
88,226.9,1
201,230.98,1
59,230.98,1
349,228.88,1
203,227.65,1
215,227.2,1
198,226.22,1
263,225.22,1
60,223.49,1
112,218.87,1
54,210.92,1
84,200.4,1
117,188.6,1
164,177.39,1
292,169.1,1
159,164.7,1
38,161.26,1
122,156.26,1
43,149.98,1
45,142.33,1
200,134.57,1
101,128.73,1
54,123.81,1
144,118.89,1
164,115.4,1
108,113.72,1
152,113.09,1
296,114.72,1
311,120.86,1
258,131.29,1
260,143.85,1
237,157.03,1
61,168.41,1
90,175.18,1
142,177.7,1
76,177.47,1
156,175.13,1
421,174.24,1
43,176.41,1
76,177.05,1
209,175,1
38,172.05,1
103,167.34,1
168,161.63,1
177,157.04,1
80,153.33,1
349,151.1,1
101,151.68,1
229,153.54,1
140,155.66,1
102,157.17,1
186,157.5,1
311,159.04,1
138,162.74,1
419,168.54,1
205,177.12,1
39,184.96,1
64,187.62,1
218,186.64,1
125,184.89,1
156,182.6,1
56,178.9,1
39,172.7,1
53,163.85,1
208,154.61,1
239,148.33,1
163,145.66,1
194,145.07,1
240,146.38,1
112,149.03,1
198,151.59,1
152,153.98,1
96,155.65,1
490,158.65,1
89,165.31,1
94,171.21,1
90,173.06,1
410,174.41,1
67,177.76,1
70,179.51,1
258,178.76,1
56,177.58,1
195,175.48,1
159,173.08,1
128,170.84,1
287,169.29,1
38,168.63,1
53,166,1
311,162.29,1
185,161.21,1
237,162.65,1
312,166.37,1
264,173,1
212,181.03,1
342,189.64,1
50,197.74,1
209,202.72,1
174,205.12,1
98,205.58,1
139,203.35,1
482,202.02,1
170,204.85,1
146,208.22,1
339,210.51,1
254,214.2,1
57,217.4,1
178,217.17,1
92,213.95,1
212,209.18,1
434,206.48,1
127,207.59,1
174,208.69,1
199,208.21,1
125,206.73,1
48,202.86,1
328,197.75,1
73,193.75,1
432,191.78,1
489,195.75,1
72,204.51,1
158,210.95,1
217,213.84,1
96,214.67,1
57,212.05,1
34,205.06,1
208,195.71,1
33,186.13,1
200,176.61,1
83,167.8,1
227,160.45,1
94,154.78,1
319,151.41,1
133,151.01,1
604,155.55,1
674,170.42,1
256,194.46,1
244,218.11,1
130,236.11,1
208,247.87,1
109,254,1
48,254.17,1
86,248.31,1
223,239.27,1
87,229.61,1
153,219.22,1
229,209.22,1
45,200.12,1
62,189.75,1
82,177.68,1
156,165.79,1
488,158.55,1
678,162.73,1
63,176.32,1
224,189.31,1
168,198.55,1
116,204.59,1
341,208.52,1
144,212.4,1
109,214.43,1
154,213.14,1
161,209.9,1
172,205.86,1
104,201.01,1
474,197.75,1
285,199.76,1
267,205.54,1
291,212.3,1
75,218.05,1
282,221.19,1
112,222.48,1
276,222.57,1
360,223.73,1
92,226.21,1
611,230.15,1
178,237.9,1
200,245.57,1
391,251.29,1
228,257.34,1
88,261.17,1
371,261.85,1
137,261.7,1
426,261.79,1
90,262.12,1
153,260,1
112,253.96,1
146,245.31,1
87,234.69,1
67,222.06,1
49,207.35,1
255,192.79,1
202,181.65,1
63,173.15,1
262,165.84,1
248,161.69,1
187,160.99,1
99,161.11,1
423,162.54,1
405,169.4,1
46,179.63,1
158,186.88,1
128,190.25,1
50,190.37,1
194,187.65,1
198,184.63,1
74,181.72,1
96,177.14,1
140,171.15,1
223,165.9,1
220,163.08,1
100,161.84,1
47,159.41,1
83,154.59,1
357,150.53,1
129,150.09,1
169,151.28,1
66,151.59,1
240,151.29,1
213,152.32,1
312,156.13,1
461,164.62,1
87,176.52,1
78,185.63,1
268,190.64,1
219,195.04,1
456,201.51,1
132,210.21,1
335,218.6,1
631,229.58,1
228,245.39,1
438,261.86,1
200,276.51,1
91,286.17,1
36,287.54,1
178,281.9,1
107,272.38,1
135,260.47,1
62,246.47,1
271,232.04,1
398,221.68,1
61,215.77,1
49,208.85,1
136,199.1,1
70,188.35,1
44,176.6,1
135,164.26,1
239,154.01,1
1023,154.65,1
338,171.7,1
158,194.37,1
100,211.41,1
216,222.12,1
742,233.48,1
479,252.4,1
589,277.32,1
244,302.79,1
247,323.06,1
142,335.08,1
575,342.32,1
301,349.67,1
298,355.89,1
126,357.31,1
144,352.33,1
125,341.3,1
362,327.9,1
34,314.19,1
64,297.5,1
428,279.84,1
82,265.46,1
206,252.34,1
239,240.09,1
182,229.99,1
33,219.98,1
460,210.95,1
130,206.1,1
247,203.59,1
1023,208.52,1
319,227.12,1
98,248.28,1
191,262,1
136,268.9,1
243,271.05,1
173,270.31,1
344,268.53,1
497,269.52,1
250,274.49,1
174,278.87,1
58,278.41,1
125,272.26,1
276,263.4,1
42,253.91,1
288,243.66,1
111,233.84,1
54,223.32,1
84,210.44,1
259,197.67,1
240,188.38,1
74,181.81,1
309,176.56,1
185,174.01,1
559,176.54,1
261,185.56,1
225,197.11,1
1023,213.67,1
123,238.88,1
56,261.09,1
137,272.44,1
124,275.82,1
193,274.06,1
77,268.49,1
399,261.55,1
109,255.77,1
220,249.83,1
239,243.58,1
287,238.91,1
226,236.04,1
290,234.57,1
257,234.48,1
38,233.62,1
52,228.43,1
380,221.23,1
80,215.81,1
173,210.46,1
378,206.08,1
71,204.2,1
194,201.93,1
153,198.58,1
142,194.77,1
111,189.97,1
164,184.41,1
209,179.44,1
83,175.23,1
308,171.88,1
104,170.29,1
115,168.66,1
446,168.29,1
583,175.55,1
257,190.85,1
35,205.52,1
306,215.11,1
243,222.65,1
387,230.77,1
286,240.08,1
388,250.33,1
159,259.96,1
163,265.87,1
126,266.65,1
268,264.05,1
215,260.59,1
199,256.76,1
338,253.22,1
262,251.57,1
212,250.88,1
272,249.97,1
44,247.62,1
58,241.1,1
152,230.74,1
140,219.37,1
163,208.39,1
65,197.55,1
316,187.82,1
65,180.53,1
406,176.06,1
207,175.79,1
266,178.8,1
196,182.89,1
64,185.93,1
134,185.83,1
100,183.19,1
141,179.04,1
317,175.74,1
789,180.44,1
319,196.33,1
125,214.78,1
188,227.95,1
211,236.3,1
280,242.19,1
238,247,1
215,250.52,1
71,251.01,1
166,247.42,1
35,240.1,1
297,231.02,1
372,224.74,1
174,222.56,1
110,220.4,1
105,215.59,1
47,207.84,1
89,197.41,1
182,186.35,1
200,177.17,1
314,171.74,1
68,169.35,1
202,167.33,1
172,165.58,1
185,164.83,1
453,167.02,1
397,175.5,1
443,190.18,1
325,208.37,1
117,225.31,1
347,238.22,1
147,248.06,1
284,254.99,1
37,258.05,1
289,257.14,1
140,254.21,1
375,251.38,1
226,250.16,1
360,250.77,1
329,253.48,1
170,256.98,1
150,257.91,1
75,254.59,1
393,249.38,1
122,245.32,1
88,240.1,1
88,231.39,1
219,221.1,1
262,212.47,1
374,208.15,1
413,209.74,1
170,215.35,1
99,219.55,1
128,219.6,1
382,218.45,1
292,220.14,1
358,225.11,1
133,230.89,1
120,233.8,1
464,235.19,1
309,239.67,1
294,246.52,1
132,252.09,1
166,253.96,1
374,253.9,1
218,254.81,1
124,254.81,1
190,251.79,1
280,247.65,1
36,242.8,1
146,235.22,1
43,224.74,1
92,212,1
144,198.4,1
70,185.23,1
304,173.96,1
308,167.76,1
320,167.76,1
141,171.2,1
132,174.22,1
140,175.26,1
234,175.59,1
723,181.07,1
111,194.07,1
173,206.77,1
195,214.94,1
72,219.31,1
345,221.03,1
413,224.72,1
205,231.54,1
157,237.17,1
660,243.35,1
128,253.32,1
331,262.83,1
103,268.75,1
63,269.37,1
262,264.95,1
90,258.42,1
437,252.18,1
389,250.34,1
41,251.05,1
124,248.2,1
208,241.91,1
158,234.92,1
62,226.67,1
166,216.57,1
594,209.9,1
223,210.92,1
174,214.74,1
341,218.08,1
128,221.54,1
733,227.84,1
159,239.55,1
244,251.24,1
122,258.16,1
63,259.46,1
127,254.87,1
354,248.52,1
118,243.36,1
280,238.58,1
144,233.85,1
739,233.32,1
40,238.97,1
417,245.59,1
538,254.17,1
127,265.68,1
131,273.28,1
221,275.03,1
264,274.18,1
268,272.88,1
54,269.93,1
749,268.06,1
172,272,1
208,276.77,1
64,276.67,1
188,271.78,1
130,263.81,1
96,253.49,1
124,240.96,1
433,229.89,1
310,224.68,1
75,222.62,1
347,220.36,1
152,218.97,1
400,219.36,1
388,223.49,1
364,231.96,1
267,242.19,1
320,252.02,1
228,260.55,1
239,266.79,1
36,268.85,1
382,267.25,1
776,270.24,1
58,280.04,1
158,286.9,1
234,287.64,1
213,285.58,1
146,281.25,1
56,273.3,1
47,260.72,1
160,245.13,1
235,230.15,1
199,218.01,1
245,208.85,1
171,202.1,1
33,195.42,1
165,187.2,1
90,178.51,1
271,171.1,1
363,168.03,1
305,170.96,1
165,176.96,1
331,183.66,1
162,190.87,1
245,197.48,1
485,205.37,1
71,215.25,1
208,222.55,1
500,228.9,1
209,237.91,1
127,245.54,1
60,247.52,1
278,245.16,1
219,242.15,1
279,240.08,1
39,237.31,1
295,232.75,1
262,228.95,1
312,227.85,1
237,228.75,1
82,229.05,1
105,225.87,1
190,219.98,1
234,214.16,1
36,208.39,1
151,200.88,1
64,191.82,1
193,182.48,1
306,175.6,1
455,175.04,1
268,181.11,1
274,190.21,1
422,201.08,1
507,216.1,1
175,233.72,1
261,248.63,1
829,264.37,1
366,286.49,1
175,308.2,1
133,321.49,1
323,327.25,1
148,328.45,1
190,325.21,1
308,318.88,1
363,313.19,1
82,307.73,1
90,298.48,1
158,285.05,1
247,270.81,1
121,257.41,1
313,245.35,1
233,236.17,1
76,228.45,1
127,219.26,1
77,208.37,1
47,195.9,1
98,182.15,1
217,169.49,1
203,160.32,1
138,154.33,1
190,150.22,1
570,151.09,1
398,161.04,1
225,176.49,1
124,190.44,1
148,199.89,1
305,206.44,1
131,211.95,1
358,216.77,1
189,221.84,1
297,226.89,1
504,233.86,1
391,245.43,1
71,257.34,1
403,265.61,1
111,271.29,1
285,274.14,1
424,276.37,1
96,279.09,1
194,278.63,1
301,275.58,1
69,271.3,1
57,263.14,1
306,252.32,1
43,241.63,1
123,229.78,1
143,216.76,1
324,205.76,1
245,199.17,1
461,198.08,1
246,202.4,1
299,209.4,1
337,217.55,1
330,227.33,1
431,239.09,1
330,252.68,1
58,264.15,1
178,269.3,1
94,268.45,1
285,264.32,1
165,259.29,1
556,256.6,1
173,258.04,1
173,259.49,1
142,257.45,1
34,251.48,1
77,241.02,1
312,229.25,1
225,220.4,1
280,215.02,1
158,211.62,1
71,207.53,1
174,201.49,1
35,193.98,1
619,189.01,1
159,190.85,1
161,195.01,1
590,200.59,1
234,211.21,1
44,221.4,1
612,229.55,1
497,242.82,1
274,260.45,1
127,274.91,1
158,282.38,1
334,285.14,1
343,287.47,1
81,288.84,1
208,286.21,1
131,279.96,1
43,270.19,1
179,257.04,1
101,242.7,1
225,228.79,1
136,216.33,1
174,205.25,1
90,194.8,1
208,185.05,1
50,176.12,1
65,166.6,1
106,156.21,1
123,146.45,1
447,140.77,1
247,142.27,1
92,147.25,1
80,150.39,1
221,151.71,1
283,154.36,1
39,158.11,1
147,159.92,1
123,159.78,1
364,160.65,1
150,164.28,1
158,168.39,1
349,172.7,1
351,180.25,1
42,189.08,1
134,194.22,1
251,196.33,1
460,200.51,1
288,209.16,1
265,219.56,1
67,227.51,1
261,231.49,1
100,232.55,1
115,230.45,1
422,227.46,1
244,227.67,1
177,229.27,1
127,228.92,1
156,225.95,1
95,220.59,1
240,214.07,1
52,207.22,1
328,200.72,1
108,195.88,1
32,190.5,1
191,183.1,1
377,177.97,1
66,176.54,1
201,175.49,1
229,174.66,1
377,176.79,1
244,182.72,1
99,189.15,1
134,192.52,1
383,194.92,1
301,200.23,1
564,210.5,1
52,223.57,1
220,233.46,1
100,238.17,1
110,238.21,1
115,233.98,1
409,229.22,1
324,228.44,1
258,231.17,1
158,233.85,1
82,233.58,1
231,230.2,1
104,225.38,1
282,220.22,1
248,216.59,1
434,216.68,1
251,220.88,1
992,232.65,1
173,253.9,1
243,274.72,1
346,289.75,1
197,300.93,1
224,307.46,1
450,311.31,1
598,318.2,1
404,329.9,1
42,339.84,1
77,340.86,1
354,334.84,1
224,327.53,1
527,322.13,1
181,319.45,1
49,314.61,1
228,304.73,1
426,294.84,1
131,287.6,1
200,279.93,1
242,271.24,1
224,263.17,1
56,254.5,1
139,243.45,1
173,231.2,1
66,218.8,1
149,205.9,1
223,194.15,1
218,185.54,1
305,180.82,1
60,178.59,1
391,177.73,1
384,181.36,1
197,189.32,1
50,195.96,1
189,198.53,1
132,198.54,1
336,198.5,1
134,199.66,1
296,201.38,1
488,206.07,1
722,219.27,1
312,240.67,1
108,261,1
128,273.27,1
156,277.87,1
108,276.65,1
119,270.65,1
159,261.34,1
325,251.9,1
248,245.12,1
204,240.34,1
242,236.18,1
163,232.25,1
203,227.95,1
298,224.31,1
255,222.84,1
280,223.35,1
50,223.5,1
284,221.73,1
185,219.68,1
234,218.2,1
306,217.78,1
410,220.7,1
143,226.09,1
129,229.54,1
590,232.76,1
225,240.23,1
438,250.16,1
320,261.19,1
134,270.96,1
255,276.41,1
263,278.89,1
145,279.18,1
826,281.56,1
88,289.63,1
265,296.65,1
541,301.76,1
262,308.97,1
94,313.82,1
143,311.99,1
162,304.81,1
127,294.18,1
85,280.55,1
76,263.94,1
173,245.96,1
332,230.39,1
37,218.18,1
142,206.21,1
151,194.21,1
90,183.07,1
403,174.62,1
120,170.78,1
533,171.95,1
169,178.4,1
233,186.52,1
202,193.45,1
295,200.02,1
507,209.14,1
203,221.66,1
592,236.28,1
108,252,1
212,264.05,1
113,269.82,1
102,269.69,1
127,264.33,1
87,255.19,1
122,243.31,1
1023,237.44,1
269,245.23,1
46,256.3,1
109,260.07,1
178,258,1
143,252.92,1
98,245.34,1
155,235.56,1
290,226.11,1
187,219.06,1
358,214.92,1
318,214.75,1
227,217.6,1
138,220.09,1
58,219.3,1
97,214.36,1
152,206.89,1
106,198.55,1
339,191.46,1
121,187.21,1
328,185.29,1
199,185.8,1
446,189.69,1
177,196.85,1
402,205.7,1
137,214.88,1
47,220.72,1
134,220.9,1
303,218.82,1
320,218.76,1
167,220.65,1
141,221.37,1
258,220.43,1
44,218.22,1
40,212.55,1
133,203.28,1
233,193.99,1
128,186.52,1
88,179.45,1
479,174.63,1
166,175.2,1
143,177.73,1
199,179.15,1
260,180.92,1
135,183.34,1
223,185.34,1
244,187.55,1
36,189.21,1
304,189.34,1
390,191.74,1
122,197.19,1
115,201,1
101,200.99,1
153,198.23,1
125,193.98,1
157,188.97,1
161,183.87,1
149,179.11,1
64,173.9,1
52,166.92,1
34,157.74,1
89,147.27,1
48,136.61,1
64,126.05,1
72,115.91,1
77,106.73,1
30,98.34,1
49,90.24,1
30,82.41,1
35,74.93,1
32,67.86,1
58,61.54,1
52,56.35,1
40,52.22,1
45,48.82,1
32,45.96,1
78,43.81,1
55,42.73,1
51,42.48,1
38,42.5,1
71,42.74,1
36,43.3,1
40,43.81,1
31,43.97,1
51,43.89,1
30,43.73,1
84,43.78,1
31,44.26,1
40,44.69,1
32,44.73,1
39,44.46,1
35,43.98,1
41,43.4,1
34,42.78,1
31,42.04,1
35,41.18,1
40,40.32,1
39,39.61,1
35,39.03,1
30,38.45,1
31,37.77,1
40,37.1,1
39,36.61,1
31,36.25,1
30,35.87,1
47,35.53,1
31,35.38,1
46,35.38,1
33,35.49,1
54,35.78,1
31,36.24,1
58,36.82,1
35,37.56,1
39,38.25,1
33,38.72,1
48,39.06,1
34,39.38,1
32,39.54,1
31,39.42,1
36,39.1,1
34,38.7,1
32,38.24,1
38,37.75,1
34,37.3,1
35,36.89,1
41,36.56,1
32,36.33,1
37,36.13,1
42,36.01,1
72,36.31,1
42,37.23,1
47,38.37,1
50,39.51,1
37,40.59,1
42,41.44,1
30,41.96,1
44,42.18,1
31,42.19,1
31,41.92,1
41,41.45,1
54,41.09,1
32,40.96,1
54,40.93,1
31,40.97,1
50,41.01,1
35,41.06,1
48,41.13,1
31,41.16,1
53,41.17,1
33,41.23,1
56,41.35,1
31,41.53,1
46,41.65,1
34,41.66,1
47,41.62,1
37,41.58,1
35,41.47,1
31,41.15,1
34,40.63,1
38,40.03,1
31,39.41,1
42,38.81,1
32,38.28,1
52,37.93,1
37,37.83,1
47,37.93,1
39,38.17,1
52,38.54,1
41,39.07,1
75,39.91,1
34,41.09,1
48,42.21,1
31,42.99,1
53,43.51,1
33,43.87,1
70,44.26,1
36,44.82,1
64,45.47,1
32,46.07,1
37,46.38,1
49,46.35,1
45,46.29,1
32,46.12,1
50,45.78,1
42,45.45,1
38,45.12,1
53,44.79,1
30,44.49,1
35,44.02,1
32,43.3,1
37,42.43,1
59,41.74,1
54,41.56,1
47,41.82,1
34,42.14,1
38,42.26,1
59,42.34,1
45,42.67,1
82,43.42,1
63,44.8,1
59,46.58,1
75,48.51,1
41,50.44,1
38,51.85,1
62,52.68,1
40,53.24,1
75,53.7,1
58,54.33,1
75,55.21,1
32,56.03,1
52,56.39,1
44,56.28,1
72,56.09,1
37,55.95,1
127,56.25,1
36,57.32,1
32,58.15,1
53,58.12,1
67,57.87,1
62,57.83,1
48,57.86,1
81,57.94,1
41,58.16,1
133,58.85,1
124,60.98,1
69,64.31,1
62,67.4,1
39,69.44,1
78,70.48,1
166,71.93,1
74,74.65,1
34,77.12,1
46,78,1
151,78.37,1
42,79.29,1
314,81.9,1
342,89.54,1
166,101.99,1
193,115.24,1
208,127.78,1
33,138.4,1
143,145.35,1
108,149.34,1
131,151.48,1
84,151.86,1
51,150.03,1
46,145.6,1
34,138.89,1
136,131.26,1
95,124.45,1
53,118.28,1
46,111.74,1
61,104.78,1
44,97.77,1
56,90.9,1
244,85.98,1
115,84.85,1
200,86.75,1
207,91.29,1
126,97.83,1
265,105.55,1
116,114.32,1
244,123.32,1
155,132.35,1
146,140.63,1
61,146.47,1
252,150.38,1
144,154.23,1
151,157.77,1
120,159.92,1
148,160.73,1
167,160.84,1
215,161.37,1
84,162.06,1
137,161.54,1
55,159.2,1
56,154.68,1
40,147.81,1
157,140.11,1
589,137.43,1
166,143.22,1
68,151.07,1
455,158.3,1
92,167.4,1
236,176.01,1
193,182.99,1
216,189.16,1
377,195.87,1
437,206.1,1
520,221.75,1
181,239.99,1
197,254.83,1
146,263.59,1
121,266.6,1
93,264.08,1
414,259.39,1
124,255.89,1
58,250.75,1
44,240.89,1
199,228.25,1
175,216.2,1
154,205.7,1
153,196.19,1
85,186.97,1
52,176.87,1
75,165.54,1
34,153.39,1
40,140.59,1
42,127.51,1
128,115.43,1
131,105.96,1
321,101.13,1
86,101.21,1
137,103.15,1
95,104.98,1
74,106.22,1
165,107.01,1
324,110.09,1
281,117.81,1
223,128.94,1
132,140.25,1
127,149.28,1
90,155.14,1
80,157.7,1
127,157.53,1
78,155.61,1
90,152.08,1
190,148.06,1
59,144.49,1
112,140.48,1
124,136.15,1
62,131.84,1
251,128.33,1
177,127.55,1
193,129.35,1
162,132.43,1
63,135.18,1
60,135.68,1
90,133.82,1
51,130.39,1
544,129.54,1
70,134.66,1
52,140.17,1
260,143.32,1
56,146.17,1
169,147.97,1
31,147.96,1
79,145.63,1
64,141.1,1
111,135.61,1
79,129.99,1
63,124.16,1
187,118.86,1
462,118.31,1
148,124.41,1
118,132.19,1
74,137.54,1
131,140.33,1
77,141.23,1
203,141.28,1
166,142,1
72,142.88,1
56,141.84,1
74,138.52,1
39,133.42,1
75,127.01,1
52,119.91,1
84,112.73,1
58,105.85,1
46,99.15,1
91,92.77,1
482,90.71,1
59,95.34,1
99,101.49,1
78,105.57,1
148,108.52,1
218,112.06,1
383,119.03,1
111,129.43,1
122,139.05,1
66,145.26,1
97,148.07,1
237,149.43,1
250,152.31,1
118,156.54,1
126,159.64,1
248,161.84,1
98,164.11,1
144,165.27,1
91,164.64,1
291,163.81,1
188,164.9,1
462,169.6,1
89,177.49,1
87,183.62,1
62,184.91,1
37,181.84,1
49,175.05,1
279,167.52,1
44,161.63,1
175,156.3,1
54,150.77,1
75,144.56,1
58,137.22,1
118,129.67,1
88,122.8,1
132,117.04,1
244,113.72,1
222,114.43,1
265,119.06,1
220,126.66,1
186,135.6,1
203,144.5,1
208,153.1,1
440,163.3,1
297,177.12,1
104,191.17,1
41,200.03,1
81,202.41,1
393,202.44,1
173,204.36,1
175,206.62,1
99,206.65,1
105,203.77,1
88,198.12,1
383,192.76,1
167,190.79,1
73,189.52,1
80,185.53,1
86,179,1
95,170.97,1
288,163.88,1
37,158.93,1
103,153.76,1
79,147.42,1
139,141.03,1
91,135.21,1
160,130.29,1
252,127.74,1
357,130.05,1
103,136.36,1
173,142.73,1
392,149.81,1
201,159.78,1
330,171.36,1
116,182.57,1
272,191.94,1
76,198.8,1
122,201.96,1
130,201.35,1
188,198.96,1
106,195.62,1
131,191.01,1
104,185.07,1
88,177.96,1
40,169.3,1
117,159.45,1
62,149.48,1
93,139.71,1
268,131.94,1
62,127.39,1
284,125.31,1
174,126.24,1
409,131.4,1
492,143.27,1
380,162.17,1
130,182.61,1
206,199.1,1
153,210.81,1
225,218.8,1
50,223.04,1
125,222.64,1
112,218.36,1
266,212.96,1
241,209.13,1
280,207.79,1
209,208.27,1
366,210.55,1
373,216.17,1
44,222.85,1
116,225.31,1
216,223.8,1
80,220.44,1
95,214.47,1
135,206.16,1
47,196.45,1
160,185.78,1
231,176.47,1
32,168.97,1
105,160.98,1
39,151.89,1
145,142.66,1
184,135.17,1
442,132.98,1
246,137.72,1
34,144.76,1
109,148.8,1
147,150.25,1
163,151.06,1
146,151.8,1
110,152.01,1
53,150.62,1
110,147.28,1
81,142.79,1
264,139.08,1
100,137.53,1
343,138.45,1
106,141.98,1
203,146.22,1
147,150.06,1
115,153.07,1
48,153.81,1
71,151.64,1
33,146.83,1
32,139.68,1
48,130.82,1
35,121.11,1
44,111.05,1
105,101.63,1
36,93.5,1
95,86.48,1
69,80.73,1
308,78.15,1
84,79.98,1
116,83.64,1
127,87.32,1
47,90.68,1
62,92.56,1
100,93.16,1
225,94.57,1
66,97.59,1
153,100.87,1
126,104.15,1
65,107.08,1
75,108.49,1
188,109.31,1
94,110.82,1
99,112.23,1
53,112.44,1
203,112.26,1
39,112.52,1
193,112.92,1
67,113.56,1
87,113.71,1
84,112.75,1
50,110.8,1
54,107.64,1
112,103.91,1
37,100.24,1
246,97.72,1
120,97.94,1
271,101.16,1
372,108.86,1
133,120.56,1
140,131.91,1
174,141.03,1
260,149.47,1
87,157.4,1
170,163.2,1
145,166.94,1
233,169.99,1
98,172.55,1
298,174.79,1
148,177.68,1
310,181.48,1
158,186.01,1
60,188.97,1
169,188.67,1
189,187.03,1
116,185.09,1
175,182.42,1
45,178.56,1
142,173.09,1
90,166.69,1
168,160.34,1
42,154.08,1
231,148.23,1
99,143.87,1
58,139.82,1
159,135.22,1
64,130.89,1
150,126.88,1
80,123.31,1
182,120.58,1
264,120.42,1
258,124.28,1
153,130.84,1
391,139.39,1
154,150.29,1
69,159.96,1
292,166.84,1
178,173.44,1
275,180.34,1
348,188.51,1
119,197.52,1
225,204.54,1
107,208.7,1
242,210.6,1
125,210.98,1
80,209.01,1
108,203.82,1
128,196.6,1
36,187.94,1
74,177.4,1
207,166.75,1
203,158.86,1
35,152.96,1
39,146,1
166,138.19,1
133,131.84,1
238,128.2,1
312,128.83,1
242,134.22,1
108,141.34,1
98,146.67,1
389,151.6,1
370,160.65,1
207,173.25,1
336,186.38,1
298,199.93,1
346,214.18,1
244,228.16,1
318,240.75,1
156,250.93,1
80,256.17,1
162,255.64,1
243,252.14,1
183,248.01,1
185,243.24,1
160,237.46,1
42,229.74,1
60,218.73,1
57,204.93,1
121,190.1,1
68,175.56,1
106,161.7,1
171,149.55,1
67,139.63,1
107,130.88,1
75,122.84,1
95,115.59,1
281,110.78,1
366,111.89,1
298,119.87,1
174,131.32,1
304,143.54,1
140,155.71,1
60,165.12,1
175,170.38,1
149,173.35,1
246,175.83,1
281,179.52,1
160,184.39,1
357,189.91,1
91,195.81,1
165,199.62,1
118,200.38,1
77,198.28,1
420,195.84,1
51,195.51,1
64,193.65,1
261,189.48,1
80,185.55,1
312,182.48,1
38,180.24,1
255,177.9,1
121,175.76,1
66,172.98,1
216,169.03,1
133,165.65,1
194,163.2,1
76,160.87,1
287,159.01,1
288,160.1,1
299,165.26,1
219,172.83,1
326,181.69,1
239,191.59,1
166,200.79,1
118,206.85,1
328,210.65,1
142,214.14,1
227,216.65,1
270,218.55,1
281,221.43,1
48,223.57,1
198,222.56,1
143,219.28,1
218,215.34,1
152,211.27,1
138,206.64,1
107,200.7,1
46,192.83,1
171,183.55,1
197,175.26,1
133,168.93,1
126,163.4,1
167,158.36,1
36,153.39,1
77,147.17,1
239,141.12,1
326,139.16,1
85,141.13,1
97,142.86,1
179,143.22,1
207,144.23,1
339,147.93,1
366,156.19,1
256,168.32,1
388,182.43,1
480,199.62,1
130,218.36,1
140,232.67,1
68,239.8,1
190,241.19,1
144,239.15,1
257,235.78,1
280,233.17,1
188,231.79,1
174,229.94,1
224,227.21,1
86,223.48,1
44,216.87,1
70,206.71,1
348,196.57,1
474,192.6,1
70,194.51,1
36,194.91,1
214,191.72,1
180,188.28,1
297,186.64,1
180,187.1,1
144,187.88,1
386,189.33,1
321,194.39,1
244,202.32,1
98,209.15,1
75,211.68,1
299,211.13,1
227,211.18,1
658,215.9,1
122,226.08,1
292,236.21,1
216,243.71,1
415,250.76,1
245,258.5,1
374,266.4,1
343,274.65,1
118,281.57,1
169,283.71,1
212,281.48,1
76,276.02,1
34,266.06,1
61,251.41,1
143,234.38,1
56,217.02,1
450,202.48,1
223,194.47,1
147,190.58,1
309,188.15,1
322,189.06,1
810,198.17,1
281,216.9,1
326,238.01,1
131,254.97,1
427,267.82,1
164,278.22,1
448,286.88,1
151,293.98,1
158,297.17,1
419,297.1,1
427,299.01,1
636,306.36,1
291,318.3,1
229,328.81,1
451,335.82,1
349,342.29,1
376,348.48,1
48,351.12,1
331,348.13,1
166,341.61,1
150,332.04,1
63,318.12,1
78,299.93,1
74,278.66,1
48,255.52,1
260,233.04,1
80,213.6,1
189,196.81,1
100,182.15,1
150,169.44,1
130,158.57,1
158,149.75,1
79,142.44,1
572,139.51,1
432,146.45,1
281,161.09,1
525,179.45,1
208,200.25,1
163,218.56,1
298,232.11,1
229,242.89,1
428,252.84,1
139,262.15,1
294,268.81,1
277,273.28,1
106,275.54,1
416,275.62,1
468,278.19,1
50,282.55,1
279,283.5,1
422,283.36,1
100,284,1
437,283.85,1
331,285.15,1
246,287.84,1
190,288.74,1
306,287.56,1
102,284.64,1
53,277.67,1
273,267.15,1
596,260.2,1
257,260.53,1
369,264.36,1
40,267.07,1
275,266.28,1
344,264.6,1
443,266.21,1
252,270.89,1
380,276.46,1
200,281.58,1
464,286.44,1
168,291.37,1
224,293.95,1
323,293.95,1
67,291.98,1
96,285.4,1
280,275.42,1
84,264.83,1
186,253.28,1
144,241.1,1
104,228.65,1
96,215.34,1
283,202.89,1
250,194.25,1
59,188.25,1
152,181.76,1
94,174.59,1
392,169.43,1
183,168.67,1
361,171.76,1
618,181.01,1
510,199.55,1
640,225.93,1
270,255.55,1
148,280.59,1
359,298,1
356,311.49,1
331,323.03,1
216,331.33,1
832,339.86,1
92,351.4,1
358,359.89,1
193,362.69,1
244,360.98,1
134,354.5,1
199,343.68,1
118,329.47,1
129,312.47,1
64,292.84,1
154,271.58,1
83,250.2,1
67,228.89,1
202,208.57,1
42,190.48,1
91,173.55,1
146,158,1
285,146.5,1
884,146.14,1
506,162.13,1
221,186.5,1
782,213.16,1
127,242.13,1
256,266.83,1
154,283.32,1
244,293.2,1
374,299.42,1
439,306.1,1
134,312.5,1
269,315.08,1
371,315.23,1
324,315.94,1
43,314.83,1
106,307.85,1
236,296.43,1
153,284.01,1
162,271,1
298,258.56,1
465,250.69,1
153,247.82,1
166,245.2,1
508,243.31,1
149,244.83,1
135,245.67,1
211,243.4,1
60,238.73,1
229,231.92,1
127,224.41,1
321,217.93,1
345,214.99,1
207,215.72,1
495,219.49,1
581,229.85,1
382,246.98,1
229,264.82,1
383,279.73,1
243,292.04,1
399,302.23,1
448,312.29,1
209,322.04,1
233,327.89,1
400,330.38,1
266,332.08,1
534,334.5,1
316,338.92,1
293,343.14,1
272,344.71,1
94,342.22,1
112,333.78,1
47,319.37,1
164,300.87,1
340,282.79,1
141,267.84,1
43,253.09,1
133,236.53,1
68,219.24,1
81,201.75,1
156,184.98,1
358,172.33,1
234,166.17,1
221,164.68,1
437,167.32,1
93,173.59,1
152,179.03,1
147,181.72,1
130,182.54,1
172,181.91,1
88,180.07,1
119,176.59,1
280,173.11,1
114,171.3,1
213,170.22,1
63,168.76,1
130,165.95,1
55,161.45,1
36,154.97,1
34,146.27,1
31,135.95,1
32,124.64,1
30,112.95,1
45,101.46,1
41,90.71,1
31,80.84,1
30,71.77,1
34,63.54,1
30,56.24,1
35,49.9,1
34,44.54,1
35,40.14,1
29,36.56,1
41,33.74,1
37,31.71,1
38,30.38,1
30,29.54,1
40,29.07,1
32,28.93,1
35,29.01,1
32,29.22,1
38,29.55,1
36,30.01,1
38,30.59,1
32,31.21,1
38,31.81,1
33,32.37,1
38,32.91,1
36,33.42,1
38,33.93,1
34,34.41,1
39,34.83,1
34,35.2,1
35,35.5,1
33,35.68,1
35,35.76,1
35,35.78,1
32,35.75,1
34,35.64,1
35,35.49,1
35,35.36,1
34,35.24,1
39,35.15,1
34,35.13,1
35,35.13,1
34,35.11,1
36,35.08,1
34,35.05,1
38,35.05,1
34,35.08,1
36,35.11,1
34,35.14,1
36,35.15,1
34,35.15,1
36,35.15,1
33,35.14,1
36,35.11,1
35,35.08,1
36,35.07,1
34,35.07,1
38,35.09,1
31,35.1,1
33,35.05,1
34,34.94,1
35,34.82,1
38,34.76,1
36,34.77,1
35,34.83,1
32,34.87,1
36,34.86,1
34,34.84,1
37,34.84,1
34,34.86,1
37,34.9,1
33,34.94,1
37,34.97,1
34,35,1
39,35.06,1
34,35.15,1
37,35.25,1
34,35.33,1
37,35.4,1
34,35.46,1
38,35.51,1
34,35.57,1
38,35.62,1
34,35.68,1
51,35.84,1
32,36.16,1
37,36.47,1
34,36.66,1
38,36.77,1
34,36.83,1
36,36.83,1
35,36.78,1
40,36.73,1
34,36.71,1
36,36.67,1
37,36.61,1
35,36.55,1
37,36.49,1
34,36.42,1
38,36.35,1
34,36.28,1
37,36.21,1
30,36.1,1
42,35.97,1
35,35.91,1
39,35.93,1
33,35.97,1
39,35.99,1
32,36.01,1
49,36.08,1
32,36.28,1
34,36.45,1
34,36.49,1
37,36.45,1
34,36.4,1
44,36.38,1
34,36.46,1
34,36.51,1
38,36.51,1
34,36.49,1
32,36.41,1
34,36.23,1
33,36,1
33,35.73,1
34,35.45,1
35,35.19,1
34,34.96,1
30,34.74,1
38,34.51,1
35,34.36,1
36,34.3,1
34,34.28,1
37,34.31,1
31,34.34,1
32,34.31,1
33,34.21,1
34,34.1,1
32,33.98,1
55,34.03,1
32,34.39,1
52,34.94,1
32,35.59,1
46,36.24,1
30,36.81,1
52,37.34,1
45,37.98,1
43,38.75,1
37,39.44,1
37,39.93,1
36,40.2,1
43,40.33,1
35,40.39,1
32,40.3,1
43,40.08,1
43,39.91,1
38,39.84,1
40,39.79,1
39,39.73,1
32,39.61,1
52,39.5,1
35,39.51,1
34,39.51,1
48,39.45,1
38,39.49,1
34,39.52,1
31,39.37,1
32,39.01,1
48,38.63,1
33,38.39,1
59,38.37,1
27,38.56,1
46,38.74,1
60,39.08,1
38,39.73,1
34,40.31,1
31,40.56,1
39,40.51,1
291,42.45,1
40,48.01,1
36,54.01,1
36,58.02,1
38,60.35,1
39,61.37,1
133,62.17,1
35,63.53,1
212,65.91,1
36,69.63,1
36,72.8,1
39,74.03,1
31,73.71,1
39,72.19,1
40,69.88,1
33,67.06,1
39,63.91,1
87,61.03,1
35,58.88,1
47,56.99,1
31,54.99,1
70,53.13,1
39,51.7,1
42,50.48,1
32,49.16,1
39,47.73,1
34,46.25,1
42,44.83,1
32,43.51,1
49,42.35,1
41,41.48,1
78,41.18,1
31,41.46,1
70,42.05,1
75,43.14,1
40,44.68,1
33,45.93,1
38,46.55,1
42,46.73,1
32,46.6,1
32,46.1,1
48,45.38,1
43,44.75,1
31,44.16,1
49,43.52,1
31,42.92,1
54,42.41,1
50,42.18,1
48,42.28,1
30,42.41,1
43,42.36,1
32,42.14,1
60,41.96,1
31,41.95,1
66,42.11,1
75,42.81,1
36,44,1
31,44.92,1
54,45.39,1
35,45.69,1
50,45.84,1
36,45.85,1
156,46.64,1
32,48.84,1
47,51.11,1
59,52.67,1
31,53.74,1
39,54.1,1
34,53.76,1
41,52.95,1
33,51.81,1
34,50.4,1
82,49.17,1
51,48.68,1
33,48.48,1
57,48.16,1
33,47.82,1
74,47.61,1
48,47.77,1
31,47.97,1
43,47.81,1
108,47.96,1
33,48.92,1
70,50.04,1
40,51,1
54,51.73,1
69,52.37,1
53,53.15,1
36,53.73,1
47,53.81,1
31,53.43,1
54,52.72,1
41,51.92,1
34,51,1
36,49.82,1
38,48.47,1
30,47,1
42,45.5,1
33,44.06,1
32,42.67,1
39,41.33,1
44,40.22,1
33,39.36,1
106,39.2,1
64,40.33,1
49,42.19,1
33,43.82,1
41,44.9,1
85,45.89,1
59,47.36,1
176,50.06,1
177,55.31,1
102,62.69,1
40,69.7,1
184,75.75,1
90,81.97,1
120,87.98,1
84,93.06,1
239,98.21,1
386,106.68,1
143,119.17,1
45,130.65,1
75,137.58,1
61,140.42,1
216,141.35,1
180,142.95,1
86,144.91,1
122,145.51,1
272,146.14,1
133,148.39,1
127,150.7,1
87,151.38,1
124,150.41,1
256,149.59,1
183,150.81,1
186,153.43,1
119,155.92,1
138,157.3,1
215,158.2,1
180,159.83,1
213,162.28,1
137,164.93,1
83,166.21,1
95,164.97,1
68,161.41,1
102,156.1,1
80,149.82,1
38,142.58,1
94,134.41,1
157,126.93,1
95,121.2,1
157,117,1
47,113.71,1
86,110.23,1
59,106.25,1
545,105.93,1
70,112.23,1
36,119.28,1
188,123.42,1
38,126.21,1
221,128.16,1
217,131.16,1
136,135.64,1
375,141.69,1
175,150.36,1
123,158.98,1
84,164.43,1
133,166.64,1
173,167.14,1
177,167.42,1
196,168.07,1
282,170.04,1
781,178.65,1
540,199.06,1
410,226.75,1
154,252.81,1
292,272.61,1
69,285.32,1
361,292.12,1
140,295.33,1
342,296.13,1
445,297.45,1
420,302.23,1
261,308.64,1
66,311.61,1
76,307.46,1
61,296.46,1
290,282.34,1
303,270.07,1
135,260.35,1
39,249.41,1
744,240.78,1
200,240.51,1
144,242.99,1
172,242.32,1
40,238.14,1
48,229.58,1
552,221.18,1
366,219.99,1
383,225.59,1
565,236.39,1
298,251.69,1
244,266.63,1
451,279.39,1
209,291.04,1
476,301.39,1
174,310.33,1
590,318.54,1
631,330.7,1
289,346.75,1
164,358.84,1
88,361.96,1
42,355.51,1
1023,348.73,1
188,350.85,1
147,353.65,1
97,348.77,1
90,337.05,1
222,321.16,1
104,303.71,1
283,286.3,1
218,270.95,1
150,257.5,1
72,243.63,1
189,229.05,1
102,214.96,1
43,200.74,1
71,185.46,1
737,175.32,1
852,181.53,1
364,203.58,1
421,230.09,1
313,255.2,1
276,276.78,1
298,293.63,1
64,304.49,1
340,309.01,1
392,311.62,1
39,312.92,1
41,307.83,1
234,296.75,1
235,284.65,1
376,274.97,1
216,268.45,1
69,261.88,1
96,251.92,1
175,239.64,1
66,226.63,1
123,212.8,1
368,200.87,1
95,193.06,1
154,186.63,1
98,179.7,1
37,171.7,1
494,165.45,1
321,166.39,1
120,171.95,1
282,177.46,1
144,182.62,1
143,186.38,1
149,187.88,1
374,189.54,1
523,196.27,1
430,210.16,1
136,226.31,1
305,239.43,1
264,249.81,1
441,259.98,1
216,270.35,1
278,278.81,1
139,283.52,1
136,283.45,1
262,279.6,1
416,276.32,1
192,275.32,1
160,273.41,1
187,268.69,1
155,261.9,1
193,253.77,1
304,246.18,1
518,243.2,1
60,244.46,1
174,244.06,1
220,240.89,1
639,240.88,1
284,247.6,1
665,259.94,1
300,276.62,1
612,295.64,1
133,314.01,1
588,329.7,1
272,343.8,1
300,354.98,1
49,359.38,1
223,355.99,1
267,347.94,1
441,340.23,1
553,337.19,1
451,340.24,1
91,344.09,1
171,342.29,1
95,334,1
264,321.81,1
38,307.38,1
192,290.66,1
115,272.76,1
36,253.93,1
71,233.37,1
88,212.23,1
301,193.68,1
640,184.16,1
35,184.19,1
40,184.32,1
131,180.39,1
278,176.24,1
285,175.28,1
411,179.17,1
38,185.65,1
126,189.51,1
311,191.12,1
113,193.14,1
441,196.37,1
318,203.18,1
383,213.74,1
570,228.36,1
427,248.01,1
478,270.51,1
152,291.36,1
317,306.66,1
260,316.81,1
54,321.36,1
165,318.65,1
229,311.11,1
208,301.92,1
37,290.59,1
184,276.23,1
109,260.42,1
115,244.06,1
170,227.77,1
99,212.45,1
110,197.72,1
88,183.36,1
263,170.92,1
136,162.01,1
74,154.91,1
331,149.48,1
353,149.39,1
328,155.71,1
179,165.18,1
231,174.49,1
627,186.25,1
306,203.9,1
402,224.1,1
554,245.78,1
472,270.58,1
211,294.58,1
424,313.99,1
346,329.97,1
328,343.13,1
149,351.29,1
127,352.13,1
81,345,1
277,332.86,1
342,320.71,1
323,311.48,1
143,303.51,1
163,293.8,1
74,281.23,1
269,267.15,1
81,253.36,1
148,239.29,1
307,226.35,1
127,216.39,1
194,207.91,1
180,200.34,1
243,194.55,1
135,190.34,1
207,186.8,1
129,183.54,1
290,181.23,1
335,182.12,1
405,188.03,1
470,199.66,1
263,215.17,1
565,232.71,1
409,253.19,1
53,272.25,1
402,285.32,1
143,294.08,1
314,299.31,1
228,301.62,1
310,302.34,1
285,302.25,1
53,299.9,1
519,295.73,1
201,293.46,1
71,290.24,1
251,283.07,1
86,273.7,1
78,261.68,1
119,246.9,1
94,230.88,1
289,216.01,1
244,205.13,1
97,197.32,1
141,189.65,1
200,182.33,1
183,176.72,1
400,174.63,1
374,178.44,1
113,185.84,1
368,193.32,1
454,203.39,1
231,216.74,1
356,230.24,1
319,243.34,1
225,255.32,1
98,263.15,1
662,269.34,1
242,278.9,1
385,289.61,1
166,297.92,1
294,302.71,1
180,304.08,1
141,301.65,1
260,295.76,1
186,288.52,1
145,279.91,1
82,268.76,1
56,254.34,1
243,238.61,1
165,224.61,1
51,211.68,1
317,199.69,1
472,193.56,1
342,195.79,1
152,201.83,1
259,207.22,1
502,214.16,1
281,225.11,1
248,236.83,1
348,247.21,1
219,256.54,1
649,266.99,1
896,285.97,1
506,315.33,1
275,345.29,1
388,368.59,1
1023,391.26,1
360,418.68,1
252,442.16,1
404,455.89,1
202,461.72,1
332,460.25,1
184,452.59,1
216,439.39,1
200,421.56,1
136,400.31,1
159,376.19,1
43,349.53,1
164,321.05,1
98,292.67,1
331,267.14,1
304,247.68,1
150,233.7,1
147,221.57,1
243,210.7,1
146,201.91,1
258,195.1,1
244,190.97,1
433,191.25,1
379,197.51,1
299,208.02,1
285,219.57,1
343,231.11,1
331,242.99,1
349,255.18,1
151,265.75,1
582,275.19,1
283,286.47,1
326,297.76,1
175,305.66,1
217,308.94,1
215,308.04,1
367,305.56,1
43,301.76,1
288,295.04,1
272,287.56,1
140,280.4,1
54,270.7,1
229,258.32,1
44,244.97,1
64,229.84,1
345,215.02,1
270,205.11,1
195,199.71,1
148,195.68,1
198,191.84,1
384,190.26,1
440,194.41,1
216,203.37,1
147,211.88,1
129,216.62,1
92,217.16,1
506,217.17,1
412,222.53,1
371,233.31,1
213,245.09,1
324,255.21,1
212,263.33,1
242,268.96,1
323,272.77,1
114,274.93,1
102,272.88,1
178,266.41,1
140,257.65,1
208,247.98,1
147,238.23,1
50,227.52,1
76,214.53,1
75,199.89,1
114,184.97,1
59,170.52,1
164,157.17,1
79,145.68,1
313,137.38,1
80,133,1
191,130.76,1
120,129.54,1
347,130.77,1
129,135.15,1
214,140.8,1
162,146.38,1
218,152.03,1
81,156.91,1
117,159.51,1
238,160.79,1
114,162.28,1
182,163.41,1
82,163.5,1
75,161.64,1
57,157.29,1
86,151.02,1
46,143.54,1
107,135.48,1
45,127.39,1
90,119.4,1
34,111.52,1
66,103.71,1
31,95.96,1
40,88.29,1
33,80.73,1
96,73.99,1
32,68.54,1
56,63.92,1
44,59.84,1
48,56.36,1
48,53.4,1
59,51.06,1
74,49.58,1
48,48.93,1
73,48.82,1
46,49.11,1
66,49.61,1
48,50.23,1
60,50.86,1
46,51.44,1
125,52.46,1
39,54.27,1
64,56.06,1
34,57.22,1
73,57.91,1
37,58.32,1
87,58.63,1
35,58.96,1
107,59.45,1
36,60.21,1
59,60.76,1
34,60.73,1
45,60.12,1
33,58.97,1
50,57.47,1
37,55.85,1
49,54.19,1
42,52.61,1
41,51.1,1
48,49.69,1
34,48.38,1
45,47.12,1
39,45.96,1
50,44.98,1
37,44.2,1
50,43.59,1
33,43.09,1
49,42.65,1
32,42.25,1
58,41.96,1
44,41.94,1
74,42.36,1
33,43.14,1
80,44.13,1
36,45.31,1
56,46.43,1
32,47.24,1
42,47.63,1
36,47.61,1
36,47.26,1
35,46.61,1
39,45.77,1
35,44.84,1
36,43.85,1
34,42.82,1
32,41.73,1
40,40.67,1
33,39.72,1
41,38.9,1
34,38.22,1
53,37.78,1
41,37.69,1
60,37.99,1
34,38.58,1
54,39.25,1
40,39.97,1
57,40.77,1
36,41.6,1
58,42.41,1
76,43.5,1
68,45.19,1
35,47.03,1
54,48.45,1
34,49.4,1
62,50.01,1
35,50.41,1
71,50.72,1
29,50.99,1
39,50.89,1
34,50.3,1
37,49.37,1
36,48.22,1
38,46.97,1
37,45.69,1
65,44.68,1
48,44.21,1
49,44.13,1
51,44.24,1
52,44.54,1
70,45.16,1
41,46.06,1
55,46.94,1
52,47.73,1
80,48.72,1
56,50.08,1
65,51.58,1
45,52.93,1
71,54.07,1
56,55.16,1
80,56.33,1
43,57.5,1
92,58.63,1
38,59.73,1
57,60.46,1
40,60.6,1
82,60.52,1
34,60.42,1
118,60.56,1
37,61.21,1
60,61.76,1
32,61.7,1
72,61.24,1
50,60.73,1
53,60.19,1
52,59.52,1
68,58.89,1
106,58.9,1
146,60.47,1
188,64.54,1
73,70.4,1
102,76.13,1
84,80.96,1
118,85.15,1
71,88.75,1
175,92.15,1
130,96.25,1
180,101.26,1
128,106.82,1
154,112.38,1
85,117.2,1
199,121.31,1
89,125.15,1
379,130.2,1
97,137.53,1
105,144.17,1
52,147.43,1
154,148.02,1
40,146.89,1
116,144.07,1
72,140.01,1
181,135.93,1
50,132.34,1
74,128.17,1
67,122.94,1
496,120.74,1
92,124.56,1
74,129.61,1
70,131.73,1
210,132.49,1
180,134.22,1
245,137.84,1
183,143.08,1
106,148.26,1
106,151.43,1
125,152.49,1
171,152.62,1
140,152.69,1
236,153.38,1
168,155.28,1
252,158.4,1
201,162.75,1
290,168.49,1
143,174.91,1
315,181.37,1
160,188,1
179,193.55,1
159,196.97,1
68,197.69,1
87,194.86,1
424,191.78,1
72,191.42,1
186,191.04,1
96,188.9,1
65,184.7,1
114,178.19,1
119,170.75,1
223,164.2,1
58,158.94,1
316,155.11,1
110,153.68,1
299,154.41,1
283,158.07,1
436,166.38,1
364,179.76,1
159,194.9,1
167,206.98,1
219,215.2,1
157,220.65,1
487,225.92,1
324,234.47,1
334,245.37,1
223,255.58,1
331,264.07,1
137,270.23,1
270,273.24,1
107,272.94,1
185,269.2,1
122,262.43,1
820,258.96,1
40,262.64,1
221,266.01,1
114,264.72,1
138,259.8,1
256,252.82,1
288,246.9,1
328,243.87,1
131,242.38,1
269,240.34,1
252,238.46,1
313,238.13,1
223,239.1,1
591,243.07,1
383,252.91,1
463,267.04,1
312,282.36,1
368,296.7,1
334,309.2,1
315,319.65,1
232,326.91,1
78,328.73,1
147,323.69,1
491,316.32,1
136,310.71,1
35,302.74,1
126,289.46,1
190,273.75,1
36,257.27,1
164,239.73,1
176,222.94,1
152,208.33,1
171,195.73,1
68,184.32,1
43,172.47,1
84,159.74,1
138,147.66,1
118,137.55,1
41,128.75,1
123,120.47,1
189,114.12,1
158,110.96,1
265,111.26,1
80,114.17,1
110,117.03,1
162,119.15,1
240,122.4,1
294,128.55,1
312,138.39,1
535,153.24,1
426,174.49,1
282,198.68,1
401,221.98,1
424,244.84,1
214,266.21,1
168,282.09,1
400,292.68,1
288,301.44,1
156,307.49,1
132,307.97,1
383,304.76,1
175,301.12,1
151,295.71,1
107,286.66,1
39,273.6,1
218,257.99,1
165,242.88,1
197,229.52,1
123,217.43,1
281,207.03,1
174,199.37,1
346,195.04,1
266,194.65,1
231,197.07,1
466,202.27,1
390,212.36,1
309,225.84,1
416,240.39,1
250,255.02,1
330,268,1
273,278.79,1
405,288.35,1
384,298.23,1
181,307.06,1
268,312.02,1
288,313.76,1
281,314.01,1
382,314,1
218,314.04,1
152,311.7,1
84,304.66,1
149,293.12,1
79,278.43,1
95,261.41,1
143,243.25,1
187,226.1,1
194,211.48,1
108,199.02,1
207,188.07,1
64,178.38,1
164,169.24,1
249,161.99,1
231,158.51,1
297,158.93,1
233,162.76,1
132,167.68,1
287,172.36,1
323,178.73,1
340,188.17,1
404,200.74,1
225,215.04,1
131,226.94,1
80,233.17,1
368,235.65,1
361,239.49,1
294,245.9,1
354,253.42,1
194,260.64,1
171,265.06,1
39,264.4,1
57,257.61,1
130,246.33,1
43,232.57,1
80,216.9,1
34,199.74,1
104,182.19,1
212,166.58,1
135,154.68,1
268,146.74,1
134,142.49,1
189,140.54,1
113,139.59,1
213,139.44,1
425,142.66,1
196,150.78,1
63,159.25,1
433,166.67,1
270,176.68,1
335,189.29,1
264,202.56,1
404,216.43,1
293,231.1,1
567,247.51,1
172,265.03,1
159,278.43,1
250,285.48,1
209,288.58,1
280,289.24,1
184,288.05,1
275,285.24,1
255,281.86,1
45,276.83,1
158,267.97,1
75,255.99,1
75,241.58,1
90,225.22,1
90,208.2,1
40,190.95,1
142,174.1,1
71,158.81,1
126,145.33,1
166,134.32,1
538,129.78,1
237,134.26,1
448,145.3,1
241,160.25,1
336,176.76,1
230,192.91,1
296,207.82,1
340,221.91,1
590,238.19,1
297,257.73,1
337,276.62,1
148,291.07,1
366,300.71,1
74,305.98,1
462,307.91,1
79,308.1,1
272,305.45,1
41,298.84,1
179,288.32,1
67,274.66,1
116,258.75,1
463,244.41,1
47,234.43,1
334,226.47,1
177,220.3,1
68,214.57,1
127,206.76,1
525,200.99,1
222,201.58,1
293,205.78,1
129,209.9,1
206,212.35,1
356,214.6,1
457,220.56,1
273,230.57,1
544,243.36,1
370,259.3,1
247,275.49,1
303,288.34,1
412,299.02,1
307,309.1,1
443,318.69,1
331,328.04,1
345,336.28,1
117,340.84,1
216,339.62,1
131,333.1,1
235,323.05,1
71,310.29,1
127,294.49,1
75,276.05,1
153,256.48,1
62,236.8,1
112,217.21,1
122,198.52,1
61,181.2,1
634,169.34,1
87,166.42,1
364,168.35,1
254,173.11,1
335,180.97,1
270,190.83,1
263,201.43,1
302,211.91,1
585,224.84,1
474,243.32,1
440,265.6,1
144,286.15,1
377,301.44,1
410,313.92,1
325,325.6,1
318,335.11,1
316,341.81,1
386,346.66,1
143,349.03,1
112,345.75,1
246,336.9,1
137,325.14,1
50,310.19,1
80,291.18,1
49,269.28,1
112,246.09,1
221,224.43,1
132,206.21,1
70,190.14,1
235,175.83,1
203,165.28,1
232,159,1
171,155.93,1
397,156.46,1
192,161.25,1
398,169.33,1
201,179.69,1
365,191.23,1
112,202.3,1
336,211.67,1
390,221.48,1
328,233.55,1
236,245.6,1
251,255.33,1
52,260.8,1
109,260.2,1
236,255.3,1
361,250.93,1
250,249.28,1
265,249.11,1
323,249.85,1
280,252,1
234,254.54,1
95,254.99,1
184,251.97,1
161,246.5,1
84,239.08,1
130,229.32,1
146,218.37,1
38,206.63,1
226,194.56,1
269,185.23,1
178,179.81,1
111,175.83,1
188,171.85,1
253,169.26,1
335,170.19,1
409,176.34,1
242,186.7,1
283,198.11,1
85,207.61,1
275,213.99,1
354,219.94,1
347,228.17,1
258,237.7,1
206,245.91,1
528,253.93,1
458,265.87,1
461,281.85,1
214,297.84,1
198,309.11,1
137,313.61,1
97,311.38,1
87,302.82,1
394,291.8,1
113,281.94,1
356,273.2,1
112,265.27,1
87,255.96,1
88,243.51,1
127,229.25,1
286,216.01,1
163,205.94,1
142,197.7,1
276,190.88,1
304,187.67,1
191,187.89,1
344,190.36,1
343,196.08,1
486,206.47,1
363,221.42,1
225,237.32,1
317,250.9,1
85,260.73,1
378,266.74,1
402,272.77,1
328,280.8,1
191,287.95,1
121,290.74,1
208,288.53,1
432,285.32,1
509,286.48,1
327,292.63,1
226,299.11,1
137,301.73,1
82,298.58,1
111,289.67,1
120,276.85,1
91,261.62,1
163,245.26,1
127,229.2,1
81,213.54,1
344,199.81,1
129,190.2,1
234,183.52,1
257,179.43,1
415,179.99,1
560,188.14,1
244,202.77,1
410,219.21,1
462,237.09,1
299,256.34,1
396,274.52,1
352,291.18,1
117,304.27,1
465,312.84,1
58,318.16,1
189,318,1
235,312.94,1
150,305.43,1
145,295.25,1
278,283.67,1
301,273.78,1
135,265.59,1
298,257.76,1
108,250.22,1
40,240.78,1
276,229.46,1
35,218.45,1
117,206.68,1
127,194.18,1
56,181.77,1
125,169.33,1
375,159.92,1
43,155.07,1
164,151.43,1
127,147.77,1
427,147.07,1
546,154.35,1
407,170.68,1
339,191.46,1
442,213.6,1
224,235.31,1
247,253.44,1
299,267.22,1
315,278.44,1
210,287.19,1
399,293.72,1
310,299.86,1
217,304.84,1
762,310.98,1
225,321.59,1
271,331.29,1
154,335.29,1
151,333.3,1
80,325.11,1
136,311.83,1
109,295.27,1
193,277.48,1
91,259.62,1
122,241.57,1
178,224.11,1
277,209.67,1
120,198.79,1
247,190.27,1
331,185.29,1
690,188.7,1
754,205.47,1
409,232.92,1
181,260.59,1
106,280.25,1
446,292.87,1
494,305.09,1
418,319.63,1
321,333.76,1
149,343.46,1
69,345.09,1
306,339.82,1
319,332.86,1
231,326.28,1
315,319.53,1
162,312.31,1
142,302.97,1
249,291.58,1
204,280.26,1
87,268.55,1
176,255.36,1
147,241.72,1
45,227.64,1
436,214.98,1
247,207.87,1
171,204.71,1
186,201.95,1
141,198.83,1
514,198.02,1
274,202.8,1
160,209.82,1
436,216.74,1
601,228.37,1
591,248.07,1
246,271.6,1
176,290.89,1
180,302.37,1
246,307.6,1
224,308.81,1
546,309.77,1
494,315.22,1
116,322.56,1
123,324.46,1
241,320.15,1
262,313.46,1
223,306.19,1
263,298.57,1
80,289.76,1
200,278.64,1
349,267.81,1
219,259.96,1
210,253.64,1
157,247.04,1
34,238.45,1
112,226.86,1
134,213.8,1
149,201.17,1
339,191.3,1
321,186.97,1
469,189.49,1
383,198.77,1
267,211.63,1
354,224.91,1
403,238.95,1
414,254.73,1
383,271.64,1
415,288.68,1
540,306.57,1
412,325.79,1
396,344.16,1
189,358.25,1
303,365.99,1
294,368.78,1
330,368.82,1
281,366.87,1
678,366.25,1
271,369.42,1
132,370.8,1
50,364.32,1
98,350.08,1
69,330.27,1
115,307.18,1
106,282.84,1
54,258.16,1
58,233.11,1
43,208.08,1
147,184.59,1
257,165.53,1
161,152.39,1
376,145.26,1
175,144.02,1
68,144.86,1
161,144.6,1
365,145.86,1
311,151.94,1
326,162.42,1
266,175.15,1
496,190.22,1
469,209.64,1
232,231.27,1
266,249.98,1
341,265.06,1
320,278.24,1
254,289.27,1
374,298.02,1
255,305.22,1
170,309.29,1
244,309.12,1
304,306.73,1
424,305.32,1
39,304,1
44,297.46,1
105,284.59,1
160,268.79,1
55,251.86,1
152,234.17,1
272,218.2,1
76,205.24,1
289,194.49,1
121,186.29,1
304,180.82,1
220,178.52,1
337,179.81,1
270,184.45,1
279,191.45,1
357,200.22,1
334,211.23,1
246,223.13,1
376,234.72,1
291,246.43,1
461,258.89,1
342,272.69,1
252,285.72,1
445,296.84,1
327,307.62,1
287,317.1,1
447,324.97,1
164,331.32,1
86,332.28,1
137,325.93,1
103,314.18,1
102,298.48,1
562,283.87,1
43,273.86,1
55,263.01,1
211,249.03,1
170,235.53,1
119,223.02,1
123,210.54,1
184,198.62,1
194,188.66,1
168,180.96,1
112,174.44,1
484,170.94,1
330,174.27,1
316,183.13,1
340,194.61,1
552,209.65,1
317,228.69,1
541,249.93,1
157,270.65,1
370,287.58,1
646,303.68,1
362,322.65,1
332,340.47,1
268,353.46,1
140,359.94,1
242,359.47,1
476,356.33,1
285,354.39,1
136,350.95,1
102,342.2,1
153,328.34,1
118,311.27,1
130,292.3,1
126,272.4,1
227,253.31,1
258,237.36,1
314,226.12,1
362,220.41,1
335,220.13,1
214,222.94,1
311,226.58,1
352,231.68,1
433,239.89,1
260,250.42,1
304,260.53,1
526,271.14,1
431,284.97,1
450,301.25,1
44,315.04,1
97,320.34,1
305,318.3,1
317,314.68,1
473,313.2,1
159,313.49,1
436,313.48,1
90,312.38,1
140,307.4,1
124,297.54,1
36,283.72,1
61,265.92,1
178,246.37,1
38,227.14,1
80,207.79,1
179,189.34,1
402,176,1
243,170.15,1
184,168.93,1
226,169.34,1
253,171.39,1
345,176.17,1
425,185.33,1
339,198.82,1
349,214.49,1
392,231.13,1
391,248.73,1
363,266.58,1
400,283.88,1
290,299.66,1
149,311.09,1
162,315.67,1
268,314.82,1
426,313.06,1
61,311.13,1
336,306.69,1
132,300.31,1
203,292.17,1
484,284.77,1
136,280.56,1
57,274.81,1
59,263.95,1
163,249.78,1
176,235.37,1
111,221.81,1
321,210.11,1
164,201.88,1
323,196.98,1
141,194.6,1
66,191.9,1
56,186.18,1
179,178.64,1
229,172.33,1
228,168.99,1
440,170.15,1
726,180.54,1
452,201.83,1
314,227.41,1
418,251.71,1
379,274.49,1
395,295.72,1
302,314.24,1
327,328.88,1
126,338.09,1
331,341.39,1
456,342.88,1
232,344.87,1
300,345.05,1
270,342.9,1
190,338.47,1
276,331.57,1
69,322.03,1
141,308.74,1
41,291.69,1
315,273.56,1
88,257.01,1
36,240.28,1
339,223.76,1
127,210.76,1
290,201.21,1
230,195.05,1
308,192.65,1
515,195.72,1
195,204.25,1
333,214.2,1
426,225.35,1
441,239.81,1
516,257.94,1
360,278.39,1
372,298.02,1
110,313.12,1
340,321.96,1
486,328.57,1
404,336.9,1
261,344.95,1
242,349.28,1
144,348.39,1
183,342.1,1
492,334.29,1
341,329.78,1
258,327.29,1
75,322.27,1
58,311.61,1
157,296.09,1
103,278.44,1
296,261.24,1
123,246.3,1
63,231.8,1
113,216.12,1
138,200.57,1
475,189.27,1
382,186.55,1
406,191.98,1
163,200.97,1
174,208.64,1
258,213.94,1
236,218.54,1
198,222.49,1
331,226.09,1
405,231.8,1
295,240.34,1
400,250.42,1
345,261.7,1
312,273.2,1
39,281.25,1
263,283.46,1
236,282.36,1
146,279.48,1
151,273.66,1
217,265.71,1
331,258.45,1
279,253.95,1
418,252.94,1
44,253.4,1
62,250.09,1
162,242.05,1
130,232.2,1
225,222.38,1
262,214.52,1
276,209.92,1
182,207.74,1
167,205.88,1
298,204.39,1
467,206.66,1
397,215.03,1
461,228.51,1
180,243.56,1
81,254.36,1
194,258.61,1
88,257.93,1
373,255.03,1
384,254.48,1
322,257.75,1
272,262.46,1
262,266.68,1
639,272.92,1
370,284.43,1
254,297.26,1
420,307.92,1
66,315.43,1
141,316.49,1
61,310.17,1
76,297.95,1
119,281.57,1
103,263.27,1
451,247.08,1
230,236.81,1
237,230.65,1
306,226.68,1
209,224.93,1
289,224.53,1
50,223.73,1
383,222.09,1
912,227.72,1
608,247.65,1
232,274.09,1
345,296.83,1
474,315.83,1
515,334.77,1
452,354.28,1
432,372.69,1
726,391.25,1
457,411.75,1
257,429.39,1
455,440.4,1
601,448.82,1
291,456.48,1
86,457.7,1
218,449.1,1
256,434.21,1
191,416.1,1
137,395,1
152,371.01,1
99,344.93,1
178,318.11,1
376,294.08,1
350,276.68,1
364,266.22,1
715,264.25,1
196,270.44,1
294,277.79,1
68,281.23,1
303,280.61,1
361,279.42,1
329,280.49,1
111,281.37,1
127,278.33,1
226,271.67,1
265,264.61,1
483,260.73,1
463,263.13,1
291,270.35,1
352,278.44,1
390,286.82,1
368,296.13,1
277,305.01,1
195,310.91,1
162,311.99,1
318,309.41,1
175,305.27,1
193,299.14,1
45,289.55,1
177,276.53,1
214,262.58,1
51,248.7,1
235,234.47,1
216,222,1
197,212.32,1
317,205.63,1
307,203.15,1
554,206.84,1
49,214.99,1
225,221.32,1
139,224.11,1
339,225.77,1
467,230.23,1
485,240.51,1
243,254.28,1
204,266.05,1
678,277.18,1
286,291.76,1
56,303.99,1
124,307.52,1
285,304.91,1
444,302.25,1
397,303.21,1
320,306.8,1
199,309.61,1
176,308.87,1
69,303.23,1
126,292.56,1
38,277.74,1
59,259.44,1
124,239.28,1
55,219.07,1
138,199.51,1
124,181.81,1
63,166.06,1
196,152.29,1
594,145.44,1
289,149.28,1
427,160.53,1
302,175.73,1
413,193.44,1
190,211.37,1
291,226.97,1
463,241.54,1
381,257.82,1
75,272.43,1
323,281.6,1
310,287.77,1
294,293.17,1
256,297.12,1
272,299.2,1
264,299.67,1
311,299.3,1
157,297.75,1
40,292.25,1
81,280.96,1
141,265.96,1
66,249.32,1
46,231.04,1
128,211.85,1
179,194.23,1
99,179.26,1
146,166.28,1
299,156.61,1
193,151.84,1
289,151.22,1
190,153.71,1
324,158.72,1
148,165.43,1
494,174.28,1
992,192.84,1
373,224.04,1
307,257.26,1
354,285.08,1
311,307.76,1
210,324.63,1
297,335.16,1
161,340.07,1
447,341.39,1
174,341.27,1
149,337.67,1
352,330.61,1
87,322.08,1
200,310.94,1
87,296.92,1
122,280.56,1
140,262.76,1
70,244.43,1
53,225.17,1
103,205.41,1
64,186.27,1
108,168.37,1
358,154.47,1
382,148.78,1
188,150.42,1
149,154.17,1
344,158.78,1
355,166.89,1
389,179.47,1
334,195.23,1
320,212.13,1
129,227.07,1
250,237.77,1
378,246.37,1
224,254.93,1
358,262.79,1
308,270.38,1
438,278.87,1
322,288.54,1
303,297.8,1
143,303.85,1
230,305.18,1
264,303.24,1
165,299.36,1
250,293.51,1
94,285.64,1
40,274.17,1
170,259.22,1
262,244.59,1
210,232.86,1
144,223.08,1
34,212.67,1
151,200.71,1
181,189.27,1
117,179.53,1
263,171.79,1
214,167.33,1
346,166.95,1
361,171.62,1
215,180.08,1
402,190.45,1
394,203.68,1
445,220.54,1
375,239.81,1
310,258.96,1
389,276.39,1
588,294.32,1
395,314.42,1
409,334.07,1
335,350.76,1
354,363.67,1
382,373.24,1
207,379.11,1
51,378.07,1
195,368.87,1
63,353.88,1
43,333.77,1
96,309.49,1
112,283.67,1
75,257.95,1
99,232.86,1
117,209.32,1
295,189.7,1
244,176.34,1
329,169.62,1
127,167.4,1
355,167.91,1
386,172.88,1
365,183.29,1
390,197.54,1
270,213.53,1
538,230.79,1
470,251.26,1
396,273.98,1
379,295.75,1
334,314.81,1
127,328.57,1
444,336.68,1
462,343.92,1
191,350.94,1
462,355.46,1
270,358.58,1
208,359.1,1
180,354.8,1
142,345.71,1
102,332.05,1
149,314.79,1
40,294.87,1
121,272.8,1
198,251,1
44,230.77,1
127,211.19,1
126,192.83,1
296,178.08,1
132,168.01,1
168,160.83,1
172,155.33,1
334,153.01,1
291,155.54,1
383,163.09,1
399,175.46,1
456,192.58,1
432,213.64,1
344,236.31,1
708,260.84,1
364,288.42,1
332,314.47,1
466,336.22,1
287,354.46,1
200,366.79,1
215,371.53,1
251,370.15,1
107,363.67,1
120,351.58,1
181,335.14,1
217,317.35,1
159,299.73,1
39,281.18,1
72,260.37,1
56,237.93,1
56,214.97,1
88,192.53,1
66,171.59,1
503,155.96,1
362,150.83,1
292,154.48,1
278,162.24,1
362,172.82,1
407,186.79,1
289,203.34,1
453,221.13,1
538,241.64,1
527,266.2,1
347,292.09,1
483,316.2,1
361,337.91,1
280,355.5,1
224,366.56,1
482,372.87,1
291,377.55,1
324,380.11,1
229,379.1,1
297,374.73,1
130,366.92,1
97,354.23,1
91,336.32,1
150,315.18,1
220,293.74,1
56,273.07,1
139,252.23,1
120,231.82,1
278,214.08,1
139,200.25,1
287,190.08,1
56,182.43,1
247,175.92,1
287,172.09,1
277,172.59,1
447,177.88,1
402,189.02,1
185,203.12,1
611,218.53,1
311,237.28,1
332,256.6,1
214,272.63,1
369,285.12,1
646,298.38,1
419,315.76,1
253,332.88,1
374,345.6,1
336,354.91,1
130,359.97,1
176,358.35,1
199,350.85,1
164,339.65,1
336,327.03,1
140,314.7,1
100,300.84,1
38,283.45,1
127,263.42,1
77,242.55,1
57,221.47,1
68,200.29,1
243,181.16,1
107,166.11,1
211,154.69,1
307,147.81,1
215,146.32,1
313,149.02,1
249,155.15,1
339,164.23,1
292,175.75,1
142,187.5,1
309,197.55,1
451,208.65,1
322,222.85,1
391,238.52,1
310,254.26,1
177,267.63,1
463,278.25,1
124,287.27,1
136,291.63,1
205,290.31,1
209,285.94,1
125,279.35,1
194,270.51,1
41,259.44,1
108,245.62,1
148,230.29,1
165,215.74,1
464,205.34,1
170,201.12,1
117,198.86,1
169,195.32,1
92,190.69,1
260,185.93,1
150,182.46,1
519,182.7,1
464,190.56,1
412,205.55,1
340,223.57,1
376,241.99,1
398,260.32,1
387,278.52,1
494,296.91,1
447,316.11,1
314,334.32,1
394,349.25,1
378,361.27,1
271,370.2,1
215,374.14,1
364,373.59,1
86,369.34,1
259,360.43,1
251,348.84,1
38,335.1,1
136,317.33,1
104,296.79,1
232,276.14,1
68,256.58,1
156,237.53,1
61,218.85,1
80,200.39,1
73,182.16,1
187,165.71,1
248,153.47,1
241,146.7,1
227,144.61,1
193,145.58,1
236,148.52,1
214,153.13,1
114,158,1
340,162.95,1
291,170.25,1
368,180.91,1
362,194.49,1
411,210.78,1
174,227.45,1
140,240.03,1
471,249.3,1
410,260.44,1
422,274.45,1
255,288.48,1
177,298.77,1
176,303.19,1
280,303.21,1
111,300.2,1
60,292.63,1
87,279.78,1
43,263.06,1
190,244.68,1
95,226.89,1
41,209.35,1
108,191.47,1
145,174.87,1
539,164.25,1
338,163.59,1
312,170.31,1
334,180.55,1
439,194.05,1
349,210.82,1
401,229.29,1
578,250.02,1
519,274.64,1
1023,306.09,1
357,344.1,1
360,378.94,1
384,404.95,1
319,423.32,1
300,434.15,1
503,439.79,1
368,443.38,1
195,443.26,1
169,436.24,1
112,421.83,1
197,401.82,1
104,378.3,1
129,352.39,1
82,324.71,1
46,295.68,1
61,265.82,1
143,236.92,1
206,211.7,1
360,193.1,1
58,180.72,1
139,170.42,1
262,161.9,1
228,157.43,1
263,156.95,1
203,159.31,1
292,163.8,1
388,171.51,1
211,182.24,1
400,194.4,1
383,208.72,1
360,225.29,1
339,242.34,1
380,259.02,1
338,275,1
399,290.08,1
498,305.45,1
221,320.4,1
326,331.64,1
172,337.86,1
215,338.71,1
188,334.69,1
230,327.35,1
68,316.89,1
298,303.96,1
84,290.26,1
266,276.32,1
42,262.01,1
37,245.67,1
136,227.21,1
74,208.84,1
157,191.63,1
182,176.92,1
173,165.64,1
196,157.58,1
477,154.85,1
616,162.23,1
366,179.61,1
241,200.04,1
383,219.11,1
422,238.17,1
267,257.15,1
274,273.23,1
426,286.68,1
136,297.85,1
406,305.6,1
252,311.3,1
304,315.38,1
65,315.67,1
328,311.76,1
121,305.45,1
90,296.02,1
134,282.62,1
245,268.09,1
128,254.39,1
38,239.99,1
333,225.56,1
115,213.9,1
148,203.85,1
365,195.89,1
196,192.23,1
72,189.95,1
277,187.02,1
320,186.44,1
371,190.45,1
319,198.6,1
156,207.86,1
72,213.83,1
330,216.52,1
228,219.34,1
438,224.35,1
297,232.3,1
379,242.33,1
382,253.8,1
337,266.36,1
875,283.04,1
494,307.78,1
584,336.6,1
430,364.66,1
243,387.87,1
224,402.06,1
188,406.82,1
162,403.33,1
95,392.27,1
141,375.02,1
105,353.52,1
107,329.27,1
41,302.9,1
54,274.85,1
132,246.79,1
152,221.17,1
239,199.99,1
202,184.13,1
351,174.19,1
839,175.29,1
471,190.94,1
300,213.73,1
379,235.97,1
389,257.02,1
383,277.24,1
367,296.01,1
383,312.89,1
314,327.33,1
496,339.94,1
530,353.44,1
386,368.06,1
294,380.2,1
326,387.62,1
303,390.77,1
282,390.27,1
309,386.71,1
129,379.76,1
594,371.49,1
310,366.39,1
87,361.14,1
112,350.09,1
139,333.88,1
237,315.71,1
49,296.94,1
135,276.72,1
239,256.82,1
183,239.79,1
533,228.34,1
202,224.08,1
353,224.1,1
260,226.35,1
290,230.21,1
328,235.18,1
399,242.28,1
399,252.31,1
459,265.27,1
587,282.06,1
383,302.17,1
332,321.41,1
448,337.75,1
334,351.92,1
310,362.83,1
276,369.3,1
439,372.77,1
370,375.67,1
465,379.05,1
185,381.36,1
194,379.04,1
118,370.48,1
137,356.36,1
35,337.39,1
38,313.87,1
47,286.89,1
438,261.62,1
46,241.76,1
74,223.68,1
156,205.44,1
243,189.99,1
216,179.04,1
307,172.94,1
272,171.68,1
181,173.55,1
478,178.41,1
564,190.35,1
328,209.04,1
340,229.23,1
462,249.13,1
433,270.06,1
392,291.23,1
299,310.22,1
580,327.37,1
340,344.45,1
398,359.75,1
222,370.71,1
616,378.83,1
413,387.9,1
400,397.19,1
234,403.09,1
329,404.13,1
245,400.96,1
44,392.45,1
38,375.95,1
200,353.65,1
72,329.24,1
260,304.8,1
127,282.1,1
71,260.36,1
55,237.93,1
158,215.79,1
242,196.9,1
120,182.34,1
457,173,1
225,170.59,1
134,171.72,1
487,174.99,1
247,182.92,1
434,194.56,1
409,209.57,1
305,226.94,1
386,244.24,1
345,261.06,1
428,277.64,1
320,293.62,1
208,306.6,1
162,313.78,1
208,315,1
308,312.8,1
206,309.31,1
224,304.24,1
190,297.29,1
156,288.48,1
155,277.68,1
305,266.67,1
92,256.57,1
151,245.7,1
213,234.33,1
156,224.01,1
123,214.1,1
196,204.44,1
189,196.15,1
98,188.92,1
44,180.74,1
199,171.74,1
337,165.65,1
324,165.48,1
294,170.44,1
345,178.93,1
326,190.33,1
426,204.45,1
530,222.54,1
468,245.06,1
529,270.62,1
330,296.41,1
204,317.73,1
193,331.1,1
450,338.9,1
180,344.16,1
186,345,1
131,339.86,1
137,329.56,1
378,317.32,1
62,305.41,1
40,290.75,1
53,271.64,1
49,249.77,1
70,226.72,1
172,204.7,1
204,186.31,1
113,171.89,1
335,161.59,1
177,156.33,1
342,155.67,1
119,158.12,1
263,161.73,1
230,166.35,1
581,175.12,1
591,192.45,1
418,217.29,1
352,243.67,1
230,266.83,1
364,285.32,1
490,301.89,1
395,318.88,1
382,335,1
254,347.86,1
125,354.52,1
269,354.25,1
383,350.98,1
378,348.57,1
335,347.39,1
138,344.8,1
186,338.03,1
52,326.35,1
158,310.41,1
137,292.18,1
271,274.47,1
122,258.56,1
79,242.83,1
90,225.94,1
53,208.21,1
281,191.79,1
182,179.59,1
145,170.9,1
209,164.29,1
170,159.89,1
355,158.73,1
368,162.91,1
399,172.99,1
425,188.14,1
943,211.55,1
634,246.64,1
360,286.45,1
329,321.15,1
290,347.7,1
393,367.18,1
285,381.06,1
269,389.19,1
99,390.13,1
197,383.34,1
117,370.54,1
214,353.95,1
141,335.31,1
114,315.07,1
132,293.45,1
98,271.25,1
467,251.98,1
154,238.8,1
362,230.3,1
895,230.92,1
447,245.31,1
234,264.85,1
293,280.93,1
228,292.53,1
368,300.91,1
481,309.27,1
394,319.64,1
117,328.41,1
463,333.22,1
182,335.99,1
379,336.94,1
360,337.26,1
401,338.76,1
319,340.95,1
480,343.89,1
282,347.66,1
139,348.81,1
432,346.31,1
357,344.2,1
247,342.73,1
243,339.3,1
118,332.54,1
114,321.33,1
868,312.22,1
196,311.93,1
132,312.9,1
41,307.39,1
176,296.22,1
73,281.81,1
90,264.94,1
92,246.24,1
545,230.67,1
226,222.84,1
392,220.98,1
272,222.9,1
121,225.73,1
257,226.79,1
410,228.74,1
127,232.6,1
318,235.97,1
184,238.55,1
339,241.1,1
246,244.23,1
337,248.18,1
358,253.53,1
453,261.65,1
154,270.88,1
275,277.51,1
199,280.81,1
219,281.42,1
323,280.52,1
288,280.1,1
288,280.33,1
72,278.99,1
72,272.93,1
55,261.47,1
46,246.04,1
134,228.52,1
331,212.99,1
356,203.71,1
294,200.98,1
132,201.16,1
241,201.24,1
283,202.06,1
51,203.09,1
278,202.65,1
346,203.49,1
305,207.93,1
41,212.68,1
243,214.42,1
354,215.93,1
227,219.68,1
288,224.31,1
319,229.71,1
289,236.26,1
293,243.24,1
255,249.86,1
291,255.66,1
364,261.54,1
212,267.53,1
155,271.02,1
80,269.69,1
250,264.44,1
144,257.68,1
120,249.47,1
34,238.45,1
58,224.23,1
332,209.97,1
334,200.92,1
259,197.82,1
160,197.32,1
310,197.76,1
240,199.98,1
183,203.08,1
273,206,1
327,210.13,1
279,216.27,1
762,227.45,1
373,246.45,1
435,268.75,1
282,289.42,1
309,306.36,1
236,318.5,1
232,325.56,1
302,328.42,1
422,330.14,1
224,331.85,1
113,330.31,1
173,323.39,1
207,312.94,1
223,301.36,1
93,288.73,1
161,274.28,1
51,258.1,1
73,240.07,1
206,221.73,1
91,205.23,1
57,189.58,1
66,173.66,1
127,158.43,1
261,146.41,1
171,139.21,1
305,136.67,1
90,137.41,1
313,140.01,1
198,144.95,1
261,151.91,1
212,159.87,1
358,169.26,1
321,181.16,1
384,195.63,1
348,212.05,1
332,229.19,1
400,246.3,1
147,261.73,1
349,273.44,1
276,282.55,1
208,289.3,1
306,293.13,1
128,294.16,1
43,290.22,1
272,281.69,1
188,272.3,1
254,263.62,1
92,254.82,1
203,245,1
73,234.17,1
65,221.61,1
189,207.97,1
127,195.45,1
198,184.77,1
96,175.66,1
383,169.33,1
267,168.24,1
239,171.38,1
368,177.31,1
225,185.86,1
290,195.37,1
212,204.54,1
513,214.87,1
484,229.8,1
67,246.36,1
130,256.98,1
190,260.88,1
254,261.54,1
458,262.97,1
335,267.78,1
345,274.76,1
136,280.57,1
229,282.72,1
297,282.36,1
279,281.87,1
107,280.12,1
100,274.42,1
137,264.71,1
37,251.94,1
103,236.51,1
131,220.08,1
46,203.72,1
54,186.81,1
339,171.86,1
238,162.86,1
228,159.27,1
120,157.99,1
328,158.38,1
443,163.49,1
598,176.93,1
268,197.02,1
218,216.94,1
330,233.43,1
434,249.09,1
392,265.89,1
365,282.94,1
358,298.78,1
391,313.1,1
528,327.42,1
196,341.04,1
264,349.92,1
268,353.29,1
70,351.41,1
206,343.37,1
121,330.88,1
296,316.61,1
35,301.51,1
66,283.59,1
94,262.79,1
80,241.08,1
117,219.69,1
130,199.84,1
83,181.96,1
219,166.61,1
444,157.42,1
243,156.36,1
248,160.13,1
135,164.92,1
316,170,1
459,178.38,1
462,192.82,1
299,211.36,1
612,232.27,1
328,255.74,1
402,278.91,1
319,299.29,1
447,317.17,1
125,331.33,1
218,338.67,1
197,339.34,1
402,337.03,1
180,333.89,1
197,328.38,1
225,319.96,1
105,309.21,1
85,295.11,1
47,277.3,1
156,257.33,1
148,237.83,1
137,220.01,1
120,203.67,1
218,189.44,1
144,178.14,1
71,168.43,1
115,158.81,1
89,149.47,1
210,141.59,1
311,137.69,1
307,139.6,1
337,146.85,1
350,158.53,1
336,173.52,1
383,190.79,1
443,210.4,1
312,231.4,1
358,251.48,1
472,270.82,1
174,288.77,1
270,301.88,1
522,312.08,1
378,323.52,1
258,334.22,1
169,340.1,1
221,340.11,1
132,335.02,1
250,326.15,1
85,314.57,1
46,299.17,1
135,280.2,1
125,260.2,1
171,240.99,1
132,223.37,1
137,207.33,1
109,192.53,1
138,179,1
310,168.54,1
112,162.22,1
127,157.52,1
161,153.09,1
306,150.9,1
564,155.28,1
284,167.77,1
409,184.48,1
223,202.05,1
396,219.08,1
430,236.72,1
374,255.74,1
310,274.04,1
155,288.37,1
295,297.29,1
270,302.65,1
186,305.12,1
294,304.67,1
64,301.17,1
170,293.36,1
116,282.02,1
110,268.31,1
200,253.44,1
45,238.32,1
153,222.6,1
140,207.36,1
61,192.99,1
182,179.36,1
326,169.27,1
189,164.53,1
294,163.73,1
226,166.02,1
289,170.81,1
489,179.53,1
373,193.77,1
301,210.87,1
321,227.63,1
319,243.26,1
329,257.74,1
241,270.3,1
392,280.84,1
227,289.92,1
364,297.23,1
162,302.18,1
310,304.18,1
180,303.62,1
291,301.05,1
157,296.75,1
204,290.38,1
74,281.15,1
80,268.44,1
91,252.59,1
54,234.83,1
78,215.81,1
156,197.26,1
93,180.63,1
176,166.31,1
262,155.77,1
261,150.58,1
325,150.9,1
409,157.06,1
320,168.62,1
116,181.5,1
282,192.18,1
530,203.92,1
256,219.29,1
169,233.74,1
382,245.07,1
441,256.93,1
292,270.31,1
533,284.43,1
390,300.2,1
369,316.16,1
391,330.39,1
249,341.86,1
298,349.08,1
150,351.3,1
270,348.52,1
103,341.48,1
86,329.53,1
149,313.02,1
250,295.36,1
195,279.15,1
77,263.53,1
92,246.61,1
42,228.09,1
257,210.06,1
126,195.05,1
268,183.62,1
50,174.75,1
263,167.44,1
230,163.03,1
54,160.7,1
509,160.62,1
372,167.16,1
294,179.48,1
310,193.38,1
264,207.29,1
341,220.76,1
134,232.62,1
417,242.43,1
346,252.72,1
286,263.73,1
263,273.13,1
310,280.53,1
173,285.58,1
95,286.2,1
153,281.49,1
67,272.47,1
166,260.32,1
182,247.26,1
68,234.12,1
44,219.35,1
102,202.99,1
343,188.73,1
174,179.6,1
122,173.45,1
48,166.89,1
188,159.75,1
338,155.36,1
288,156.42,1
214,161.37,1
138,166.86,1
267,171.77,1
111,176.3,1
521,182.26,1
214,192.11,1
395,204.35,1
196,216.8,1
358,228.56,1
323,240.15,1
457,253.09,1
280,267.1,1
497,281.43,1
236,295.48,1
50,304.8,1
159,305.84,1
128,300.66,1
169,291.62,1
184,280.5,1
146,268.39,1
258,256.38,1
74,244.87,1
134,232.49,1
38,218.52,1
164,203.79,1
266,191.07,1
365,183.92,1
136,181.74,1
140,180.5,1
248,179.07,1
383,180.48,1
552,188.49,1
273,202.89,1
246,218.24,1
360,232,1
183,244.27,1
334,254.28,1
413,263.92,1
456,275.89,1
461,290.61,1
531,308,1
300,326.09,1
250,340.48,1
426,350.29,1
243,357.28,1
193,359.91,1
164,356.57,1
425,350.04,1
44,342.24,1
137,330.4,1
128,314.09,1
221,296.37,1
231,279.73,1
76,264.1,1
180,248.13,1
517,235.68,1
204,230.17,1
169,227.44,1
369,225.37,1
327,226.56,1
297,230.91,1
339,237,1
340,244.67,1
383,254,1
355,264.77,1
350,276.15,1
435,287.99,1
289,299.95,1
280,309.8,1
268,316.27,1
290,319.85,1
277,321.29,1
286,321.12,1
288,319.74,1
344,318.09,1
138,315.53,1
78,308.86,1
153,297.31,1
209,283.62,1
116,269.51,1
165,254.89,1
203,240.73,1
244,228.74,1
314,220.4,1
172,215.42,1
248,212.01,1
127,208.97,1
380,207.05,1
212,207.81,1
110,209.07,1
405,210.04,1
283,213.76,1
280,219.86,1
399,227.49,1
390,237.92,1
406,251.05,1
306,265.2,1
442,279.25,1
152,291.78,1
445,301.51,1
483,311.53,1
461,324.35,1
192,336.57,1
258,343.85,1
127,344.86,1
129,339.56,1
50,327.9,1
176,311.59,1
375,295.29,1
33,281.07,1
58,265.1,1
64,245.9,1
48,225.1,1
164,204.56,1
169,186.68,1
327,173.8,1
340,167.88,1
230,168.05,1
524,173.62,1
418,186.11,1
347,203.54,1
349,222.13,1
602,242.51,1
385,265.97,1
387,289.53,1
226,309.3,1
314,323.64,1
308,333.43,1
487,341.57,1
240,349.04,1
252,353.25,1
159,352.23,1
87,345.25,1
164,332.63,1
362,318.49,1
383,307.72,1
92,299.45,1
259,290.1,1
91,279.19,1
92,266.04,1
157,250.82,1
263,236.5,1
124,224.47,1
223,213.97,1
181,205.13,1
188,198.02,1
166,192.05,1
260,187.6,1
372,186.77,1
365,191.27,1
324,200.14,1
361,211.61,1
222,223.8,1
469,236.22,1
674,252.98,1
477,276.32,1
344,301.21,1
259,321.95,1
341,337.01,1
295,347.54,1
299,354.18,1
240,356.89,1
121,354.6,1
202,346.72,1
195,335.25,1
123,321.37,1
36,304.13,1
127,283.6,1
57,261.5,1
93,238.81,1
48,216.06,1
46,193.56,1
229,173.11,1
388,159.19,1
243,153.65,1
180,153.07,1
354,155.49,1
281,161.9,1
345,171.85,1
355,184.67,1
428,200.6,1
261,218.24,1
398,235.57,1
330,252.41,1
306,268.15,1
434,282.61,1
334,296.71,1
315,309.34,1
327,319.37,1
275,326.72,1
147,329.97,1
116,327.18,1
231,319.28,1
158,308.79,1
57,295.56,1
102,278.85,1
320,261.72,1
39,246.52,1
103,230.93,1
116,214.44,1
75,198.19,1
185,183.01,1
232,171.02,1
53,162.07,1
272,154.94,1
266,151.53,1
371,153.61,1
316,161.05,1
248,171.76,1
332,183.68,1
233,196.12,1
399,209.01,1
335,223.18,1
382,238.57,1
255,253.56,1
458,267.74,1
364,282.34,1
393,297.15,1
388,311.3,1
268,323.64,1
250,332.05,1
197,335.44,1
230,334.16,1
189,329.14,1
36,319.78,1
111,305.08,1
165,287.35,1
77,268.69,1
100,249.09,1
140,229.37,1
141,211.12,1
135,194.87,1
331,182.23,1
109,174.07,1
198,168.29,1
388,165.72,1
349,169.28,1
430,178.91,1
396,193.62,1
383,211.68,1
278,230.3,1
211,246.34,1
541,260.65,1
401,276.9,1
452,294.91,1
391,312.86,1
347,329.22,1
331,342.47,1
346,352.42,1
262,358.96,1
383,362.42,1
944,369.35,1
204,382.85,1
144,392.82,1
179,392.89,1
99,384.97,1
118,370.33,1
37,349.96,1
51,324.94,1
380,299.49,1
61,277.45,1
41,256.02,1
218,234.25,1
230,215.81,1
267,202.47,1
322,194.61,1
256,191.85,1
354,193.22,1
328,198.6,1
452,208.19,1
253,220.88,1
377,234.25,1
474,248.92,1
357,265.74,1
244,281.56,1
399,294.56,1
340,306.12,1
209,315.43,1
261,320.52,1
455,323.58,1
291,327.29,1
304,330.38,1
174,330.64,1
328,328.02,1
207,323.76,1
106,316.8,1
106,305.43,1
72,289.91,1
278,272.9,1
212,257.89,1
102,244.61,1
131,230.95,1
159,217.27,1
421,206.89,1
287,202.79,1
164,202.55,1
234,202.68,1
199,202.95,1
313,204.26,1
382,208.45,1
378,216.82,1
383,228.56,1
456,243.12,1
359,259.85,1
52,274.1,1
206,281.37,1
45,281.82,1
636,280.55,1
340,284.01,1
285,290.47,1
294,295.74,1
345,300.03,1
158,302.81,1
622,305.52,1
323,311.76,1
422,320.17,1
51,326.03,1
78,324.74,1
36,314.99,1
98,299.24,1
101,280.16,1
162,260.17,1
117,240.87,1
120,222.51,1
132,205.25,1
358,191.48,1
180,183.18,1
373,179.84,1
274,181.29,1
82,184.69,1
236,186.74,1
366,189.72,1
787,200.3,1
423,221.19,1
166,244.61,1
306,263.08,1
307,277.38,1
322,289.34,1
238,298.7,1
326,305.21,1
684,313.05,1
161,324,1
718,335.85,1
206,348.64,1
127,357.23,1
190,357.3,1
35,349.92,1
109,335.86,1
39,316.48,1
108,293.67,1
85,269.44,1
145,245.61,1
132,223.58,1
62,203.34,1
40,183.68,1
249,165.89,1
327,154.04,1
246,149.42,1
530,152.12,1
415,163.36,1
260,179.89,1
178,195.7,1
399,209.64,1
450,225.11,1
367,243.21,1
466,262.54,1
261,281.44,1
329,297.38,1
192,308.85,1
221,315.09,1
300,317.11,1
227,316.83,1
231,314.27,1
117,308.6,1
210,299.69,1
431,291.01,1
198,285.27,1
122,279.33,1
76,269.85,1
80,256.67,1
189,241.7,1
59,226.58,1
111,211.06,1
264,196.79,1
175,186.18,1
225,178.88,1
172,174.01,1
358,172.22,1
404,175.84,1
460,186.21,1
175,200.32,1
342,213.93,1
240,226.29,1
284,237.34,1
380,247.71,1
476,259.96,1
343,274.53,1
311,288.7,1
378,301.02,1
426,312.77,1
228,323.41,1
152,329.37,1
200,329.09,1
170,323.92,1
142,314.91,1
207,303.14,1
173,290.22,1
100,276.18,1
81,260.17,1
91,242.32,1
164,224.26,1
89,207.33,1
112,191.37,1
140,176.65,1
315,165.48,1
146,159.08,1
453,157.72,1
86,160.91,1
56,163.63,1
446,165.62,1
488,173.48,1
423,189.02,1
449,209.28,1
243,230.65,1
364,249.99,1
524,268.81,1
323,288.53,1
240,305.64,1
295,317.58,1
190,324.6,1
245,326.83,1
300,325.82,1
468,325.13,1
417,327.52,1
220,331.07,1
137,331.02,1
262,326.27,1
299,319.82,1
84,312.15,1
78,300.48,1
360,286.63,1
127,274.27,1
124,261.89,1
139,248.08,1
531,237.09,1
169,232.21,1
395,231.3,1
422,234.35,1
304,241.66,1
81,248.41,1
147,250.41,1
350,249.66,1
221,249.66,1
484,251.96,1
352,258.11,1
296,266.52,1
220,273.71,1
357,279.17,1
301,284.29,1
429,290.25,1
269,296.99,1
204,301.98,1
146,302.6,1
127,298.17,1
402,291.56,1
193,286.18,1
300,281.62,1
224,277.25,1
118,271.92,1
42,263.07,1
198,250.9,1
194,238.59,1
64,226.71,1
101,213.71,1
215,200.73,1
172,190.05,1
182,181.77,1
125,174.94,1
181,169.03,1
384,166.14,1
437,169.91,1
294,179.98,1
458,193.9,1
361,211.06,1
448,230.6,1
298,250.66,1
418,269.69,1
118,285.59,1
259,295.75,1
189,300.52,1
248,301.53,1
211,299.71,1
344,296.79,1
181,293.69,1
249,289.54,1
159,283.74,1
63,275.17,1
334,264.67,1
216,255.76,1
81,247.54,1
123,237.24,1
140,225.42,1
127,213.35,1
286,202.74,1
244,195.75,1
72,190.98,1
52,184.66,1
416,178.65,1
220,177.28,1
334,180.24,1
283,186.22,1
277,194.33,1
278,203.29,1
353,213.2,1
440,225.45,1
334,240.26,1
470,256.61,1
382,274.23,1
343,291.58,1
154,305.21,1
254,312.97,1
209,315.72,1
124,313.97,1
341,308.84,1
85,302.09,1
97,291.99,1
85,277.65,1
118,260.76,1
66,242.52,1
66,223.26,1
35,203.13,1
146,183.44,1
134,166.23,1
152,152.35,1
135,141.5,1
258,134.21,1
392,132.86,1
267,138.22,1
435,148.98,1
126,162.64,1
281,175.64,1
294,187.84,1
57,198.55,1
286,205.83,1
318,212.38,1
234,219.88,1
359,227.79,1
354,237.04,1
156,246.34,1
161,252.11,1
380,255.25,1
322,259.46,1
210,264.29,1
76,265.98,1
159,262.75,1
314,257.46,1
350,254.32,1
135,253.04,1
54,249.28,1
50,240.58,1
128,228.39,1
275,216.38,1
87,206.41,1
129,196.8,1
153,187.11,1
281,179.47,1
118,174.62,1
209,171.15,1
225,169.16,1
412,170.89,1
184,176.73,1
216,183.56,1
229,189.67,1
406,196.95,1
481,208.51,1
51,222.17,1
245,232.04,1
352,239.25,1
456,248.47,1
280,260.02,1
349,271.48,1
402,282.62,1
500,295.39,1
48,307.32,1
38,311.48,1
169,306.69,1
103,296.88,1
65,283.26,1
112,266.43,1
51,247.6,1
151,228.15,1
395,212,1
258,202.65,1
95,197.16,1
147,191.4,1
298,186.37,1
135,183.67,1
448,183.92,1
346,189.43,1
389,200.06,1
300,213.28,1
215,226.23,1
454,238.38,1
328,251.72,1
436,266.3,1
265,280.68,1
334,293.07,1
318,303.13,1
623,313.92,1
558,329.25,1
51,344.82,1
395,354,1
348,359.13,1
178,361.61,1
206,359.09,1
85,350.91,1
131,337.32,1
48,319.05,1
266,298.71,1
62,278.69,1
46,257.87,1
137,235.93,1
196,215.73,1
33,197.89,1
235,181.9,1
136,169.01,1
162,159.15,1
148,151.42,1
167,145.72,1
340,143.35,1
149,145.02,1
383,149.92,1
365,159.31,1
567,175.02,1
400,196.84,1
251,220.35,1
305,240.91,1
438,259.3,1
670,279.99,1
446,304.83,1
319,329.18,1
237,347.72,1
114,357.76,1
194,359.07,1
35,352.68,1
117,339.34,1
48,320.56,1
69,298.08,1
38,273,1
53,246.6,1
125,220.58,1
120,197.01,1
206,177.3,1
70,161.46,1
36,147.23,1
89,133.48,1
180,121.86,1
185,114.24,1
276,111.48,1
299,114.21,1
