200.00,268.07,1
131.00,285.12,1
49.00,292.69,1
126.00,291.66,1
284.00,286.03,1
206.00,279.70,1
375.00,274.50,1
150.00,270.62,1
179.00,265.77,1
44.00,257.88,1
154.00,246.84,1
105.00,234.07,1
217.00,221.40,1
59.00,209.39,1
225.00,197.97,1
55.00,187.39,1
271.00,178.16,1
112.00,171.13,1
189.00,165.79,1
139.00,161.45,1
49.00,157.08,1
348.00,153.40,1
71.00,152.28,1
138.00,151.58,1
71.00,149.48,1
157.00,146.54,1
152.00,143.91,1
227.00,142.83,1
40.00,142.63,1
83.00,140.98,1
51.00,137.19,1
127.00,132.35,1
87.00,127.53,1
257.00,124.27,1
341.00,125.55,1
160.00,131.46,1
92.00,137.84,1
102.00,141.79,1
174.00,143.99,1
463.00,148.47,1
288.00,158.58,1
393.00,172.87,1
86.00,187.62,1
70.00,197.84,1
287.00,203.27,1
196.00,207.62,1
370.00,212.74,1
171.00,218.76,1
50.00,222.39,1
105.00,220.81,1
123.00,215.44,1
69.00,207.69,1
83.00,197.71,1
204.00,187.21,1
232.00,179.02,1
204.00,174.12,1
215.00,171.70,1
263.00,171.62,1
168.00,173.42,1
94.00,174.79,1
184.00,174.50,1
308.00,174.87,1
146.00,177.19,1
249.00,180.12,1
213.00,183.48,1
78.00,186.20,1
299.00,187.63,1
237.00,190.07,1
55.00,192.48,1
311.00,193.39,1
120.00,194.27,1
312.00,195.66,1
52.00,196.82,1
231.00,196.55,1
296.00,196.55,1
95.00,197.64,1
166.00,197.31,1
52.00,194.49,1
160.00,189.47,1
160.00,183.79,1
131.00,178.44,1
160.00,173.29,1
87.00,168.08,1
214.00,163.10,1
73.00,158.78,1
97.00,154.03,1
65.00,148.06,1
393.00,143.75,1
355.00,145.75,1
119.00,152.57,1
388.00,160.85,1
52.00,169.65,1
70.00,175.36,1
168.00,176.86,1
164.00,176.85,1
102.00,175.94,1
240.00,174.46,1
76.00,173.01,1
140.00,170.59,1
138.00,167.18,1
88.00,163.23,1
201.00,159.10,1
444.00,158.42,1
38.00,161.98,1
58.00,164.10,1
35.00,161.80,1
309.00,158.31,1
93.00,156.62,1
37.00,154.55,1
105.00,150.11,1
58.00,144.26,1
57.00,137.35,1
178.00,130.46,1
217.00,126.11,1
254.00,125.84,1
88.00,128.20,1
130.00,130.38,1
46.00,130.97,1
55.00,129.39,1
40.00,125.51,1
202.00,121.19,1
158.00,118.88,1
127.00,118.53,1
468.00,121.63,1
47.00,129.18,1
139.00,136.45,1
57.00,140.61,1
148.00,142.44,1
285.00,144.39,1
370.00,150.08,1
140.00,159.11,1
401.00,169.43,1
136.00,180.57,1
92.00,189.38,1
40.00,192.77,1
48.00,190.80,1
54.00,184.49,1
75.00,175.49,1
99.00,165.34,1
152.00,155.67,1
164.00,147.85,1
188.00,142.56,1
74.00,138.91,1
183.00,135.84,1
85.00,133.36,1
141.00,131.14,1
219.00,129.97,1
54.00,130.03,1
68.00,129.04,1
48.00,125.95,1
144.00,121.99,1
83.00,118.40,1
180.00,115.82,1
178.00,115.17,1
52.00,115.72,1
293.00,117.09,1
58.00,120.01,1
62.00,122.15,1
90.00,121.96,1
86.00,120.50,1
130.00,118.65,1
119.00,117.16,1
151.00,116.45,1
150.00,116.78,1
85.00,117.60,1
67.00,117.53,1
114.00,116.34,1
145.00,115.22,1
274.00,116.17,1
224.00,120.66,1
217.00,127.86,1
242.00,136.55,1
128.00,145.51,1
218.00,153.42,1
156.00,160.31,1
59.00,165.11,1
77.00,166.19,1
102.00,164.12,1
113.00,160.36,1
46.00,155.31,1
41.00,148.35,1
278.00,141.51,1
56.00,137.03,1
51.00,132.74,1
108.00,127.28,1
40.00,121.46,1
60.00,115.07,1
156.00,109.01,1
175.00,105.32,1
59.00,103.72,1
56.00,101.95,1
35.00,98.93,1
223.00,96.25,1
66.00,95.55,1
237.00,96.77,1
109.00,99.87,1
141.00,103.86,1
203.00,108.37,1
177.00,114.22,1
127.00,120.55,1
161.00,126.26,1
186.00,131.68,1
57.00,136.32,1
181.00,139.31,1
120.00,141.43,1
312.00,144.43,1
91.00,148.85,1
96.00,152.16,1
252.00,154.06,1
97.00,156.17,1
55.00,156.74,1
177.00,155.14,1
188.00,153.73,1
146.00,153.36,1
152.00,153.23,1
81.00,152.46,1
83.00,150.09,1
42.00,145.70,1
68.00,139.49,1
66.00,132.17,1
68.00,124.45,1
116.00,117.09,1
35.00,110.39,1
71.00,103.77,1
69.00,97.35,1
342.00,93.82,1
167.00,95.69,1
71.00,100.13,1
197.00,104.37,1
72.00,108.59,1
52.00,111.45,1
106.00,112.27,1
81.00,112.03,1
47.00,110.74,1
213.00,109.31,1
53.00,108.96,1
121.00,108.73,1
187.00,108.94,1
202.00,111.27,1
128.00,115.32,1
208.00,120.09,1
282.00,126.60,1
59.00,134.27,1
72.00,139.56,1
79.00,141.27,1
78.00,140.41,1
139.00,138.20,1
248.00,136.96,1
206.00,138.45,1
79.00,141.13,1
74.00,142.11,1
236.00,141.99,1
182.00,143.23,1
171.00,145.81,1
55.00,147.75,1
61.00,147.12,1
78.00,143.87,1
74.00,139.04,1
72.00,133.21,1
130.00,127.24,1
86.00,121.96,1
204.00,118.11,1
48.00,115.76,1
95.00,113.42,1
187.00,111.40,1
109.00,110.96,1
54.00,110.76,1
70.00,109.29,1
160.00,107.48,1
134.00,106.89,1
183.00,107.98,1
340.00,112.21,1
167.00,120.22,1
69.00,128.49,1
344.00,135.89,1
149.00,144.51,1
153.00,152.86,1
265.00,160.10,1
115.00,166.91,1
43.00,171.01,1
150.00,171.36,1
207.00,170.51,1
442.00,172.57,1
205.00,179.20,1
116.00,186.33,1
134.00,190.29,1
117.00,191.12,1
140.00,189.62,1
146.00,186.69,1
254.00,183.96,1
127.00,182.26,1
121.00,180.15,1
55.00,176.06,1
209.00,170.76,1
416.00,168.45,1
38.00,170.12,1
127.00,170.87,1
125.00,169.24,1
44.00,165.85,1
62.00,160.05,1
59.00,152.22,1
192.00,144.32,1
35.00,137.49,1
201.00,131.59,1
53.00,126.80,1
139.00,122.66,1
156.00,119.48,1
44.00,117.21,1
62.00,114.13,1
99.00,110.21,1
99.00,106.55,1
206.00,104.41,1
166.00,104.93,1
309.00,108.87,1
158.00,116.03,1
219.00,124.65,1
64.00,132.54,1
49.00,137.44,1
130.00,138.98,1
205.00,139.80,1
127.00,141.32,1
144.00,142.78,1
72.00,143.20,1
113.00,142.10,1
37.00,139.33,1
169.00,135.56,1
40.00,131.64,1
213.00,128.12,1
113.00,126.01,1
220.00,125.68,1
51.00,126.27,1
49.00,125.60,1
36.00,122.46,1
61.00,117.51,1
56.00,111.64,1
92.00,105.66,1
99.00,100.43,1
156.00,96.82,1
51.00,94.70,1
127.00,93.15,1
92.00,92.16,1
92.00,91.70,1
74.00,91.20,1
168.00,91.19,1
127.00,92.60,1
172.00,95.55,1
102.00,99.36,1
138.00,103.22,1
214.00,107.65,1
47.00,112.51,1
83.00,115.71,1
58.00,116.56,1
111.00,115.91,1
42.00,114.23,1
107.00,111.66,1
349.00,111.04,1
286.00,115.94,1
65.00,123.99,1
200.00,131.11,1
189.00,137.59,1
129.00,143.81,1
84.00,148.15,1
73.00,149.62,1
54.00,148.11,1
64.00,144.04,1
113.00,138.63,1
81.00,133.00,1
57.00,127.07,1
54.00,120.41,1
51.00,113.15,1
132.00,106.26,1
72.00,100.71,1
46.00,95.82,1
145.00,91.50,1
90.00,88.72,1
187.00,87.90,1
84.00,88.89,1
89.00,90.39,1
128.00,91.77,1
64.00,93.16,1
47.00,93.64,1
122.00,93.23,1
60.00,92.73,1
213.00,93.06,1
63.00,94.76,1
46.00,96.11,1
153.00,96.50,1
45.00,96.88,1
93.00,96.74,1
66.00,95.90,1
383.00,97.14,1
233.00,103.63,1
93.00,112.93,1
114.00,120.67,1
113.00,126.15,1
168.00,130.34,1
71.00,133.51,1
102.00,134.89,1
91.00,134.50,1
52.00,132.53,1
52.00,128.66,1
127.00,123.82,1
128.00,119.62,1
71.00,116.24,1
48.00,112.46,1
78.00,107.90,1
120.00,103.54,1
120.00,100.43,1
138.00,98.86,1
76.00,98.31,1
177.00,98.51,1
289.00,101.34,1
154.00,107.67,1
150.00,115.13,1
58.00,121.22,1
67.00,124.58,1
168.00,125.97,1
155.00,127.48,1
98.00,129.17,1
61.00,129.58,1
178.00,128.89,1
72.00,128.14,1
90.00,126.73,1
233.00,125.48,1
58.00,125.46,1
179.00,125.67,1
43.00,125.46,1
153.00,124.61,1
125.00,123.76,1
155.00,123.64,1
62.00,123.57,1
65.00,122.26,1
64.00,119.32,1
83.00,115.42,1
45.00,110.90,1
37.00,105.51,1
101.00,99.75,1
49.00,94.44,1
94.00,89.71,1
204.00,86.80,1
121.00,86.88,1
109.00,88.69,1
145.00,91.14,1
48.00,93.68,1
50.00,94.90,1
60.00,94.41,1
84.00,93.01,1
110.00,91.66,1
156.00,91.42,1
165.00,93.07,1
127.00,96.34,1
65.00,99.64,1
42.00,101.31,1
75.00,101.06,1
104.00,99.98,1
150.00,99.42,1
48.00,99.45,1
140.00,99.38,1
192.00,100.33,1
42.00,102.43,1
116.00,103.86,1
146.00,104.99,1
93.00,106.53,1
48.00,107.30,1
55.00,106.38,1
76.00,104.09,1
65.00,101.15,1
60.00,97.77,1
54.00,93.94,1
43.00,89.67,1
50.00,85.02,1
116.00,80.81,1
94.00,78.06,1
40.00,76.24,1
199.00,75.42,1
52.00,76.36,1
46.00,77.44,1
74.00,77.50,1
131.00,77.67,1
39.00,78.34,1
80.00,78.64,1
40.00,78.25,1
124.00,77.71,1
64.00,77.64,1
69.00,77.67,1
152.00,78.06,1
103.00,79.71,1
36.00,81.59,1
48.00,82.16,1
114.00,81.90,1
140.00,82.43,1
42.00,83.71,1
67.00,84.32,1
92.00,84.21,1
58.00,83.90,1
127.00,83.65,1
35.00,83.57,1
145.00,83.57,1
69.00,84.08,1
38.00,84.34,1
105.00,83.81,1
61.00,83.19,1
87.00,82.57,1
66.00,81.85,1
138.00,81.55,1
90.00,82.20,1
124.00,83.63,1
57.00,85.21,1
65.00,86.10,1
81.00,86.15,1
138.00,86.35,1
67.00,87.15,1
219.00,88.95,1
68.00,92.12,1
131.00,95.50,1
57.00,98.11,1
39.00,99.19,1
72.00,98.44,1
206.00,97.83,1
38.00,98.45,1
83.00,98.68,1
110.00,98.18,1
164.00,98.42,1
81.00,99.64,1
156.00,101.26,1
68.00,102.96,1
40.00,103.58,1
71.00,102.44,1
108.00,100.57,1
56.00,98.66,1
88.00,96.49,1
70.00,94.13,1
84.00,91.81,1
64.00,89.50,1
45.00,86.92,1
146.00,84.56,1
55.00,83.20,1
127.00,82.59,1
162.00,83.28,1
64.00,85.31,1
57.00,86.90,1
106.00,87.57,1
50.00,87.82,1
37.00,87.13,1
56.00,85.20,1
62.00,82.65,1
112.00,80.39,1
45.00,78.76,1
42.00,76.93,1
130.00,75.14,1
86.00,74.50,1
62.00,74.57,1
49.00,74.29,1
52.00,73.37,1
71.00,72.10,1
62.00,70.87,1
63.00,69.73,1
79.00,68.76,1
39.00,67.90,1
38.00,66.61,1
83.00,65.06,1
170.00,64.83,1
162.00,67.39,1
140.00,72.33,1
97.00,78.16,1
110.00,83.68,1
88.00,88.46,1
109.00,92.43,1
52.00,95.35,1
62.00,96.69,1
90.00,96.71,1
82.00,96.20,1
39.00,95.06,1
40.00,92.70,1
59.00,89.31,1
35.00,85.37,1
110.00,81.53,1
154.00,79.29,1
38.00,78.76,1
44.00,78.02,1
47.00,76.30,1
65.00,74.14,1
67.00,72.06,1
43.00,70.10,1
60.00,68.05,1
70.00,66.17,1
128.00,65.27,1
57.00,65.60,1
75.00,66.30,1
68.00,66.92,1
53.00,67.35,1
142.00,68.07,1
37.00,69.46,1
36.00,70.30,1
50.00,69.91,1
90.00,69.16,1
57.00,68.69,1
63.00,68.26,1
49.00,67.59,1
105.00,67.05,1
82.00,67.25,1
49.00,67.80,1
64.00,68.00,1
52.00,67.80,1
55.00,67.24,1
66.00,66.47,1
52.00,65.67,1
107.00,65.18,1
51.00,65.27,1
97.00,65.71,1
258.00,68.06,1
74.00,73.27,1
44.00,78.54,1
50.00,81.69,1
54.00,83.00,1
56.00,83.03,1
65.00,82.21,1
75.00,81.03,1
54.00,79.67,1
40.00,77.84,1
77.00,75.62,1
81.00,73.70,1
72.00,72.38,1
39.00,71.16,1
88.00,69.85,1
110.00,69.23,1
153.00,70.30,1
50.00,72.64,1
42.00,74.44,1
41.00,74.78,1
99.00,74.41,1
113.00,74.57,1
69.00,75.50,1
74.00,76.40,1
48.00,76.74,1
80.00,76.53,1
81.00,76.22,1
143.00,76.65,1
55.00,77.94,1
37.00,78.73,1
173.00,79.23,1
81.00,80.82,1
77.00,82.78,1
113.00,84.40,1
37.00,85.65,1
55.00,85.75,1
72.00,84.80,1
84.00,83.60,1
96.00,82.71,1
75.00,82.20,1
37.00,81.43,1
69.00,79.95,1
52.00,78.06,1
60.00,75.96,1
55.00,73.73,1
92.00,71.76,1
243.00,71.86,1
80.00,75.02,1
70.00,78.86,1
71.00,81.58,1
37.00,83.00,1
58.00,82.99,1
59.00,81.99,1
59.00,80.46,1
43.00,78.44,1
86.00,76.22,1
88.00,74.51,1
64.00,73.45,1
47.00,72.38,1
121.00,71.49,1
86.00,71.55,1
55.00,72.12,1
86.00,72.49,1
37.00,72.56,1
64.00,72.06,1
83.00,71.35,1
83.00,71.04,1
49.00,70.92,1
43.00,70.34,1
40.00,69.00,1
59.00,67.20,1
49.00,65.32,1
38.00,63.34,1
70.00,61.35,1
55.00,59.74,1
84.00,58.73,1
65.00,58.40,1
86.00,58.71,1
50.00,59.37,1
88.00,60.18,1
75.00,61.30,1
64.00,62.62,1
220.00,65.05,1
60.00,69.42,1
136.00,74.39,1
91.00,79.21,1
69.00,83.45,1
51.00,86.22,1
66.00,87.41,1
48.00,87.34,1
68.00,86.30,1
153.00,85.44,1
97.00,85.85,1
45.00,86.57,1
43.00,86.13,1
131.00,85.12,1
110.00,84.98,1
80.00,85.62,1
120.00,86.50,1
49.00,87.36,1
96.00,87.72,1
49.00,87.49,1
111.00,86.94,1
76.00,86.52,1
134.00,86.62,1
68.00,87.25,1
178.00,88.53,1
108.00,90.98,1
271.00,95.36,1
183.00,102.44,1
272.00,111.97,1
96.00,122.34,1
301.00,132.50,1
398.00,144.88,1
63.00,159.12,1
107.00,169.89,1
236.00,176.69,1
168.00,182.18,1
47.00,185.44,1
86.00,184.64,1
160.00,181.02,1
55.00,176.07,1
63.00,169.23,1
166.00,161.30,1
54.00,153.64,1
200.00,146.65,1
205.00,141.97,1
97.00,139.56,1
109.00,137.31,1
120.00,134.65,1
105.00,131.92,1
127.00,129.27,1
69.00,126.52,1
77.00,123.05,1
119.00,119.17,1
80.00,115.55,1
118.00,112.25,1
322.00,111.33,1
245.00,115.31,1
93.00,122.00,1
133.00,127.71,1
64.00,131.31,1
211.00,133.61,1
97.00,135.75,1
212.00,137.99,1
268.00,141.65,1
59.00,146.43,1
52.00,148.84,1
72.00,147.68,1
223.00,145.37,1
334.00,145.87,1
125.00,149.83,1
59.00,153.20,1
77.00,153.33,1
53.00,150.55,1
350.00,147.86,1
73.00,147.75,1
95.00,147.67,1
60.00,145.35,1
127.00,141.59,1
93.00,137.41,1
164.00,133.64,1
49.00,130.24,1
343.00,128.34,1
169.00,130.17,1
527.00,137.27,1
426.00,151.82,1
162.00,170.57,1
133.00,186.48,1
38.00,196.25,1
42.00,199.24,1
182.00,197.43,1
127.00,193.92,1
146.00,189.64,1
119.00,184.54,1
172.00,179.16,1
138.00,174.12,1
208.00,169.95,1
192.00,167.33,1
268.00,166.92,1
79.00,167.79,1
377.00,169.54,1
125.00,173.17,1
253.00,177.50,1
37.00,180.43,1
82.00,180.09,1
74.00,176.13,1
180.00,170.66,1
80.00,165.11,1
120.00,159.24,1
248.00,154.22,1
347.00,153.26,1
117.00,156.23,1
147.00,159.35,1
110.00,160.76,1
86.00,160.27,1
45.00,157.29,1
65.00,151.80,1
57.00,144.51,1
166.00,137.04,1
187.00,131.61,1
76.00,128.24,1
74.00,124.85,1
223.00,121.83,1
203.00,121.51,1
121.00,123.46,1
71.00,125.13,1
192.00,126.02,1
62.00,126.80,1
131.00,126.89,1
263.00,127.61,1
86.00,130.08,1
143.00,132.44,1
38.00,133.23,1
53.00,131.66,1
122.00,128.27,1
61.00,124.41,1
117.00,120.35,1
81.00,116.39,1
56.00,112.30,1
331.00,109.81,1
183.00,111.76,1
137.00,116.46,1
41.00,120.30,1
67.00,121.60,1
57.00,120.45,1
256.00,119.21,1
218.00,120.83,1
205.00,125.54,1
198.00,131.80,1
188.00,138.73,1
337.00,146.98,1
176.00,156.98,1
142.00,166.25,1
156.00,172.89,1
238.00,177.93,1
596.00,186.06,1
283.00,200.37,1
126.00,215.25,1
160.00,225.18,1
91.00,229.65,1
254.00,230.40,1
107.00,229.18,1
220.00,226.35,1
122.00,222.23,1
284.00,217.93,1
571.00,217.87,1
190.00,224.01,1
272.00,231.38,1
90.00,236.15,1
132.00,236.75,1
262.00,234.46,1
129.00,231.46,1
192.00,227.41,1
376.00,224.17,1
216.00,223.89,1
127.00,224.00,1
134.00,221.64,1
129.00,216.85,1
246.00,211.30,1
62.00,205.74,1
192.00,199.34,1
174.00,193.01,1
85.00,186.98,1
142.00,180.23,1
329.00,174.91,1
474.00,175.63,1
70.00,181.52,1
78.00,185.72,1
144.00,185.80,1
34.00,183.00,1
198.00,178.21,1
115.00,173.17,1
264.00,169.34,1
109.00,167.05,1
38.00,164.08,1
94.00,158.68,1
239.00,153.17,1
257.00,150.78,1
122.00,151.25,1
66.00,151.29,1
64.00,148.95,1
558.00,148.46,1
132.00,154.08,1
219.00,161.86,1
91.00,167.89,1
337.00,173.02,1
151.00,178.77,1
229.00,184.40,1
114.00,188.55,1
157.00,190.56,1
332.00,192.06,1
127.00,194.71,1
216.00,196.92,1
407.00,200.06,1
417.00,207.81,1
136.00,218.27,1
117.00,225.67,1
70.00,227.44,1
255.00,225.44,1
372.00,224.35,1
390.00,227.59,1
326.00,234.80,1
83.00,241.81,1
146.00,244.40,1
221.00,243.22,1
136.00,240.28,1
581.00,238.98,1
83.00,241.47,1
65.00,242.06,1
43.00,236.60,1
250.00,227.91,1
189.00,219.82,1
210.00,213.33,1
55.00,206.83,1
105.00,198.54,1
216.00,189.66,1
135.00,182.19,1
129.00,175.57,1
134.00,169.09,1
40.00,162.18,1
230.00,155.22,1
252.00,151.04,1
209.00,150.70,1
114.00,151.98,1
250.00,153.60,1
149.00,156.08,1
136.00,158.46,1
172.00,159.92,1
51.00,160.13,1
482.00,161.25,1
156.00,166.49,1
68.00,172.09,1
260.00,175.20,1
106.00,177.51,1
123.00,178.31,1
420.00,179.40,1
91.00,183.01,1
84.00,185.38,1
212.00,184.88,1
178.00,184.07,1
90.00,182.80,1
160.00,180.08,1
106.00,176.31,1
116.00,171.63,1
88.00,165.91,1
95.00,159.25,1
44.00,151.57,1
186.00,143.77,1
40.00,136.86,1
51.00,129.70,1
127.00,122.20,1
40.00,115.31,1
38.00,108.29,1
44.00,100.69,1
37.00,92.92,1
158.00,86.23,1
241.00,83.23,1
68.00,84.07,1
80.00,85.70,1
68.00,86.55,1
116.00,87.08,1
240.00,89.07,1
235.00,94.53,1
355.00,104.38,1
108.00,117.18,1
77.00,128.39,1
42.00,135.17,1
158.00,138.46,1
41.00,139.67,1
70.00,138.53,1
66.00,135.09,1
189.00,131.24,1
308.00,130.19,1
111.00,132.65,1
51.00,134.94,1
66.00,134.53,1
40.00,131.61,1
86.00,126.93,1
247.00,122.97,1
86.00,121.41,1
94.00,120.45,1
147.00,119.22,1
540.00,122.03,1
124.00,131.27,1
100.00,141.30,1
214.00,148.70,1
142.00,154.94,1
41.00,159.00,1
176.00,160.15,1
89.00,159.71,1
50.00,157.41,1
151.00,153.27,1
69.00,148.54,1
74.00,143.01,1
74.00,136.48,1
90.00,129.57,1
263.00,124.33,1
75.00,121.95,1
109.00,120.43,1
106.00,118.58,1
183.00,117.42,1
183.00,118.08,1
39.00,119.54,1
199.00,120.50,1
139.00,122.01,1
224.00,124.94,1
400.00,131.24,1
90.00,140.92,1
88.00,149.13,1
234.00,154.56,1
147.00,159.38,1
94.00,162.92,1
126.00,163.99,1
59.00,162.70,1
78.00,159.00,1
101.00,153.52,1
85.00,147.29,1
190.00,141.50,1
347.00,139.16,1
254.00,142.21,1
99.00,147.74,1
52.00,151.19,1
242.00,152.46,1
38.00,153.13,1
83.00,151.86,1
135.00,148.67,1
78.00,144.88,1
134.00,140.72,1
156.00,137.05,1
171.00,134.83,1
52.00,133.24,1
204.00,131.58,1
165.00,131.14,1
217.00,132.70,1
226.00,136.34,1
238.00,142.11,1
115.00,148.56,1
261.00,154.59,1
188.00,160.87,1
49.00,165.99,1
279.00,169.06,1
114.00,171.76,1
175.00,173.76,1
61.00,173.87,1
118.00,171.61,1
136.00,167.82,1
55.00,163.07,1
139.00,157.24,1
87.00,151.07,1
40.00,144.29,1
127.00,136.78,1
148.00,130.21,1
67.00,124.96,1
77.00,119.81,1
65.00,114.30,1
147.00,109.26,1
138.00,105.94,1
57.00,103.87,1
46.00,101.33,1
248.00,99.33,1
52.00,99.42,1
89.00,99.85,1
39.00,99.09,1
65.00,97.14,1
80.00,94.50,1
190.00,92.80,1
225.00,94.13,1
53.00,97.75,1
69.00,100.59,1
49.00,101.37,1
81.00,100.66,1
316.00,101.14,1
88.00,104.84,1
127.00,109.31,1
109.00,112.82,1
121.00,115.60,1
142.00,117.97,1
43.00,119.58,1
77.00,119.36,1
61.00,117.37,1
36.00,113.91,1
57.00,109.08,1
115.00,103.99,1
206.00,100.76,1
59.00,99.84,1
95.00,99.30,1
175.00,99.11,1
302.00,101.85,1
375.00,110.18,1
62.00,122.09,1
291.00,133.65,1
499.00,147.53,1
205.00,165.56,1
93.00,182.07,1
45.00,192.12,1
54.00,195.36,1
327.00,195.35,1
172.00,196.16,1
113.00,196.76,1
119.00,194.98,1
35.00,190.34,1
78.00,182.68,1
44.00,172.77,1
45.00,161.23,1
262.00,150.40,1
57.00,142.39,1
66.00,135.25,1
37.00,127.19,1
86.00,118.72,1
146.00,111.29,1
81.00,105.78,1
108.00,101.54,1
45.00,97.78,1
154.00,94.60,1
59.00,92.47,1
86.00,90.75,1
72.00,88.94,1
162.00,87.87,1
134.00,88.54,1
123.00,90.72,1
96.00,93.32,1
186.00,96.35,1
58.00,99.83,1
158.00,102.98,1
244.00,107.08,1
122.00,113.03,1
44.00,118.21,1
218.00,121.77,1
75.00,125.04,1
45.00,126.80,1
53.00,125.73,1
215.00,123.78,1
78.00,122.85,1
84.00,121.85,1
62.00,119.60,1
112.00,116.55,1
108.00,113.64,1
51.00,110.80,1
53.00,107.13,1
62.00,102.61,1
67.00,97.79,1
100.00,93.34,1
90.00,89.82,1
41.00,86.83,1
109.00,84.01,1
79.00,81.88,1
103.00,80.62,1
74.00,79.95,1
75.00,79.50,1
122.00,79.39,1
71.00,79.90,1
81.00,80.50,1
60.00,80.72,1
80.00,80.54,1
101.00,80.39,1
200.00,81.61,1
232.00,85.90,1
112.00,92.73,1
120.00,99.63,1
124.00,105.51,1
141.00,110.70,1
99.00,115.16,1
82.00,118.21,1
172.00,120.22,1
76.00,121.93,1
156.00,123.16,1
70.00,123.80,1
54.00,123.09,1
114.00,120.86,1
58.00,117.98,1
92.00,114.55,1
244.00,112.19,1
51.00,111.89,1
304.00,113.33,1
167.00,117.56,1
100.00,122.99,1
88.00,126.81,1
48.00,128.20,1
45.00,126.92,1
58.00,123.37,1
42.00,118.26,1
133.00,112.73,1
127.00,108.39,1
146.00,105.91,1
87.00,104.72,1
48.00,103.40,1
36.00,100.77,1
220.00,98.26,1
85.00,97.76,1
85.00,98.07,1
172.00,98.60,1
76.00,99.92,1
112.00,101.22,1
102.00,102.19,1
68.00,102.72,1
41.00,102.04,1
182.00,100.89,1
55.00,100.49,1
96.00,100.06,1
96.00,99.27,1
160.00,99.09,1
54.00,99.56,1
162.00,100.19,1
116.00,101.44,1
76.00,102.92,1
209.00,104.59,1
64.00,107.02,1
65.00,108.64,1
172.00,109.30,1
234.00,111.51,1
334.00,117.62,1
179.00,127.29,1
190.00,137.73,1
162.00,147.07,1
127.00,154.60,1
127.00,159.70,1
86.00,162.15,1
43.00,161.44,1
49.00,157.37,1
76.00,150.85,1
82.00,143.21,1
64.00,135.18,1
219.00,128.15,1
77.00,123.38,1
138.00,119.89,1
320.00,118.85,1
108.00,121.48,1
179.00,125.37,1
65.00,128.57,1
134.00,130.41,1
137.00,131.37,1
89.00,131.86,1
324.00,133.16,1
241.00,137.89,1
107.00,144.48,1
156.00,149.76,1
160.00,153.60,1
64.00,155.90,1
43.00,155.23,1
95.00,151.57,1
72.00,146.30,1
125.00,140.48,1
124.00,135.10,1
124.00,130.65,1
44.00,126.39,1
46.00,121.09,1
185.00,115.70,1
404.00,114.58,1
137.00,119.31,1
68.00,125.14,1
66.00,128.23,1
97.00,128.79,1
105.00,127.95,1
160.00,126.95,1
58.00,125.98,1
68.00,123.92,1
431.00,123.44,1
113.00,127.63,1
188.00,133.64,1
219.00,139.64,1
56.00,145.23,1
190.00,148.97,1
88.00,151.21,1
46.00,151.32,1
93.00,148.64,1
127.00,144.64,1
103.00,140.54,1
139.00,136.67,1
57.00,132.83,1
179.00,129.09,1
54.00,125.86,1
52.00,122.03,1
99.00,117.20,1
64.00,112.25,1
39.00,106.96,1
42.00,100.91,1
138.00,95.14,1
110.00,91.14,1
45.00,88.43,1
68.00,85.67,1
225.00,84.08,1
37.00,84.71,1
88.00,85.58,1
115.00,86.13,1
236.00,88.29,1
68.00,92.43,1
238.00,97.57,1
146.00,103.96,1
152.00,111.02,1
128.00,117.50,1
154.00,123.18,1
130.00,128.10,1
48.00,131.42,1
79.00,132.12,1
72.00,130.55,1
198.00,128.53,1
60.00,127.10,1
95.00,125.23,1
72.00,122.32,1
126.00,119.08,1
127.00,116.40,1
116.00,114.62,1
49.00,112.85,1
74.00,110.15,1
90.00,106.82,1
40.00,103.19,1
42.00,98.76,1
127.00,94.21,1
49.00,90.48,1
65.00,87.06,1
124.00,84.08,1
143.00,82.83,1
42.00,82.89,1
135.00,83.19,1
107.00,84.13,1
209.00,86.68,1
138.00,91.27,1
263.00,97.97,1
93.00,106.10,1
63.00,113.00,1
65.00,116.83,1
154.00,118.74,1
43.00,119.69,1
100.00,119.26,1
82.00,117.67,1
140.00,115.91,1
48.00,114.12,1
64.00,111.47,1
47.00,107.61,1
100.00,103.23,1
158.00,99.85,1
253.00,99.49,1
55.00,101.91,1
143.00,104.56,1
87.00,106.65,1
71.00,107.92,1
109.00,108.11,1
139.00,108.21,1
102.00,108.75,1
129.00,109.47,1
68.00,109.94,1
47.00,109.22,1
118.00,107.38,1
124.00,105.80,1
43.00,104.47,1
69.00,102.31,1
123.00,99.79,1
65.00,97.72,1
90.00,95.75,1
206.00,94.82,1
139.00,96.29,1
96.00,99.02,1
242.00,102.57,1
106.00,107.55,1
59.00,112.02,1
51.00,113.97,1
90.00,113.77,1
46.00,112.14,1
49.00,109.09,1
48.00,104.73,1
80.00,99.82,1
85.00,95.20,1
190.00,92.17,1
53.00,91.10,1
111.00,90.64,1
294.00,92.01,1
133.00,96.88,1
89.00,102.75,1
110.00,107.28,1
41.00,110.08,1
115.00,111.10,1
66.00,110.99,1
75.00,109.88,1
100.00,108.02,1
70.00,105.89,1
92.00,103.50,1
111.00,101.29,1
45.00,99.22,1
255.00,98.15,1
69.00,99.26,1
85.00,100.77,1
121.00,101.57,1
64.00,102.05,1
121.00,102.09,1
65.00,101.82,1
123.00,101.33,1
114.00,101.13,1
64.00,101.06,1
152.00,100.92,1
40.00,100.85,1
63.00,99.90,1
36.00,97.51,1
111.00,94.51,1
244.00,93.25,1
69.00,94.72,1
107.00,96.76,1
43.00,97.80,1
109.00,97.85,1
62.00,97.32,1
82.00,96.29,1
50.00,94.61,1
82.00,92.38,1
107.00,90.28,1
80.00,88.81,1
42.00,87.30,1
154.00,85.90,1
129.00,85.96,1
223.00,88.44,1
40.00,92.49,1
37.00,95.32,1
83.00,95.92,1
106.00,95.75,1
62.00,95.41,1
122.00,94.90,1
41.00,94.24,1
76.00,92.95,1
87.00,91.20,1
34.00,89.20,1
70.00,86.59,1
55.00,83.64,1
122.00,81.13,1
49.00,79.41,1
127.00,78.35,1
70.00,78.04,1
41.00,77.78,1
48.00,76.65,1
47.00,74.77,1
53.00,72.48,1
57.00,70.07,1
67.00,67.86,1
42.00,65.86,1
43.00,63.77,1
61.00,61.63,1
65.00,59.87,1
119.00,59.12,1
145.00,60.30,1
90.00,63.34,1
96.00,67.04,1
48.00,70.37,1
111.00,73.07,1
130.00,76.02,1
36.00,79.11,1
129.00,81.58,1
59.00,83.67,1
59.00,85.03,1
76.00,85.34,1
52.00,84.93,1
35.00,83.58,1
54.00,81.24,1
60.00,78.45,1
62.00,75.69,1
46.00,72.99,1
58.00,70.27,1
45.00,67.60,1
105.00,65.42,1
135.00,64.83,1
107.00,66.25,1
137.00,69.16,1
109.00,73.13,1
84.00,77.37,1
84.00,81.02,1
56.00,83.65,1
150.00,85.75,1
73.00,88.05,1
125.00,90.37,1
158.00,93.13,1
40.00,96.13,1
38.00,97.50,1
81.00,96.93,1
88.00,95.66,1
105.00,94.53,1
165.00,94.38,1
116.00,95.72,1
70.00,97.44,1
122.00,98.64,1
68.00,99.45,1
124.00,99.93,1
78.00,100.25,1
166.00,100.87,1
89.00,102.13,1
41.00,102.89,1
230.00,103.38,1
73.00,105.08,1
36.00,106.31,1
112.00,105.85,1
74.00,104.76,1
78.00,103.26,1
144.00,101.79,1
67.00,100.90,1
39.00,99.50,1
42.00,96.68,1
162.00,93.70,1
43.00,91.71,1
86.00,89.93,1
52.00,87.81,1
86.00,85.58,1
111.00,83.82,1
40.00,82.60,1
71.00,81.10,1
76.00,79.42,1
55.00,77.81,1
43.00,75.90,1
62.00,73.62,1
52.00,71.25,1
43.00,68.83,1
61.00,66.35,1
101.00,64.48,1
119.00,64.09,1
37.00,64.78,1
52.00,65.19,1
55.00,64.96,1
108.00,64.87,1
86.00,65.63,1
74.00,66.97,1
80.00,68.37,1
96.00,69.90,1
84.00,71.70,1
80.00,73.55,1
91.00,75.29,1
175.00,77.74,1
70.00,81.27,1
54.00,84.32,1
116.00,86.27,1
36.00,87.56,1
77.00,87.82,1
45.00,87.06,1
64.00,85.50,1
82.00,83.59,1
44.00,81.63,1
79.00,79.49,1
84.00,77.60,1
38.00,75.95,1
136.00,74.64,1
46.00,74.12,1
101.00,74.00,1
52.00,73.94,1
127.00,74.20,1
74.00,75.09,1
40.00,75.88,1
68.00,75.80,1
72.00,75.28,1
59.00,74.64,1
54.00,73.69,1
56.00,72.38,1
37.00,70.66,1
140.00,69.25,1
121.00,69.52,1
86.00,71.30,1
109.00,73.62,1
213.00,77.24,1
60.00,82.36,1
126.00,87.32,1
38.00,91.10,1
70.00,93.20,1
41.00,93.52,1
60.00,92.42,1
166.00,91.23,1
34.00,90.83,1
111.00,90.38,1
123.00,90.17,1
170.00,91.40,1
47.00,93.53,1
99.00,95.06,1
38.00,95.41,1
86.00,94.69,1
179.00,94.23,1
68.00,95.00,1
57.00,95.52,1
121.00,95.26,1
82.00,95.06,1
66.00,94.66,1
46.00,93.39,1
40.00,90.95,1
60.00,87.63,1
42.00,83.87,1
74.00,80.04,1
70.00,76.62,1
102.00,74.11,1
47.00,72.41,1
52.00,70.77,1
149.00,69.67,1
92.00,70.20,1
127.00,72.09,1
57.00,74.47,1
54.00,76.26,1
70.00,77.04,1
43.00,77.04,1
171.00,77.20,1
72.00,78.56,1
61.00,80.09,1
146.00,81.43,1
50.00,83.08,1
143.00,84.81,1
58.00,86.58,1
126.00,88.24,1
62.00,89.66,1
64.00,90.37,1
38.00,89.79,1
149.00,88.77,1
39.00,88.16,1
50.00,87.06,1
80.00,85.15,1
109.00,83.53,1
86.00,82.71,1
62.00,82.19,1
42.00,81.16,1
66.00,79.44,1
86.00,77.66,1
38.00,76.02,1
39.00,73.92,1
37.00,71.13,1
100.00,68.42,1
184.00,67.59,1
55.00,69.07,1
89.00,71.08,1
165.00,73.55,1
38.00,76.78,1
78.00,79.33,1
49.00,80.65,1
114.00,81.38,1
47.00,81.92,1
128.00,82.40,1
156.00,83.85,1
64.00,86.36,1
117.00,88.73,1
132.00,91.15,1
88.00,93.86,1
122.00,96.38,1
42.00,98.19,1
61.00,98.51,1
37.00,97.14,1
45.00,94.35,1
58.00,90.62,1
58.00,86.61,1
140.00,83.30,1
43.00,81.18,1
36.00,79.05,1
54.00,76.20,1
72.00,73.29,1
80.00,70.96,1
58.00,69.24,1
104.00,68.12,1
136.00,68.34,1
49.00,69.76,1
65.00,71.00,1
90.00,71.81,1
96.00,72.88,1
171.00,75.05,1
98.00,78.67,1
82.00,82.53,1
119.00,85.89,1
63.00,88.76,1
123.00,91.05,1
57.00,92.81,1
54.00,93.47,1
60.00,92.76,1
46.00,90.95,1
38.00,88.14,1
100.00,84.92,1
71.00,82.22,1
54.00,79.90,1
111.00,77.89,1
70.00,76.64,1
43.00,75.59,1
43.00,73.94,1
67.00,71.86,1
45.00,69.74,1
60.00,67.61,1
62.00,65.63,1
127.00,64.54,1
110.00,65.09,1
257.00,68.34,1
67.00,74.29,1
38.00,79.90,1
50.00,83.12,1
59.00,84.44,1
61.00,84.55,1
63.00,83.85,1
89.00,82.83,1
47.00,81.70,1
89.00,80.38,1
137.00,79.71,1
146.00,80.79,1
83.00,83.19,1
37.00,85.15,1
37.00,85.42,1
91.00,84.46,1
115.00,83.70,1
44.00,83.37,1
132.00,83.14,1
98.00,83.57,1
40.00,84.18,1
123.00,84.34,1
37.00,84.35,1
107.00,84.07,1
64.00,83.69,1
78.00,83.21,1
110.00,82.83,1
35.00,82.55,1
90.00,81.84,1
52.00,80.80,1
42.00,79.28,1
100.00,77.45,1
59.00,75.99,1
127.00,75.23,1
176.00,76.21,1
132.00,79.51,1
44.00,83.39,1
127.00,86.44,1
104.00,89.23,1
64.00,91.70,1
51.00,92.87,1
45.00,92.44,1
64.00,90.75,1
44.00,88.24,1
93.00,85.45,1
113.00,83.33,1
121.00,82.62,1
46.00,82.65,1
50.00,82.12,1
63.00,80.73,1
59.00,78.95,1
72.00,77.07,1
51.00,75.20,1
123.00,73.75,1
82.00,73.34,1
101.00,73.82,1
63.00,74.62,1
53.00,75.07,1
42.00,74.67,1
109.00,73.93,1
69.00,73.64,1
40.00,73.36,1
65.00,72.49,1
100.00,71.67,1
49.00,71.27,1
68.00,70.81,1
35.00,69.93,1
66.00,68.63,1
60.00,67.25,1
74.00,66.14,1
88.00,65.55,1
68.00,65.56,1
36.00,65.56,1
71.00,65.13,1
112.00,65.05,1
72.00,65.88,1
35.00,66.74,1
52.00,66.78,1
46.00,66.12,1
45.00,64.99,1
78.00,63.76,1
47.00,62.76,1
139.00,62.50,1
62.00,63.43,1
43.00,64.58,1
34.00,64.81,1
40.00,64.09,1
81.00,63.04,1
88.00,62.55,1
82.00,62.91,1
70.00,63.78,1
72.00,64.76,1
69.00,65.70,1
120.00,66.98,1
67.00,68.84,1
58.00,70.56,1
96.00,71.84,1
124.00,73.53,1
111.00,76.15,1
63.00,79.01,1
90.00,81.27,1
65.00,82.85,1
42.00,83.47,1
74.00,83.02,1
115.00,82.45,1
117.00,82.77,1
44.00,83.53,1
38.00,83.35,1
185.00,82.98,1
52.00,83.75,1
83.00,84.66,1
158.00,85.65,1
118.00,87.85,1
177.00,91.35,1
69.00,95.46,1
87.00,98.74,1
162.00,101.33,1
49.00,103.74,1
124.00,105.32,1
254.00,107.59,1
46.00,111.38,1
123.00,114.45,1
246.00,117.45,1
37.00,121.25,1
40.00,123.09,1
125.00,122.42,1
56.00,120.70,1
120.00,118.36,1
101.00,115.94,1
196.00,114.56,1
117.00,114.77,1
56.00,115.15,1
42.00,113.84,1
56.00,110.68,1
54.00,106.32,1
69.00,101.40,1
51.00,96.31,1
94.00,91.44,1
160.00,88.04,1
42.00,86.32,1
195.00,85.79,1
47.00,86.54,1
72.00,87.23,1
59.00,86.93,1
123.00,86.41,1
69.00,86.25,1
108.00,86.33,1
53.00,86.33,1
77.00,85.88,1
59.00,84.90,1
42.00,83.29,1
112.00,81.43,1
90.00,80.27,1
38.00,79.46,1
50.00,78.00,1
38.00,75.76,1
94.00,73.37,1
107.00,71.88,1
74.00,71.54,1
86.00,71.74,1
137.00,72.68,1
96.00,74.77,1
75.00,77.22,1
43.00,78.91,1
43.00,79.26,1
209.00,79.70,1
94.00,82.01,1
91.00,85.10,1
39.00,87.22,1
110.00,88.25,1
63.00,88.77,1
94.00,88.96,1
231.00,90.14,1
58.00,93.17,1
68.00,95.81,1
56.00,96.71,1
137.00,96.81,1
82.00,97.10,1
78.00,97.23,1
64.00,96.61,1
44.00,94.99,1
107.00,92.74,1
42.00,90.45,1
43.00,87.65,1
55.00,84.14,1
122.00,80.96,1
160.00,79.68,1
71.00,80.33,1
74.00,81.27,1
78.00,81.75,1
64.00,81.85,1
55.00,81.37,1
58.00,80.21,1
56.00,78.57,1
66.00,76.67,1
148.00,75.48,1
110.00,75.99,1
90.00,77.66,1
124.00,79.79,1
35.00,81.85,1
56.00,82.77,1
103.00,82.79,1
48.00,82.62,1
87.00,82.12,1
121.00,81.87,1
106.00,82.57,1
58.00,83.61,1
81.00,84.14,1
117.00,84.54,1
36.00,84.95,1
52.00,84.43,1
52.00,82.83,1
43.00,80.51,1
70.00,77.80,1
67.00,75.23,1
47.00,72.86,1
132.00,71.08,1
101.00,70.79,1
77.00,71.63,1
39.00,72.34,1
38.00,72.07,1
64.00,70.96,1
136.00,70.27,1
83.00,70.90,1
105.00,72.40,1
117.00,74.55,1
53.00,76.96,1
64.00,78.61,1
86.00,79.47,1
61.00,79.95,1
119.00,80.37,1
52.00,80.94,1
131.00,81.62,1
60.00,82.54,1
164.00,83.94,1
77.00,86.09,1
57.00,87.98,1
46.00,88.45,1
112.00,88.04,1
93.00,87.82,1
38.00,87.52,1
39.00,86.11,1
76.00,83.78,1
38.00,81.12,1
41.00,78.01,1
50.00,74.45,1
44.00,70.81,1
75.00,67.47,1
46.00,64.68,1
57.00,62.28,1
60.00,60.21,1
187.00,59.67,1
98.00,61.71,1
57.00,64.85,1
39.00,67.17,1
77.00,68.46,1
40.00,69.10,1
75.00,69.21,1
151.00,69.83,1
42.00,71.46,1
44.00,72.64,1
73.00,72.81,1
89.00,72.83,1
68.00,73.08,1
120.00,73.71,1
83.00,74.99,1
108.00,76.75,1
66.00,78.56,1
80.00,79.99,1
88.00,81.02,1
71.00,81.83,1
95.00,82.43,1
58.00,82.79,1
60.00,82.57,1
146.00,82.34,1
52.00,82.80,1
228.00,84.38,1
156.00,88.30,1
37.00,93.16,1
66.00,96.19,1
80.00,97.36,1
66.00,97.43,1
114.00,96.94,1
130.00,96.88,1
79.00,97.37,1
181.00,98.42,1
98.00,100.43,1
48.00,102.14,1
61.00,102.15,1
93.00,100.95,1
52.00,99.15,1
66.00,96.67,1
46.00,93.50,1
52.00,89.72,1
148.00,86.35,1
44.00,84.17,1
73.00,82.28,1
158.00,81.02,1
39.00,80.92,1
80.00,80.77,1
94.00,80.42,1
36.00,80.00,1
127.00,79.45,1
95.00,79.60,1
43.00,80.07,1
109.00,80.17,1
86.00,80.46,1
58.00,80.83,1
80.00,80.77,1
106.00,80.73,1
61.00,80.95,1
44.00,80.69,1
62.00,79.55,1
99.00,78.26,1
162.00,78.19,1
42.00,79.41,1
79.00,80.40,1
116.00,81.11,1
66.00,82.08,1
95.00,82.94,1
91.00,83.72,1
43.00,84.19,1
83.00,83.91,1
37.00,82.95,1
44.00,81.13,1
65.00,78.64,1
40.00,75.91,1
107.00,73.41,1
44.00,71.54,1
83.00,70.06,1
126.00,69.41,1
79.00,70.05,1
52.00,71.01,1
44.00,71.25,1
81.00,70.90,1
80.00,70.66,1
66.00,70.68,1
78.00,70.75,1
95.00,71.10,1
50.00,71.64,1
59.00,71.77,1
67.00,71.44,1
57.00,70.89,1
59.00,70.11,1
134.00,69.76,1
188.00,71.47,1
55.00,75.10,1
49.00,78.24,1
88.00,80.04,1
152.00,81.87,1
68.00,84.36,1
51.00,86.26,1
66.00,86.80,1
71.00,86.44,1
103.00,85.88,1
60.00,85.39,1
159.00,85.36,1
89.00,86.37,1
58.00,87.54,1
132.00,88.33,1
60.00,89.16,1
74.00,89.54,1
91.00,89.33,1
101.00,89.18,1
37.00,88.83,1
39.00,87.39,1
71.00,84.93,1
127.00,82.80,1
44.00,81.50,1
96.00,80.38,1
116.00,79.80,1
114.00,80.37,1
56.00,81.46,1
125.00,82.50,1
111.00,84.01,1
117.00,86.22,1
90.00,88.65,1
98.00,90.84,1
95.00,92.64,1
64.00,93.86,1
56.00,93.98,1
43.00,92.78,1
114.00,90.91,1
100.00,89.55,1
38.00,88.46,1
84.00,86.86,1
88.00,85.19,1
53.00,83.70,1
127.00,82.45,1
84.00,82.01,1
70.00,81.98,1
54.00,81.55,1
90.00,80.74,1
157.00,80.68,1
71.00,81.91,1
102.00,83.45,1
61.00,84.64,1
90.00,85.34,1
83.00,85.72,1
87.00,86.02,1
47.00,85.91,1
119.00,85.46,1
109.00,85.56,1
55.00,86.06,1
193.00,87.00,1
58.00,88.97,1
154.00,91.37,1
163.00,94.55,1
296.00,100.29,1
192.00,109.18,1
58.00,118.46,1
110.00,125.03,1
173.00,129.61,1
93.00,133.33,1
65.00,135.26,1
52.00,134.48,1
60.00,131.30,1
45.00,126.32,1
47.00,119.97,1
64.00,112.84,1
62.00,105.64,1
53.00,98.67,1
85.00,92.19,1
59.00,86.56,1
56.00,81.55,1
59.00,76.95,1
63.00,72.87,1
259.00,71.04,1
58.00,72.64,1
127.00,75.62,1
110.00,78.89,1
40.00,81.96,1
116.00,84.11,1
104.00,86.08,1
53.00,87.84,1
45.00,88.38,1
121.00,88.04,1
116.00,88.21,1
60.00,88.84,1
67.00,88.88,1
63.00,88.09,1
74.00,86.78,1
76.00,85.27,1
51.00,83.59,1
62.00,81.54,1
200.00,80.39,1
54.00,81.16,1
126.00,82.65,1
68.00,84.14,1
39.00,84.97,1
165.00,85.36,1
80.00,86.56,1
126.00,88.35,1
67.00,90.08,1
37.00,90.86,1
69.00,90.18,1
136.00,89.24,1
52.00,88.84,1
79.00,88.23,1
66.00,87.13,1
176.00,86.62,1
88.00,87.56,1
61.00,88.80,1
41.00,88.86,1
62.00,87.65,1
62.00,85.70,1
141.00,84.09,1
119.00,83.92,1
46.00,84.55,1
54.00,84.41,1
65.00,83.32,1
209.00,82.98,1
72.00,84.60,1
103.00,86.80,1
122.00,88.90,1
57.00,90.91,1
108.00,92.27,1
52.00,92.94,1
62.00,92.62,1
106.00,91.65,1
122.00,91.15,1
67.00,91.21,1
65.00,90.89,1
85.00,89.96,1
86.00,88.94,1
89.00,88.08,1
50.00,87.11,1
162.00,86.40,1
76.00,86.73,1
122.00,87.72,1
70.00,88.80,1
69.00,89.42,1
55.00,89.10,1
183.00,88.91,1
72.00,89.89,1
62.00,90.89,1
85.00,90.95,1
128.00,90.97,1
78.00,91.44,1
145.00,92.33,1
101.00,93.84,1
42.00,95.10,1
73.00,95.04,1
67.00,93.95,1
47.00,92.12,1
100.00,89.83,1
54.00,87.61,1
64.00,85.28,1
39.00,82.49,1
144.00,80.02,1
51.00,78.61,1
78.00,77.63,1
67.00,76.58,1
36.00,75.30,1
80.00,73.64,1
144.00,72.75,1
105.00,73.59,1
50.00,75.16,1
59.00,76.04,1
74.00,76.19,1
58.00,75.98,1
127.00,75.92,1
120.00,76.95,1
135.00,79.35,1
63.00,82.29,1
151.00,85.22,1
97.00,88.46,1
123.00,91.87,1
114.00,95.20,1
48.00,97.88,1
105.00,99.28,1
71.00,99.77,1
40.00,99.20,1
42.00,97.07,1
127.00,94.31,1
50.00,91.96,1
46.00,89.38,1
45.00,86.01,1
36.00,82.01,1
40.00,77.56,1
121.00,73.57,1
59.00,70.94,1
38.00,68.89,1
69.00,66.73,1
83.00,65.04,1
57.00,64.01,1
50.00,63.16,1
44.00,62.07,1
77.00,60.98,1
88.00,60.49,1
60.00,60.72,1
176.00,62.08,1
97.00,65.25,1
41.00,68.92,1
120.00,71.91,1
106.00,75.00,1
71.00,78.21,1
145.00,81.31,1
38.00,84.28,1
65.00,86.10,1
78.00,86.66,1
67.00,86.60,1
51.00,85.85,1
39.00,84.15,1
59.00,81.62,1
110.00,79.21,1
82.00,77.74,1
174.00,77.77,1
42.00,79.14,1
43.00,80.05,1
68.00,79.71,1
45.00,78.67,1
37.00,76.88,1
75.00,74.58,1
58.00,72.39,1
44.00,70.27,1
72.00,68.15,1
76.00,66.46,1
117.00,65.81,1
77.00,66.35,1
44.00,67.18,1
111.00,67.87,1
200.00,70.02,1
150.00,74.87,1
102.00,81.06,1
43.00,86.37,1
145.00,90.29,1
166.00,94.42,1
57.00,98.85,1
43.00,101.60,1
43.00,101.84,1
224.00,101.57,1
37.00,102.39,1
38.00,102.40,1
101.00,100.79,1
127.00,99.27,1
105.00,98.63,1
57.00,98.15,1
64.00,96.86,1
68.00,94.78,1
174.00,93.15,1
77.00,92.92,1
84.00,93.08,1
108.00,93.04,1
72.00,93.01,1
97.00,92.79,1
68.00,92.32,1
72.00,91.42,1
42.00,89.81,1
118.00,87.87,1
150.00,87.03,1
47.00,87.37,1
39.00,87.09,1
72.00,85.61,1
106.00,84.04,1
58.00,82.90,1
36.00,81.42,1
90.00,79.41,1
68.00,77.61,1
69.00,76.11,1
39.00,74.48,1
71.00,72.57,1
38.00,70.54,1
101.00,68.71,1
82.00,67.71,1
169.00,68.31,1
125.00,71.01,1
90.00,74.94,1
57.00,78.44,1
83.00,80.88,1
40.00,82.22,1
153.00,83.14,1
54.00,84.39,1
40.00,85.04,1
49.00,84.22,1
54.00,82.41,1
90.00,80.34,1
104.00,78.91,1
106.00,78.55,1
60.00,78.81,1
100.00,79.08,1
57.00,79.30,1
79.00,79.26,1
156.00,79.68,1
131.00,81.69,1
87.00,84.71,1
50.00,87.13,1
36.00,87.93,1
105.00,87.50,1
42.00,86.67,1
40.00,85.06,1
53.00,82.47,1
62.00,79.49,1
53.00,76.49,1
128.00,74.13,1
178.00,73.93,1
58.00,75.82,1
79.00,77.84,1
98.00,79.39,1
74.00,80.83,1
41.00,81.61,1
64.00,81.32,1
89.00,80.54,1
58.00,79.76,1
43.00,78.57,1
81.00,76.93,1
120.00,75.83,1
72.00,75.73,1
111.00,76.26,1
38.00,76.88,1
118.00,77.33,1
71.00,77.98,1
60.00,78.54,1
85.00,78.64,1
62.00,78.54,1
131.00,78.67,1
94.00,79.62,1
120.00,81.36,1
226.00,84.61,1
70.00,89.60,1
102.00,94.30,1
128.00,98.08,1
44.00,101.03,1
47.00,102.10,1
57.00,101.14,1
62.00,98.90,1
116.00,96.38,1
106.00,94.59,1
82.00,93.49,1
89.00,92.53,1
149.00,92.12,1
100.00,92.81,1
67.00,93.70,1
49.00,93.60,1
99.00,92.60,1
40.00,91.15,1
43.00,88.87,1
318.00,87.87,1
83.00,90.53,1
79.00,94.22,1
70.00,96.50,1
41.00,97.18,1
59.00,96.22,1
97.00,94.42,1
141.00,93.19,1
35.00,92.60,1
51.00,91.24,1
85.00,89.02,1
136.00,87.35,1
42.00,86.49,1
46.00,85.18,1
66.00,83.02,1
75.00,80.72,1
68.00,78.64,1
83.00,76.90,1
87.00,75.69,1
78.00,75.04,1
72.00,74.67,1
62.00,74.27,1
41.00,73.46,1
75.00,72.23,1
75.00,71.10,1
40.00,70.09,1
64.00,68.81,1
83.00,67.63,1
49.00,66.81,1
54.00,65.92,1
109.00,65.26,1
65.00,65.39,1
90.00,66.05,1
46.00,66.76,1
51.00,67.03,1
45.00,66.60,1
121.00,66.25,1
52.00,66.60,1
162.00,67.86,1
66.00,70.23,1
55.00,72.60,1
68.00,74.01,1
60.00,74.71,1
48.00,74.73,1
116.00,74.52,1
58.00,74.69,1
97.00,75.07,1
130.00,76.05,1
44.00,77.58,1
61.00,78.49,1
90.00,78.70,1
74.00,78.86,1
114.00,79.29,1
42.00,79.83,1
36.00,79.54,1
99.00,78.44,1
83.00,77.64,1
45.00,77.03,1
86.00,76.16,1
79.00,75.43,1
108.00,75.29,1
140.00,76.29,1
43.00,78.10,1
65.00,79.30,1
121.00,80.01,1
162.00,81.78,1
65.00,84.65,1
37.00,86.75,1
93.00,87.40,1
68.00,87.39,1
44.00,86.75,1
174.00,86.12,1
90.00,86.80,1
44.00,87.74,1
67.00,87.58,1
40.00,86.35,1
60.00,84.27,1
87.00,81.95,1
56.00,79.87,1
126.00,78.33,1
60.00,77.62,1
36.00,76.84,1
81.00,75.48,1
41.00,73.92,1
69.00,72.21,1
71.00,70.58,1
36.00,69.06,1
43.00,67.15,1
64.00,65.02,1
41.00,63.00,1
50.00,61.00,1
45.00,59.00,1
61.00,57.19,1
76.00,55.93,1
190.00,56.45,1
117.00,59.73,1
38.00,64.06,1
54.00,67.28,1
36.00,68.99,1
147.00,70.27,1
141.00,72.81,1
40.00,76.24,1
66.00,78.69,1
144.00,80.57,1
82.00,82.94,1
72.00,85.15,1
86.00,86.58,1
84.00,87.52,1
65.00,87.97,1
71.00,87.76,1
144.00,87.59,1
48.00,87.95,1
61.00,87.79,1
53.00,86.62,1
42.00,84.57,1
50.00,81.77,1
44.00,78.48,1
65.00,75.05,1
35.00,71.69,1
58.00,68.36,1
71.00,65.41,1
158.00,63.96,1
43.00,64.30,1
157.00,65.76,1
69.00,68.22,1
84.00,70.97,1
62.00,73.19,1
57.00,74.64,1
94.00,75.51,1
130.00,76.78,1
75.00,78.75,1
47.00,80.35,1
146.00,81.51,1
86.00,83.22,1
62.00,84.91,1
60.00,85.61,1
45.00,85.18,1
42.00,83.61,1
53.00,81.16,1
67.00,78.39,1
46.00,75.61,1
81.00,72.99,1
37.00,70.61,1
98.00,68.56,1
40.00,66.99,1
84.00,65.75,1
156.00,65.65,1
49.00,67.08,1
96.00,68.84,1
54.00,70.35,1
140.00,72.01,1
45.00,74.03,1
118.00,75.99,1
101.00,78.12,1
39.00,80.13,1
42.00,80.83,1
36.00,79.98,1
123.00,78.64,1
189.00,78.92,1
87.00,81.41,1
82.00,84.29,1
95.00,86.55,1
113.00,88.59,1
82.00,90.54,1
127.00,92.37,1
98.00,94.30,1
43.00,95.67,1
38.00,95.38,1
134.00,94.09,1
49.00,92.93,1
64.00,91.42,1
84.00,89.41,1
47.00,87.23,1
39.00,84.47,1
68.00,81.18,1
114.00,78.38,1
94.00,76.89,1
139.00,76.86,1
58.00,77.87,1
84.00,78.86,1
70.00,79.45,1
46.00,79.51,1
47.00,78.65,1
43.00,76.90,1
133.00,75.23,1
119.00,75.01,1
55.00,75.89,1
89.00,76.67,1
69.00,77.23,1
82.00,77.65,1
82.00,78.01,1
94.00,78.52,1
71.00,79.12,1
99.00,79.74,1
65.00,80.33,1
149.00,81.24,1
203.00,83.94,1
56.00,88.27,1
251.00,93.33,1
41.00,99.05,1
42.00,103.21,1
74.00,104.56,1
71.00,104.28,1
35.00,102.68,1
60.00,99.70,1
48.00,95.81,1
116.00,91.94,1
50.00,88.68,1
67.00,85.61,1
58.00,82.45,1
111.00,79.74,1
158.00,78.68,1
87.00,79.55,1
121.00,81.33,1
41.00,83.06,1
52.00,83.73,1
88.00,83.38,1
71.00,82.82,1
48.00,81.95,1
48.00,80.34,1
69.00,78.22,1
53.00,75.99,1
50.00,73.64,1
46.00,71.06,1
36.00,68.21,1
65.00,65.30,1
59.00,62.79,1
38.00,60.64,1
48.00,58.50,1
90.00,56.80,1
82.00,56.20,1
39.00,56.31,1
118.00,56.83,1
68.00,58.20,1
84.00,60.10,1
63.00,62.04,1
90.00,63.93,1
137.00,66.42,1
82.00,69.81,1
97.00,73.37,1
52.00,76.36,1
84.00,78.46,1
36.00,79.58,1
201.00,80.75,1
208.00,84.33,1
121.00,90.38,1
147.00,96.94,1
45.00,102.52,1
89.00,106.06,1
124.00,108.10,1
190.00,110.44,1
146.00,113.95,1
194.00,118.44,1
89.00,123.09,1
57.00,126.09,1
57.00,126.36,1
72.00,124.37,1
42.00,120.76,1
46.00,115.69,1
146.00,110.31,1
80.00,106.04,1
76.00,102.44,1
62.00,98.74,1
78.00,94.96,1
42.00,91.10,1
68.00,87.06,1
49.00,82.97,1
141.00,79.67,1
170.00,78.66,1
73.00,79.90,1
44.00,81.18,1
43.00,81.17,1
60.00,80.03,1
115.00,78.81,1
88.00,78.41,1
93.00,78.70,1
121.00,79.58,1
108.00,81.27,1
62.00,83.17,1
144.00,84.97,1
134.00,87.53,1
43.00,90.34,1
94.00,92.07,1
58.00,92.74,1
62.00,92.42,1
137.00,91.77,1
112.00,91.94,1
122.00,93.01,1
84.00,94.40,1
56.00,95.18,1
38.00,94.56,1
111.00,92.96,1
52.00,91.25,1
58.00,89.18,1
34.00,86.33,1
72.00,82.93,1
122.00,80.09,1
53.00,78.33,1
117.00,77.27,1
123.00,77.30,1
69.00,78.33,1
52.00,79.12,1
54.00,78.96,1
58.00,78.04,1
206.00,77.87,1
39.00,79.40,1
47.00,80.67,1
44.00,80.42,1
120.00,79.68,1
55.00,79.28,1
37.00,78.57,1
65.00,77.02,1
142.00,75.85,1
55.00,75.79,1
58.00,75.81,1
44.00,75.09,1
35.00,73.55,1
92.00,71.65,1
36.00,69.94,1
94.00,68.47,1
64.00,67.47,1
37.00,66.61,1
54.00,65.35,1
107.00,64.31,1
87.00,64.34,1
66.00,65.10,1
82.00,66.01,1
103.00,67.28,1
60.00,68.89,1
101.00,70.52,1
60.00,72.09,1
42.00,73.07,1
51.00,73.00,1
129.00,72.79,1
52.00,73.22,1
42.00,73.40,1
78.00,72.88,1
45.00,72.07,1
36.00,70.77,1
64.00,68.93,1
40.00,66.93,1
62.00,64.91,1
46.00,62.96,1
73.00,61.27,1
62.00,60.06,1
131.00,59.87,1
91.00,61.19,1
70.00,63.35,1
98.00,65.62,1
77.00,68.02,1
59.00,70.16,1
134.00,72.19,1
74.00,74.66,1
110.00,77.31,1
82.00,79.87,1
63.00,81.97,1
75.00,83.19,1
106.00,84.01,1
38.00,84.54,1
70.00,84.23,1
56.00,83.14,1
85.00,81.76,1
151.00,81.14,1
82.00,81.87,1
60.00,82.82,1
62.00,82.98,1
76.00,82.51,1
68.00,81.75,1
84.00,80.92,1
106.00,80.44,1
59.00,80.35,1
65.00,80.02,1
98.00,79.49,1
123.00,79.64,1
69.00,80.53,1
68.00,81.27,1
50.00,81.25,1
41.00,80.27,1
53.00,78.39,1
42.00,75.93,1
94.00,73.45,1
108.00,71.93,1
68.00,71.53,1
70.00,71.46,1
82.00,71.44,1
74.00,71.61,1
37.00,71.58,1
73.00,71.01,1
39.00,70.06,1
54.00,68.71,1
45.00,67.00,1
140.00,65.83,1
80.00,66.13,1
41.00,66.99,1
114.00,67.71,1
58.00,68.73,1
74.00,69.74,1
36.00,70.21,1
67.00,69.99,1
37.00,69.22,1
90.00,68.25,1
38.00,67.37,1
62.00,66.36,1
91.00,65.48,1
100.00,65.50,1
65.00,66.29,1
41.00,66.94,1
52.00,66.87,1
98.00,66.61,1
59.00,66.75,1
38.00,66.74,1
114.00,66.59,1
38.00,66.79,1
54.00,66.75,1
40.00,66.03,1
40.00,64.75,1
48.00,63.03,1
48.00,61.15,1
49.00,59.30,1
59.00,57.62,1
114.00,56.77,1
45.00,57.00,1
59.00,57.46,1
90.00,58.00,1
53.00,58.91,1
75.00,59.90,1
117.00,61.31,1
71.00,63.51,1
76.00,65.85,1
74.00,67.91,1
135.00,70.20,1
55.00,72.91,1
77.00,75.22,1
41.00,76.56,1
77.00,76.98,1
52.00,76.79,1
97.00,76.40,1
69.00,76.19,1
61.00,75.95,1
66.00,75.39,1
56.00,74.53,1
55.00,73.33,1
109.00,72.27,1
107.00,72.22,1
43.00,72.83,1
87.00,73.20,1
58.00,73.33,1
201.00,74.36,1
39.00,76.81,1
58.00,78.91,1
94.00,79.96,1
74.00,80.75,1
102.00,81.53,1
65.00,82.26,1
79.00,82.66,1
37.00,82.38,1
138.00,81.85,1
38.00,81.64,1
65.00,81.08,1
81.00,80.03,1
37.00,78.76,1
46.00,76.86,1
59.00,74.42,1
46.00,71.84,1
56.00,69.21,1
41.00,66.56,1
63.00,64.01,1
76.00,61.97,1
71.00,60.74,1
41.00,59.94,1
41.00,58.95,1
145.00,58.47,1
88.00,59.65,1
115.00,62.18,1
61.00,65.19,1
69.00,67.85,1
63.00,69.80,1
64.00,71.10,1
41.00,71.66,1
131.00,72.00,1
54.00,72.83,1
60.00,73.53,1
57.00,73.53,1
126.00,73.58,1
78.00,74.40,1
89.00,75.63,1
39.00,76.50,1
58.00,76.49,1
51.00,75.64,1
46.00,74.20,1
142.00,73.01,1
39.00,72.74,1
35.00,72.24,1
51.00,70.77,1
42.00,68.80,1
50.00,66.55,1
69.00,64.38,1
44.00,62.52,1
36.00,60.63,1
110.00,59.06,1
40.00,58.37,1
58.00,57.97,1
78.00,57.68,1
69.00,57.89,1
84.00,58.62,1
41.00,59.54,1
127.00,60.69,1
127.00,63.05,1
36.00,66.21,1
60.00,68.56,1
76.00,70.00,1
35.00,70.82,1
197.00,71.93,1
55.00,74.41,1
36.00,76.67,1
83.00,77.57,1
55.00,77.81,1
67.00,77.56,1
145.00,77.58,1
42.00,78.33,1
127.00,79.25,1
97.00,80.58,1
54.00,82.04,1
104.00,82.98,1
36.00,83.42,1
74.00,83.05,1
83.00,82.22,1
105.00,81.73,1
144.00,82.27,1
44.00,83.57,1
64.00,84.25,1
62.00,83.90,1
38.00,82.73,1
54.00,80.69,1
74.00,78.28,1
87.00,76.24,1
38.00,74.54,1
55.00,72.59,1
51.00,70.35,1
85.00,68.32,1
68.00,66.90,1
62.00,65.96,1
37.00,64.95,1
127.00,64.21,1
36.00,64.24,1
36.00,64.08,1
246.00,64.76,1
83.00,68.20,1
78.00,72.62,1
105.00,76.43,1
128.00,80.23,1
60.00,83.96,1
75.00,86.68,1
46.00,87.99,1
66.00,87.99,1
104.00,87.41,1
56.00,86.81,1
62.00,85.78,1
40.00,83.98,1
55.00,81.46,1
113.00,79.03,1
75.00,77.52,1
150.00,77.24,1
66.00,78.12,1
137.00,79.69,1
77.00,81.69,1
40.00,83.24,1
58.00,83.42,1
38.00,82.40,1
60.00,80.49,1
65.00,78.21,1
41.00,75.80,1
106.00,73.55,1
51.00,71.93,1
105.00,70.91,1
101.00,70.78,1
48.00,71.29,1
37.00,71.25,1
50.00,70.28,1
88.00,69.07,1
62.00,68.24,1
122.00,68.12,1
40.00,68.65,1
190.00,70.03,1
156.00,73.52,1
48.00,78.29,1
83.00,82.09,1
159.00,85.34,1
166.00,89.69,1
68.00,94.66,1
38.00,98.11,1
166.00,100.04,1
114.00,102.21,1
96.00,104.53,1
48.00,105.76,1
44.00,105.12,1
44.00,102.65,1
81.00,99.14,1
37.00,95.19,1
93.00,91.08,1
67.00,87.35,1
94.00,84.28,1
39.00,81.59,1
46.00,78.66,1
39.00,75.22,1
73.00,71.74,1
52.00,68.69,1
120.00,66.56,1
67.00,65.71,1
73.00,65.59,1
59.00,65.58,1
139.00,66.14,1
47.00,67.56,1
90.00,69.08,1
94.00,70.60,1
37.00,72.03,1
92.00,72.88,1
39.00,73.27,1
89.00,73.28,1
41.00,72.99,1
33.00,72.04,1
56.00,70.27,1
68.00,68.37,1
39.00,66.57,1
110.00,65.12,1
98.00,64.82,1
41.00,65.32,1
44.00,65.38,1
62.00,64.86,1
52.00,64.13,1
82.00,63.51,1
127.00,63.77,1
69.00,65.21,1
78.00,66.99,1
43.00,68.34,1
39.00,68.79,1
88.00,68.58,1
40.00,68.26,1
105.00,68.02,1
134.00,68.76,1
114.00,71.08,1
106.00,74.37,1
47.00,77.50,1
41.00,79.30,1
60.00,79.59,1
77.00,79.15,1
101.00,78.80,1
83.00,78.93,1
112.00,79.55,1
43.00,80.28,1
53.00,80.25,1
76.00,79.43,1
60.00,78.37,1
61.00,77.09,1
109.00,75.98,1
50.00,75.34,1
190.00,75.66,1
50.00,77.40,1
58.00,79.04,1
241.00,81.03,1
44.00,84.74,1
55.00,87.93,1
40.00,89.04,1
138.00,89.19,1
112.00,89.90,1
108.00,91.35,1
56.00,92.61,1
79.00,92.98,1
47.00,92.34,1
70.00,90.79,1
64.00,88.69,1
50.00,86.22,1
95.00,83.62,1
125.00,81.91,1
116.00,81.71,1
100.00,82.64,1
45.00,83.59,1
65.00,83.66,1
71.00,82.98,1
105.00,82.30,1
48.00,81.78,1
78.00,80.99,1
53.00,79.82,1
73.00,78.42,1
50.00,76.82,1
106.00,75.36,1
61.00,74.44,1
74.00,73.77,1
71.00,73.14,1
99.00,72.84,1
89.00,73.17,1
107.00,74.18,1
65.00,75.55,1
86.00,76.76,1
86.00,77.81,1
205.00,79.87,1
69.00,83.48,1
47.00,86.68,1
106.00,88.48,1
53.00,89.49,1
58.00,89.52,1
79.00,88.63,1
127.00,87.86,1
41.00,87.46,1
56.00,86.45,1
142.00,85.27,1
36.00,84.65,1
80.00,83.82,1
90.00,82.77,1
190.00,82.97,1
58.00,84.78,1
126.00,86.93,1
49.00,88.66,1
109.00,89.79,1
51.00,90.31,1
58.00,89.95,1
60.00,88.58,1
71.00,86.66,1
152.00,85.27,1
94.00,85.26,1
49.00,85.66,1
83.00,85.40,1
70.00,84.73,1
92.00,84.03,1
107.00,83.70,1
73.00,83.82,1
62.00,83.74,1
88.00,83.27,1
214.00,83.89,1
104.00,86.72,1
62.00,90.02,1
94.00,92.22,1
124.00,93.93,1
41.00,95.29,1
42.00,95.22,1
36.00,93.35,1
36.00,90.08,1
128.00,86.56,1
39.00,83.76,1
108.00,81.46,1
39.00,79.44,1
75.00,77.45,1
73.00,75.53,1
70.00,73.99,1
63.00,72.65,1
109.00,71.75,1
102.00,71.86,1
98.00,72.99,1
109.00,74.79,1
36.00,76.60,1
142.00,78.11,1
50.00,79.74,1
145.00,81.53,1
67.00,83.57,1
45.00,85.03,1
110.00,85.53,1
69.00,85.85,1
39.00,85.61,1
79.00,84.48,1
91.00,83.20,1
39.00,81.96,1
37.00,80.01,1
119.00,77.79,1
80.00,76.48,1
46.00,75.64,1
76.00,74.56,1
79.00,73.56,1
77.00,72.93,1
87.00,72.70,1
41.00,72.53,1
104.00,72.26,1
118.00,72.70,1
80.00,74.11,1
69.00,75.60,1
102.00,76.87,1
75.00,78.18,1
55.00,79.13,1
50.00,79.17,1
44.00,78.23,1
99.00,76.89,1
58.00,75.80,1
63.00,74.76,1
97.00,73.83,1
83.00,73.49,1
62.00,73.49,1
36.00,73.07,1
131.00,72.52,1
127.00,73.21,1
96.00,75.30,1
46.00,77.42,1
41.00,78.36,1
164.00,78.90,1
63.00,80.27,1
44.00,81.42,1
34.00,81.13,1
45.00,79.52,1
40.00,77.02,1
108.00,74.50,1
75.00,72.86,1
58.00,71.81,1
90.00,70.97,1
68.00,70.52,1
55.00,70.16,1
69.00,69.61,1
94.00,69.27,1
53.00,69.28,1
112.00,69.57,1
125.00,70.83,1
82.00,73.11,1
93.00,75.60,1
88.00,77.93,1
101.00,80.18,1
69.00,82.21,1
58.00,83.49,1
34.00,83.51,1
37.00,82.12,1
79.00,79.89,1
45.00,77.54,1
44.00,74.95,1
39.00,71.92,1
80.00,68.91,1
65.00,66.53,1
61.00,64.76,1
107.00,63.71,1
74.00,63.68,1
66.00,64.21,1
42.00,64.54,1
65.00,64.43,1
95.00,64.43,1
43.00,64.76,1
85.00,65.07,1
49.00,65.32,1
78.00,65.51,1
70.00,65.76,1
59.00,66.06,1
150.00,66.91,1
46.00,68.69,1
74.00,70.39,1
46.00,71.34,1
44.00,71.42,1
40.00,70.55,1
130.00,69.66,1
95.00,69.96,1
49.00,70.94,1
80.00,71.59,1
90.00,72.19,1
43.00,72.76,1
55.00,72.70,1
40.00,71.84,1
44.00,70.28,1
85.00,68.54,1
60.00,67.22,1
52.00,66.11,1
84.00,65.13,1
148.00,65.28,1
111.00,67.31,1
48.00,70.08,1
41.00,71.92,1
65.00,72.55,1
47.00,72.43,1
95.00,72.05,1
69.00,71.90,1
40.00,71.67,1
78.00,71.00,1
75.00,70.39,1
55.00,69.93,1
52.00,69.23,1
64.00,68.26,1
72.00,67.34,1
95.00,66.92,1
61.00,67.07,1
142.00,67.93,1
178.00,70.67,1
82.00,75.21,1
130.00,80.09,1
74.00,84.58,1
85.00,88.20,1
96.00,90.84,1
96.00,92.92,1
78.00,94.45,1
128.00,95.64,1
38.00,96.44,1
60.00,96.04,1
99.00,94.68,1
76.00,93.28,1
68.00,91.76,1
58.00,89.80,1
55.00,87.31,1
71.00,84.50,1
42.00,81.54,1
60.00,78.37,1
144.00,75.89,1
75.00,75.01,1
73.00,74.89,1
142.00,75.34,1
55.00,76.59,1
74.00,77.70,1
58.00,78.14,1
52.00,77.88,1
42.00,76.79,1
46.00,74.92,1
40.00,72.46,1
63.00,69.75,1
95.00,67.54,1
74.00,66.32,1
120.00,66.22,1
67.00,67.11,1
77.00,68.31,1
95.00,69.57,1
85.00,71.14,1
186.00,73.72,1
55.00,77.47,1
51.00,80.63,1
40.00,82.00,1
149.00,82.64,1
52.00,83.62,1
154.00,84.97,1
43.00,86.52,1
79.00,87.47,1
50.00,87.37,1
49.00,86.27,1
69.00,84.38,1
49.00,82.09,1
70.00,79.61,1
50.00,77.06,1
58.00,74.46,1
38.00,71.70,1
87.00,69.06,1
68.00,67.09,1
59.00,65.71,1
52.00,64.45,1
35.00,63.00,1
72.00,61.42,1
87.00,60.38,1
70.00,60.22,1
173.00,61.41,1
86.00,64.44,1
55.00,67.93,1
101.00,70.78,1
45.00,73.11,1
38.00,74.35,1
60.00,74.31,1
42.00,73.49,1
68.00,72.18,1
160.00,71.60,1
40.00,72.34,1
130.00,73.56,1
44.00,74.91,1
68.00,75.82,1
59.00,75.98,1
70.00,75.71,1
44.00,75.00,1
88.00,74.01,1
70.00,73.21,1
56.00,72.53,1
75.00,71.74,1
36.00,70.77,1
74.00,69.52,1
37.00,68.09,1
38.00,66.29,1
112.00,64.59,1
110.00,64.26,1
45.00,65.01,1
50.00,65.49,1
111.00,65.81,1
120.00,67.12,1
48.00,69.19,1
42.00,70.61,1
77.00,71.08,1
40.00,71.03,1
94.00,70.72,1
102.00,70.87,1
54.00,71.56,1
106.00,72.33,1
66.00,73.27,1
109.00,74.43,1
121.00,76.21,1
62.00,78.46,1
45.00,79.97,1
59.00,80.21,1
44.00,79.44,1
38.00,77.76,1
68.00,75.45,1
90.00,73.38,1
52.00,71.86,1
117.00,70.91,1
38.00,70.52,1
55.00,69.94,1
52.00,68.84,1
58.00,67.51,1
77.00,66.30,1
63.00,65.46,1
103.00,65.18,1
90.00,65.79,1
196.00,68.06,1
55.00,71.99,1
56.00,75.58,1
66.00,77.74,1
52.00,78.77,1
72.00,78.95,1
96.00,78.89,1
51.00,78.84,1
37.00,78.13,1
65.00,76.59,1
83.00,74.94,1
94.00,73.90,1
83.00,73.59,1
79.00,73.73,1
109.00,74.29,1
80.00,75.38,1
77.00,76.58,1
124.00,77.92,1
35.00,79.34,1
182.00,80.91,1
104.00,83.60,1
148.00,87.33,1
56.00,91.06,1
42.00,93.38,1
89.00,93.95,1
72.00,93.69,1
47.00,92.70,1
104.00,91.12,1
88.00,89.74,1
140.00,89.20,1
44.00,89.25,1
130.00,89.30,1
60.00,89.39,1
77.00,89.21,1
56.00,88.35,1
116.00,87.30,1
117.00,86.97,1
53.00,87.18,1
60.00,86.79,1
44.00,85.41,1
60.00,83.24,1
74.00,80.81,1
100.00,78.83,1
95.00,77.78,1
47.00,77.19,1
124.00,76.78,1
88.00,77.10,1
105.00,78.14,1
60.00,79.31,1
68.00,80.00,1
144.00,80.69,1
110.00,82.40,1
40.00,84.32,1
58.00,85.03,1
93.00,84.82,1
52.00,84.31,1
149.00,83.98,1
139.00,85.01,1
45.00,86.88,1
87.00,88.05,1
125.00,88.87,1
170.00,90.75,1
102.00,93.88,1
130.00,97.33,1
42.00,100.07,1
54.00,101.05,1
72.00,100.29,1
81.00,98.69,1
82.00,96.82,1
76.00,94.86,1
77.00,92.79,1
43.00,90.40,1
89.00,87.68,1
95.00,85.33,1
80.00,83.69,1
56.00,82.25,1
65.00,80.56,1
64.00,78.68,1
117.00,77.21,1
59.00,76.49,1
56.00,75.82,1
55.00,74.66,1
53.00,73.13,1
178.00,72.35,1
59.00,73.23,1
55.00,74.38,1
89.00,74.93,1
65.00,75.33,1
45.00,75.32,1
65.00,74.64,1
97.00,73.90,1
110.00,73.96,1
105.00,75.05,1
40.00,76.38,1
74.00,76.99,1
157.00,77.77,1
78.00,79.65,1
43.00,81.39,1
131.00,82.45,1
36.00,83.36,1
86.00,83.68,1
42.00,83.22,1
127.00,82.58,1
75.00,82.42,1
56.00,82.34,1
36.00,81.39,1
53.00,79.46,1
50.00,76.95,1
46.00,74.14,1
60.00,71.22,1
65.00,68.55,1
110.00,66.75,1
51.00,65.94,1
152.00,66.17,1
62.00,67.60,1
50.00,69.15,1
39.00,69.70,1
62.00,69.38,1
81.00,68.86,1
80.00,68.71,1
75.00,68.93,1
150.00,69.97,1
46.00,71.94,1
41.00,73.40,1
40.00,73.47,1
95.00,72.88,1
60.00,72.42,1
37.00,71.76,1
60.00,70.49,1
42.00,68.83,1
71.00,67.07,1
93.00,65.80,1
111.00,65.73,1
36.00,66.40,1
74.00,66.84,1
71.00,67.07,1
88.00,67.54,1
43.00,68.07,1
77.00,68.29,1
79.00,68.48,1
78.00,68.94,1
68.00,69.52,1
64.00,69.96,1
41.00,69.94,1
82.00,69.50,1
124.00,69.59,1
82.00,70.77,1
79.00,72.36,1
116.00,74.13,1
50.00,76.00,1
58.00,77.18,1
88.00,77.61,1
124.00,78.33,1
104.00,79.92,1
38.00,81.55,1
37.00,81.89,1
57.00,80.83,1
80.00,79.25,1
61.00,77.73,1
70.00,76.25,1
40.00,74.60,1
68.00,72.68,1
53.00,70.70,1
44.00,68.67,1
81.00,66.68,1
38.00,64.99,1
66.00,63.39,1
47.00,61.88,1
66.00,60.55,1
127.00,60.07,1
64.00,60.89,1
48.00,62.02,1
44.00,62.50,1
129.00,63.00,1
134.00,64.92,1
77.00,68.15,1
60.00,71.23,1
62.00,73.34,1
88.00,74.78,1
153.00,76.63,1
77.00,79.42,1
93.00,82.22,1
67.00,84.36,1
55.00,85.52,1
181.00,86.53,1
130.00,88.97,1
53.00,91.97,1
179.00,94.65,1
66.00,97.49,1
55.00,99.45,1
50.00,99.50,1
110.00,98.45,1
36.00,96.91,1
53.00,94.47,1
45.00,91.05,1
56.00,87.07,1
71.00,83.05,1
61.00,79.39,1
65.00,76.11,1
49.00,73.09,1
83.00,70.40,1
72.00,68.42,1
57.00,66.99,1
80.00,65.90,1
72.00,65.28,1
41.00,64.84,1
69.00,64.21,1
51.00,63.50,1
59.00,62.76,1
106.00,62.40,1
83.00,62.99,1
56.00,64.07,1
135.00,65.49,1
46.00,67.49,1
135.00,69.77,1
83.00,72.49,1
38.00,74.96,1
136.00,76.80,1
50.00,78.63,1
98.00,80.19,1
60.00,81.24,1
48.00,81.55,1
52.00,80.82,1
84.00,79.52,1
68.00,78.29,1
62.00,77.10,1
52.00,75.65,1
72.00,74.02,1
97.00,72.76,1
124.00,72.63,1
127.00,74.03,1
59.00,76.27,1
76.00,78.10,1
48.00,79.05,1
64.00,79.11,1
39.00,78.30,1
70.00,76.84,1
80.00,75.33,1
35.00,73.89,1
87.00,72.30,1
54.00,70.88,1
81.00,69.73,1
59.00,68.83,1
42.00,67.87,1
35.00,66.35,1
67.00,64.49,1
66.00,62.88,1
93.00,61.99,1
93.00,62.11,1
61.00,62.98,1
88.00,64.06,1
52.00,65.15,1
127.00,66.46,1
48.00,68.19,1
79.00,69.75,1
42.00,70.66,1
68.00,70.93,1
40.00,70.59,1
115.00,70.16,1
54.00,70.20,1
54.00,70.19,1
50.00,69.61,1
36.00,68.44,1
72.00,66.89,1
68.00,65.55,1
170.00,65.49,1
53.00,67.10,1
62.00,68.90,1
94.00,70.23,1
67.00,71.55,1
277.00,74.36,1
107.00,80.09,1
145.00,87.07,1
223.00,94.63,1
70.00,102.72,1
96.00,109.26,1
146.00,113.97,1
52.00,117.42,1
76.00,118.85,1
138.00,118.81,1
63.00,118.29,1
117.00,117.12,1
54.00,115.26,1
106.00,112.76,1
125.00,110.37,1
42.00,108.19,1
150.00,105.92,1
82.00,104.20,1
107.00,102.93,1
55.00,101.45,1
69.00,99.33,1
77.00,96.67,1
35.00,93.57,1
212.00,91.09,1
112.00,90.90,1
230.00,93.33,1
177.00,98.28,1
86.00,104.34,1
127.00,109.43,1
55.00,112.95,1
38.00,114.16,1
62.00,112.85,1
71.00,110.05,1
220.00,107.79,1
72.00,107.35,1
64.00,107.01,1
43.00,105.20,1
132.00,102.66,1
87.00,100.60,1
168.00,99.63,1
106.00,100.00,1
114.00,101.06,1
90.00,102.03,1
63.00,102.34,1
174.00,102.41,1
85.00,103.19,1
153.00,104.49,1
111.00,106.17,1
112.00,107.97,1
137.00,109.66,1
87.00,111.24,1
139.00,112.48,1
40.00,113.04,1
172.00,112.96,1
113.00,113.28,1
77.00,113.70,1
49.00,112.86,1
45.00,110.29,1
51.00,106.28,1
44.00,101.28,1
47.00,95.66,1
97.00,90.18,1
98.00,85.84,1
82.00,82.80,1
112.00,80.84,1
135.00,80.33,1
38.00,80.77,1
75.00,80.80,1
42.00,80.04,1
147.00,79.35,1
60.00,79.48,1
49.00,79.55,1
136.00,79.41,1
92.00,80.09,1
95.00,81.39,1
165.00,83.39,1
87.00,86.38,1
53.00,89.05,1
32.00,89.98,1
212.00,90.42,1
35.00,91.83,1
100.00,93.01,1
46.00,93.17,1
62.00,92.29,1
153.00,91.24,1
40.00,90.80,1
41.00,89.71,1
64.00,87.46,1
99.00,85.07,1
48.00,83.00,1
112.00,81.22,1
46.00,79.81,1
110.00,78.70,1
188.00,78.99,1
161.00,81.97,1
75.00,86.36,1
116.00,90.38,1
174.00,94.42,1
177.00,99.67,1
52.00,105.17,1
108.00,109.09,1
82.00,111.36,1
108.00,112.53,1
42.00,112.50,1
74.00,110.96,1
72.00,108.27,1
84.00,105.14,1
62.00,101.78,1
74.00,98.17,1
96.00,94.72,1
45.00,91.53,1
153.00,88.88,1
47.00,87.22,1
86.00,85.83,1
36.00,84.04,1
228.00,83.09,1
36.00,84.00,1
58.00,84.87,1
131.00,85.06,1
47.00,85.43,1
88.00,85.48,1
60.00,85.02,1
103.00,84.42,1
75.00,84.00,1
104.00,83.86,1
68.00,83.88,1
134.00,84.21,1
81.00,85.13,1
100.00,86.28,1
43.00,86.99,1
43.00,86.54,1
104.00,85.25,1
55.00,83.99,1
91.00,82.78,1
75.00,81.69,1
50.00,80.57,1
45.00,78.88,1
41.00,76.48,1
67.00,73.73,1
65.00,71.19,1
68.00,69.09,1
103.00,67.73,1
74.00,67.34,1
51.00,67.32,1
131.00,67.61,1
142.00,69.36,1
57.00,72.29,1
152.00,75.52,1
75.00,79.08,1
59.00,82.16,1
65.00,83.90,1
70.00,84.59,1
84.00,84.70,1
50.00,84.36,1
97.00,83.63,1
55.00,82.79,1
43.00,81.48,1
47.00,79.33,1
50.00,76.63,1
69.00,73.82,1
50.00,71.21,1
115.00,69.23,1
77.00,68.38,1
36.00,68.00,1
43.00,67.05,1
66.00,65.68,1
41.00,64.24,1
56.00,62.71,1
60.00,61.24,1
51.00,59.97,1
36.00,58.66,1
95.00,57.52,1
42.00,56.98,1
36.00,56.46,1
96.00,55.93,1
52.00,55.99,1
56.00,56.31,1
154.00,57.32,1
49.00,59.62,1
83.00,62.16,1
123.00,64.84,1
39.00,67.77,1
125.00,70.46,1
97.00,73.37,1
69.00,76.36,1
58.00,78.53,1
118.00,80.08,1
175.00,82.49,1
108.00,86.36,1
143.00,90.89,1
52.00,95.01,1
84.00,97.73,1
112.00,99.32,1
103.00,100.64,1
174.00,102.38,1
75.00,104.67,1
100.00,106.45,1
58.00,107.04,1
56.00,106.18,1
90.00,104.15,1
70.00,101.68,1
134.00,99.46,1
80.00,97.94,1
89.00,96.72,1
57.00,95.19,1
76.00,93.17,1
74.00,90.90,1
51.00,88.44,1
42.00,85.42,1
92.00,82.19,1
75.00,79.50,1
52.00,77.26,1
47.00,74.86,1
63.00,72.30,1
70.00,69.97,1
59.00,68.04,1
127.00,66.94,1
121.00,67.49,1
70.00,69.32,1
83.00,71.26,1
62.00,72.84,1
63.00,73.86,1
71.00,74.33,1
55.00,74.38,1
65.00,73.99,1
90.00,73.52,1
75.00,73.37,1
103.00,73.68,1
80.00,74.46,1
48.00,75.16,1
148.00,75.88,1
106.00,77.65,1
99.00,80.23,1
40.00,82.37,1
46.00,83.14,1
127.00,83.11,1
125.00,83.85,1
54.00,85.21,1
185.00,86.88,1
79.00,89.44,1
46.00,91.64,1
95.00,92.48,1
68.00,92.57,1
67.00,92.04,1
100.00,91.08,1
134.00,90.65,1
51.00,90.80,1
135.00,90.97,1
48.00,91.15,1
37.00,90.47,1
76.00,88.58,1
121.00,86.78,1
50.00,85.60,1
58.00,84.17,1
51.00,82.09,1
67.00,79.66,1
36.00,77.01,1
83.00,74.28,1
50.00,71.83,1
71.00,69.70,1
47.00,67.74,1
51.00,65.80,1
66.00,63.93,1
87.00,62.63,1
301.00,64.09,1
53.00,69.23,1
96.00,74.99,1
57.00,79.39,1
56.00,82.30,1
71.00,83.78,1
52.00,84.20,1
35.00,83.45,1
65.00,81.68,1
45.00,79.38,1
144.00,77.47,1
73.00,76.83,1
66.00,76.74,1
35.00,76.12,1
50.00,74.65,1
46.00,72.56,1
150.00,70.99,1
38.00,70.63,1
43.00,70.25,1
57.00,69.13,1
69.00,67.86,1
49.00,66.66,1
60.00,65.43,1
64.00,64.25,1
60.00,63.29,1
42.00,62.33,1
74.00,61.33,1
85.00,60.83,1
46.00,60.83,1
55.00,60.73,1
129.00,61.01,1
39.00,62.11,1
78.00,63.25,1
45.00,64.01,1
94.00,64.63,1
91.00,65.65,1
103.00,67.40,1
65.00,69.50,1
71.00,71.31,1
80.00,72.69,1
38.00,73.56,1
67.00,73.63,1
84.00,73.36,1
92.00,73.44,1
163.00,74.64,1
47.00,76.95,1
48.00,78.69,1
47.00,78.97,1
67.00,78.28,1
57.00,77.14,1
38.00,75.53,1
78.00,73.55,1
82.00,71.90,1
110.00,71.17,1
94.00,71.55,1
128.00,73.01,1
95.00,75.39,1
44.00,77.70,1
81.00,79.06,1
187.00,80.73,1
58.00,83.60,1
50.00,85.93,1
91.00,86.91,1
156.00,88.00,1
40.00,89.57,1
74.00,90.36,1
44.00,89.88,1
75.00,88.51,1
41.00,86.48,1
158.00,84.69,1
105.00,84.36,1
43.00,84.72,1
92.00,84.53,1
202.00,85.14,1
142.00,88.05,1
91.00,92.11,1
110.00,95.74,1
71.00,98.49,1
68.00,99.96,1
86.00,100.20,1
51.00,99.45,1
88.00,97.87,1
44.00,95.68,1
176.00,93.76,1
171.00,93.89,1
42.00,95.53,1
134.00,96.83,1
69.00,97.75,1
104.00,98.33,1
159.00,99.12,1
59.00,100.42,1
46.00,100.76,1
186.00,100.46,1
56.00,100.84,1
36.00,100.55,1
47.00,98.44,1
44.00,95.00,1
76.00,90.98,1
164.00,87.90,1
83.00,86.67,1
63.00,86.12,1
49.00,84.99,1
82.00,83.32,1
199.00,82.72,1
143.00,84.70,1
47.00,87.80,1
42.00,89.56,1
78.00,89.66,1
42.00,88.76,1
112.00,87.41,1
53.00,86.12,1
75.00,84.72,1
113.00,83.46,1
55.00,82.69,1
176.00,82.67,1
102.00,84.13,1
74.00,86.22,1
113.00,87.96,1
57.00,89.32,1
79.00,89.93,1
135.00,90.31,1
125.00,91.52,1
55.00,93.07,1
53.00,93.55,1
154.00,93.42,1
37.00,93.53,1
38.00,92.73,1
105.00,90.85,1
41.00,88.80,1
95.00,86.64,1
120.00,85.02,1
94.00,84.53,1
84.00,84.60,1
45.00,84.39,1
103.00,83.73,1
68.00,83.10,1
36.00,82.14,1
87.00,80.57,1
117.00,79.42,1
135.00,79.68,1
40.00,80.77,1
60.00,81.20,1
133.00,81.27,1
58.00,81.80,1
76.00,82.19,1
64.00,82.03,1
86.00,81.59,1
70.00,81.09,1
47.00,80.28,1
109.00,79.27,1
96.00,78.86,1
124.00,79.46,1
46.00,80.52,1
38.00,80.76,1
56.00,79.73,1
56.00,78.01,1
165.00,76.87,1
102.00,77.51,1
120.00,79.50,1
80.00,81.88,1
141.00,84.46,1
43.00,86.97,1
104.00,88.73,1
43.00,89.57,1
38.00,89.13,1
54.00,87.26,1
134.00,85.27,1
42.00,83.94,1
77.00,82.59,1
60.00,80.96,1
73.00,79.27,1
91.00,77.81,1
46.00,76.63,1
61.00,75.21,1
50.00,73.45,1
302.00,73.52,1
140.00,77.74,1
43.00,83.56,1
40.00,87.40,1
185.00,89.98,1
74.00,92.96,1
36.00,95.20,1
119.00,95.94,1
52.00,96.03,1
57.00,95.23,1
249.00,94.90,1
68.00,96.65,1
60.00,98.46,1
96.00,98.90,1
74.00,98.67,1
155.00,98.52,1
140.00,99.51,1
168.00,101.95,1
211.00,106.12,1
122.00,111.67,1
102.00,116.80,1
47.00,119.92,1
214.00,121.69,1
69.00,123.52,1
39.00,124.05,1
89.00,122.25,1
56.00,119.09,1
130.00,115.48,1
61.00,112.04,1
56.00,108.26,1
57.00,103.71,1
75.00,98.85,1
79.00,94.24,1
70.00,90.13,1
130.00,86.91,1
65.00,84.87,1
36.00,82.96,1
111.00,80.82,1
149.00,79.88,1
37.00,80.23,1
166.00,81.06,1
60.00,82.56,1
72.00,83.93,1
40.00,84.21,1
131.00,83.98,1
62.00,84.03,1
127.00,84.45,1
93.00,85.37,1
88.00,86.55,1
133.00,87.92,1
50.00,89.39,1
103.00,90.33,1
59.00,90.66,1
42.00,90.08,1
249.00,89.90,1
61.00,91.76,1
87.00,93.92,1
122.00,95.40,1
76.00,96.74,1
43.00,97.18,1
76.00,96.26,1
231.00,95.91,1
161.00,98.27,1
63.00,101.92,1
160.00,105.01,1
94.00,107.83,1
195.00,110.90,1
43.00,113.93,1
49.00,115.20,1
51.00,113.95,1
69.00,111.02,1
48.00,107.07,1
66.00,102.44,1
72.00,97.61,1
74.00,93.05,1
38.00,88.65,1
82.00,84.28,1
80.00,80.51,1
44.00,77.35,1
35.00,74.06,1
58.00,70.53,1
50.00,67.17,1
47.00,64.10,1
121.00,61.83,1
36.00,60.75,1
67.00,60.08,1
49.00,59.38,1
42.00,58.61,1
66.00,57.72,1
38.00,56.89,1
42.00,55.90,1
106.00,55.18,1
95.00,55.69,1
55.00,57.15,1
79.00,58.72,1
101.00,60.57,1
29.00,62.53,1
108.00,64.16,1
35.00,65.60,1
88.00,66.71,1
60.00,67.60,1
40.00,68.08,1
73.00,67.96,1
49.00,67.56,1
83.00,67.12,1
58.00,66.82,1
83.00,66.72,1
38.00,66.60,1
78.00,66.27,1
41.00,65.77,1
46.00,64.91,1
121.00,64.21,1
49.00,64.36,1
48.00,64.55,1
66.00,64.30,1
51.00,63.90,1
102.00,63.71,1
82.00,64.25,1
63.00,65.26,1
60.00,66.08,1
43.00,66.39,1
56.00,66.10,1
49.00,65.37,1
89.00,64.67,1
50.00,64.29,1
78.00,64.08,1
110.00,64.42,1
80.00,65.68,1
64.00,67.23,1
121.00,68.90,1
147.00,71.64,1
132.00,75.89,1
138.00,81.17,1
105.00,86.73,1
77.00,91.60,1
83.00,95.09,1
101.00,97.44,1
75.00,98.98,1
170.00,100.36,1
326.00,104.21,1
219.00,112.28,1
56.00,121.51,1
171.00,128.65,1
179.00,134.59,1
144.00,140.21,1
118.00,144.68,1
168.00,147.82,1
404.00,152.43,1
40.00,159.30,1
40.00,163.58,1
69.00,162.96,1
327.00,161.26,1
208.00,162.33,1
369.00,167.01,1
178.00,174.37,1
60.00,180.70,1
108.00,182.85,1
293.00,183.13,1
97.00,183.82,1
108.00,183.18,1
292.00,181.62,1
221.00,181.98,1
213.00,184.08,1
397.00,188.24,1
124.00,194.55,1
201.00,199.90,1
224.00,203.54,1
115.00,205.89,1
47.00,205.01,1
100.00,200.10,1
552.00,196.35,1
51.00,197.42,1
81.00,197.77,1
46.00,193.57,1
65.00,185.95,1
305.00,177.97,1
42.00,171.97,1
45.00,165.30,1
266.00,158.05,1
277.00,154.38,1
143.00,154.42,1
68.00,154.57,1
79.00,152.51,1
359.00,150.74,1
277.00,153.29,1
865.00,164.92,1
127.00,186.10,1
119.00,206.27,1
71.00,218.36,1
117.00,223.37,1
122.00,223.31,1
506.00,223.05,1
94.00,225.62,1
300.00,228.34,1
192.00,230.18,1
269.00,231.84,1
108.00,232.36,1
363.00,232.09,1
123.00,232.12,1
193.00,231.08,1
227.00,228.72,1
71.00,225.29,1
160.00,219.59,1
127.00,212.27,1
288.00,205.49,1
97.00,200.16,1
53.00,193.91,1
191.00,185.99,1
465.00,181.28,1
492.00,185.08,1
184.00,195.31,1
136.00,204.86,1
182.00,210.59,1
94.00,212.88,1
55.00,211.09,1
605.00,209.43,1
45.00,212.10,1
351.00,215.76,1
193.00,219.18,1
120.00,221.62,1
108.00,220.61,1
66.00,215.82,1
104.00,207.86,1
45.00,197.54,1
615.00,189.86,1
354.00,191.30,1
45.00,197.40,1
222.00,200.98,1
235.00,203.03,1
57.00,204.07,1
48.00,201.32,1
166.00,195.19,1
324.00,189.89,1
47.00,186.73,1
95.00,182.39,1
72.00,175.59,1
68.00,167.09,1
146.00,158.02,1
196.00,150.51,1
70.00,144.86,1
140.00,139.71,1
50.00,134.48,1
171.00,129.45,1
60.00,125.08,1
49.00,120.43,1
287.00,116.60,1
251.00,117.07,1
183.00,121.61,1
113.00,127.09,1
107.00,131.32,1
153.00,134.15,1
94.00,136.04,1
58.00,136.28,1
65.00,134.20,1
68.00,130.27,1
348.00,127.52,1
133.00,128.72,1
75.00,131.08,1
137.00,132.01,1
63.00,131.74,1
55.00,129.79,1
427.00,128.98,1
109.00,132.51,1
49.00,136.56,1
152.00,138.07,1
100.00,138.39,1
44.00,137.32,1
37.00,133.83,1
77.00,128.35,1
91.00,122.27,1
67.00,116.30,1
119.00,110.76,1
67.00,105.97,1
68.00,101.47,1
84.00,97.07,1
74.00,93.08,1
93.00,89.65,1
68.00,86.80,1
86.00,84.36,1
84.00,82.41,1
195.00,81.91,1
66.00,83.30,1
116.00,85.27,1
69.00,86.98,1
37.00,87.80,1
40.00,87.02,1
131.00,85.58,1
72.00,84.75,1
93.00,84.36,1
101.00,84.25,1
60.00,84.31,1
196.00,85.03,1
82.00,87.19,1
54.00,89.37,1
153.00,90.90,1
102.00,92.88,1
45.00,94.64,1
148.00,95.64,1
92.00,96.83,1
52.00,97.70,1
71.00,97.32,1
51.00,95.83,1
166.00,94.32,1
171.00,94.66,1
80.00,96.65,1
37.00,98.01,1
112.00,97.99,1
103.00,97.74,1
113.00,97.88,1
203.00,99.17,1
206.00,102.86,1
164.00,108.71,1
76.00,114.61,1
420.00,121.38,1
88.00,130.80,1
99.00,139.39,1
94.00,144.41,1
60.00,146.34,1
41.00,145.05,1
100.00,141.25,1
139.00,136.83,1
74.00,132.69,1
63.00,128.03,1
86.00,122.62,1
225.00,118.26,1
266.00,117.70,1
163.00,121.02,1
137.00,125.58,1
41.00,128.83,1
49.00,129.24,1
63.00,126.94,1
70.00,123.00,1
165.00,118.98,1
68.00,115.86,1
87.00,112.87,1
51.00,109.27,1
179.00,105.97,1
47.00,103.73,1
267.00,103.09,1
134.00,105.10,1
39.00,107.91,1
61.00,108.72,1
101.00,107.92,1
42.00,106.25,1
145.00,104.20,1
132.00,103.03,1
35.00,102.40,1
151.00,101.46,1
39.00,100.49,1
318.00,100.97,1
85.00,104.27,1
221.00,109.22,1
69.00,114.30,1
264.00,119.54,1
123.00,125.54,1
83.00,130.85,1
128.00,134.00,1
55.00,135.20,1
217.00,135.39,1
250.00,137.18,1
174.00,141.39,1
176.00,146.31,1
94.00,150.33,1
112.00,152.33,1
55.00,151.88,1
110.00,149.25,1
124.00,145.59,1
313.00,143.55,1
120.00,144.46,1
99.00,145.77,1
127.00,145.62,1
90.00,144.35,1
71.00,141.71,1
75.00,137.53,1
57.00,132.11,1
43.00,125.51,1
117.00,118.48,1
115.00,112.47,1
144.00,108.25,1
185.00,106.33,1
250.00,107.69,1
140.00,112.03,1
76.00,116.63,1
48.00,119.07,1
52.00,118.81,1
44.00,116.29,1
57.00,112.14,1
65.00,107.12,1
221.00,103.14,1
120.00,101.90,1
298.00,103.89,1
60.00,108.43,1
202.00,113.43,1
153.00,118.58,1
52.00,123.21,1
157.00,126.07,1
329.00,129.83,1
166.00,136.54,1
266.00,144.78,1
367.00,155.07,1
164.00,167.44,1
170.00,178.46,1
35.00,185.36,1
203.00,188.12,1
89.00,188.37,1
75.00,186.08,1
233.00,182.08,1
50.00,177.91,1
186.00,173.14,1
101.00,168.12,1
46.00,162.31,1
35.00,154.40,1
52.00,144.66,1
34.00,133.87,1
99.00,123.05,1
106.00,113.55,1
73.00,105.76,1
82.00,99.11,1
92.00,93.49,1
72.00,88.93,1
87.00,85.19,1
50.00,81.98,1
104.00,79.24,1
42.00,77.01,1
159.00,75.64,1
40.00,75.40,1
41.00,75.04,1
74.00,73.90,1
46.00,72.54,1
120.00,71.46,1
180.00,72.14,1
119.00,75.23,1
47.00,78.94,1
35.00,81.20,1
89.00,81.93,1
89.00,82.27,1
60.00,82.51,1
68.00,82.26,1
48.00,81.35,1
101.00,80.17,1
131.00,79.77,1
40.00,80.16,1
54.00,79.99,1
63.00,78.96,1
138.00,78.19,1
75.00,78.45,1
61.00,78.94,1
86.00,79.04,1
41.00,78.75,1
75.00,77.94,1
87.00,77.03,1
129.00,76.93,1
203.00,78.86,1
48.00,82.58,1
49.00,85.56,1
64.00,86.72,1
80.00,86.83,1
68.00,86.46,1
47.00,85.49,1
56.00,83.71,1
47.00,81.29,1
109.00,78.90,1
66.00,77.22,1
166.00,76.76,1
82.00,77.86,1
71.00,79.44,1
52.00,80.29,1
39.00,80.05,1
74.00,78.90,1
39.00,77.28,1
75.00,75.37,1
108.00,73.88,1
56.00,73.18,1
54.00,72.50,1
42.00,71.27,1
45.00,69.50,1
60.00,67.43,1
87.00,65.72,1
147.00,65.41,1
70.00,66.73,1
96.00,68.70,1
203.00,71.77,1
156.00,77.18,1
48.00,83.39,1
63.00,87.96,1
73.00,90.56,1
48.00,91.67,1
261.00,93.05,1
50.00,96.14,1
47.00,98.68,1
60.00,99.03,1
88.00,98.12,1
88.00,96.86,1
48.00,95.28,1
47.00,92.82,1
114.00,90.00,1
41.00,87.50,1
108.00,85.21,1
51.00,83.20,1
48.00,81.06,1
75.00,78.59,1
88.00,76.47,1
40.00,74.74,1
98.00,73.15,1
44.00,71.84,1
40.00,70.34,1
52.00,68.32,1
40.00,66.05,1
54.00,63.67,1
93.00,61.76,1
65.00,60.77,1
135.00,60.97,1
58.00,62.35,1
142.00,64.61,1
104.00,67.88,1
45.00,71.39,1
58.00,73.78,1
83.00,75.16,1
114.00,76.52,1
90.00,78.35,1
142.00,80.76,1
37.00,83.31,1
79.00,84.93,1
107.00,85.85,1
91.00,86.89,1
52.00,87.62,1
70.00,87.46,1
64.00,86.56,1
79.00,85.31,1
58.00,83.84,1
147.00,82.79,1
55.00,82.61,1
42.00,82.22,1
56.00,80.81,1
72.00,78.93,1
60.00,77.03,1
57.00,75.11,1
76.00,73.23,1
38.00,71.42,1
70.00,69.52,1
36.00,67.54,1
90.00,65.72,1
49.00,64.36,1
167.00,64.13,1
70.00,65.61,1
115.00,68.05,1
41.00,70.48,1
75.00,72.24,1
121.00,73.77,1
48.00,75.51,1
73.00,76.73,1
86.00,77.43,1
101.00,78.26,1
93.00,79.47,1
75.00,80.75,1
94.00,81.83,1
108.00,83.02,1
135.00,84.87,1
105.00,87.46,1
38.00,89.70,1
100.00,90.74,1
82.00,91.17,1
116.00,91.63,1
109.00,92.45,1
55.00,93.23,1
48.00,92.94,1
40.00,91.22,1
72.00,88.55,1
80.00,85.77,1
92.00,83.50,1
126.00,82.24,1
81.00,82.08,1
168.00,83.03,1
85.00,85.15,1
88.00,87.47,1
114.00,89.44,1
43.00,90.94,1
146.00,91.94,1
69.00,93.00,1
55.00,93.53,1
50.00,92.73,1
69.00,90.90,1
53.00,88.48,1
196.00,86.79,1
67.00,86.88,1
73.00,87.41,1
37.00,86.98,1
48.00,85.39,1
40.00,82.77,1
98.00,79.91,1
121.00,78.05,1
67.00,77.43,1
56.00,76.97,1
71.00,76.15,1
171.00,76.06,1
48.00,77.29,1
56.00,78.34,1
350.00,80.76,1
45.00,86.60,1
75.00,92.44,1
149.00,96.65,1
284.00,102.12,1
108.00,109.71,1
70.00,116.56,1
96.00,120.75,1
62.00,122.60,1
56.00,122.23,1
73.00,119.93,1
42.00,116.22,1
63.00,111.37,1
67.00,105.92,1
149.00,101.14,1
126.00,98.23,1
196.00,97.72,1
135.00,99.51,1
136.00,102.57,1
206.00,106.57,1
67.00,111.17,1
125.00,114.83,1
54.00,116.88,1
254.00,118.59,1
108.00,121.52,1
48.00,124.02,1
127.00,124.52,1
73.00,123.88,1
140.00,122.70,1
89.00,121.41,1
78.00,119.68,1
46.00,116.81,1
62.00,112.68,1
35.00,107.49,1
95.00,101.87,1
86.00,96.80,1
171.00,93.38,1
78.00,91.88,1
194.00,92.02,1
95.00,93.73,1
76.00,95.74,1
122.00,97.14,1
45.00,98.01,1
55.00,97.62,1
39.00,95.71,1
61.00,92.67,1
47.00,89.01,1
40.00,84.89,1
62.00,80.51,1
52.00,76.31,1
71.00,72.54,1
84.00,69.59,1
49.00,67.42,1
49.00,65.46,1
43.00,63.37,1
72.00,61.39,1
83.00,60.09,1
68.00,59.66,1
161.00,60.49,1
101.00,63.18,1
77.00,66.78,1
63.00,69.93,1
63.00,72.22,1
36.00,73.42,1
79.00,73.66,1
48.00,73.41,1
35.00,72.53,1
66.00,70.97,1
143.00,70.01,1
142.00,71.07,1
233.00,75.00,1
311.00,83.17,1
145.00,94.93,1
125.00,106.75,1
119.00,116.44,1
144.00,124.15,1
99.00,130.07,1
246.00,135.13,1
130.00,140.47,1
57.00,144.53,1
39.00,145.16,1
206.00,143.65,1
97.00,142.28,1
114.00,140.79,1
40.00,138.02,1
55.00,133.40,1
114.00,127.67,1
72.00,122.03,1
200.00,117.49,1
67.00,114.63,1
227.00,113.31,1
36.00,113.18,1
92.00,112.55,1
76.00,110.80,1
38.00,108.13,1
72.00,104.36,1
180.00,101.03,1
66.00,99.28,1
120.00,98.25,1
65.00,97.28,1
68.00,95.96,1
108.00,94.34,1
65.00,92.87,1
55.00,91.10,1
89.00,88.93,1
52.00,86.69,1
67.00,84.27,1
67.00,81.74,1
186.00,80.33,1
99.00,81.03,1
55.00,82.51,1
48.00,83.03,1
36.00,82.21,1
37.00,80.17,1
185.00,78.41,1
180.00,79.34,1
38.00,82.24,1
107.00,84.73,1
159.00,87.22,1
48.00,90.15,1
88.00,92.22,1
103.00,93.45,1
79.00,94.37,1
36.00,94.39,1
90.00,93.27,1
52.00,91.55,1
72.00,89.42,1
64.00,86.99,1
71.00,84.51,1
53.00,81.97,1
115.00,79.74,1
168.00,79.14,1
69.00,80.37,1
99.00,81.99,1
76.00,83.34,1
42.00,84.03,1
145.00,84.30,1
64.00,84.99,1
82.00,85.64,1
60.00,85.68,1
45.00,84.92,1
150.00,84.01,1
44.00,83.76,1
46.00,83.15,1
37.00,81.37,1
250.00,80.39,1
41.00,81.75,1
36.00,83.12,1
35.00,82.63,1
48.00,80.79,1
36.00,78.10,1
38.00,74.77,1
39.00,71.01,1
135.00,67.87,1
176.00,67.27,1
98.00,69.45,1
46.00,72.27,1
74.00,74.21,1
42.00,75.17,1
157.00,76.02,1
111.00,78.00,1
42.00,80.42,1
95.00,81.99,1
154.00,83.67,1
45.00,85.89,1
187.00,88.31,1
58.00,91.17,1
57.00,93.30,1
92.00,94.03,1
147.00,94.68,1
142.00,96.41,1
74.00,98.72,1
80.00,100.27,1
62.00,100.58,1
61.00,99.66,1
57.00,97.65,1
186.00,95.88,1
37.00,95.23,1
38.00,94.05,1
54.00,91.42,1
56.00,88.05,1
63.00,84.47,1
87.00,81.18,1
134.00,79.08,1
72.00,78.40,1
88.00,78.32,1
44.00,78.08,1
36.00,77.06,1
78.00,75.34,1
71.00,73.71,1
39.00,72.18,1
98.00,70.67,1
47.00,69.52,1
118.00,68.90,1
120.00,69.50,1
96.00,71.40,1
77.00,73.70,1
60.00,75.58,1
100.00,76.95,1
37.00,77.91,1
127.00,78.55,1
54.00,79.29,1
171.00,80.59,1
44.00,82.55,1
144.00,84.64,1
78.00,86.82,1
42.00,88.44,1
68.00,88.65,1
90.00,88.09,1
64.00,87.33,1
45.00,86.03,1
51.00,83.89,1
98.00,81.51,1
51.00,79.48,1
418.00,80.41,1
66.00,86.41,1
79.00,93.29,1
50.00,97.71,1
52.00,99.73,1
71.00,99.82,1
125.00,99.23,1
40.00,98.47,1
43.00,96.69,1
53.00,93.61,1
51.00,89.81,1
75.00,85.85,1
37.00,81.97,1
90.00,78.29,1
62.00,75.21,1
36.00,72.45,1
127.00,70.11,1
189.00,70.00,1
41.00,72.14,1
49.00,74.02,1
89.00,74.87,1
34.00,75.20,1
59.00,74.75,1
125.00,74.22,1
69.00,74.49,1
41.00,74.75,1
49.00,74.11,1
54.00,72.78,1
42.00,71.00,1
55.00,68.88,1
68.00,66.82,1
47.00,65.00,1
80.00,63.48,1
58.00,62.41,1
57.00,61.63,1
141.00,61.59,1
76.00,62.96,1
36.00,64.64,1
70.00,65.58,1
39.00,65.90,1
53.00,65.62,1
127.00,65.48,1
119.00,66.75,1
98.00,69.34,1
75.00,72.25,1
39.00,74.43,1
178.00,76.37,1
132.00,79.69,1
89.00,83.99,1
73.00,87.65,1
66.00,90.03,1
38.00,90.85,1
69.00,90.22,1
173.00,89.64,1
40.00,90.01,1
78.00,90.05,1
51.00,89.13,1
69.00,87.54,1
61.00,85.51,1
40.00,83.04,1
73.00,80.19,1
41.00,77.25,1
40.00,74.06,1
63.00,70.72,1
46.00,67.59,1
86.00,64.97,1
44.00,63.00,1
127.00,61.92,1
69.00,62.09,1
127.00,63.42,1
40.00,65.34,1
49.00,66.76,1
59.00,67.25,1
67.00,67.33,1
48.00,67.15,1
206.00,67.85,1
54.00,70.40,1
60.00,73.10,1
51.00,74.59,1
103.00,75.44,1
64.00,76.25,1
90.00,77.00,1
122.00,78.05,1
54.00,79.48,1
59.00,80.32,1
156.00,81.02,1
131.00,83.03,1
132.00,86.36,1
56.00,89.77,1
148.00,92.64,1
163.00,96.01,1
127.00,100.36,1
188.00,105.35,1
160.00,111.15,1
64.00,116.61,1
76.00,119.90,1
170.00,121.63,1
60.00,122.86,1
148.00,123.34,1
44.00,122.93,1
54.00,120.95,1
127.00,117.73,1
132.00,115.03,1
98.00,113.21,1
145.00,112.00,1
44.00,110.95,1
108.00,109.29,1
66.00,107.12,1
59.00,104.38,1
88.00,101.10,1
73.00,97.81,1
45.00,94.37,1
72.00,90.58,1
41.00,86.61,1
156.00,83.29,1
73.00,81.53,1
38.00,80.31,1
62.00,78.47,1
72.00,76.40,1
140.00,75.17,1
102.00,75.51,1
94.00,76.91,1
43.00,78.18,1
56.00,78.51,1
61.00,77.95,1
102.00,77.25,1
115.00,77.31,1
175.00,79.02,1
160.00,82.86,1
84.00,87.84,1
244.00,93.46,1
119.00,100.38,1
164.00,107.66,1
275.00,115.62,1
41.00,124.10,1
69.00,129.95,1
122.00,132.57,1
40.00,133.08,1
85.00,131.41,1
42.00,127.86,1
104.00,123.18,1
100.00,118.44,1
74.00,114.04,1
105.00,109.85,1
50.00,105.79,1
87.00,101.61,1
124.00,97.95,1
112.00,95.63,1
35.00,93.87,1
121.00,91.93,1
63.00,90.23,1
59.00,88.48,1
71.00,86.31,1
45.00,83.84,1
91.00,81.27,1
129.00,79.58,1
92.00,79.30,1
64.00,79.58,1
127.00,80.03,1
63.00,80.89,1
271.00,83.20,1
62.00,87.74,1
116.00,92.51,1
82.00,96.18,1
104.00,98.97,1
45.00,100.57,1
72.00,100.68,1
122.00,100.00,1
58.00,99.28,1
113.00,98.34,1
118.00,97.70,1
46.00,97.25,1
94.00,96.19,1
39.00,94.46,1
55.00,91.88,1
202.00,89.79,1
76.00,89.66,1
41.00,89.87,1
83.00,89.03,1
36.00,87.45,1
118.00,85.62,1
77.00,84.29,1
66.00,83.28,1
154.00,82.77,1
75.00,83.36,1
42.00,83.92,1
159.00,84.20,1
178.00,86.08,1
102.00,89.76,1
140.00,93.90,1
37.00,97.41,1
103.00,99.46,1
152.00,100.99,1
102.00,103.02,1
42.00,104.44,1
58.00,104.08,1
59.00,102.16,1
45.00,99.16,1
45.00,95.20,1
52.00,90.58,1
36.00,85.60,1
80.00,80.66,1
40.00,76.19,1
60.00,72.09,1
59.00,68.40,1
89.00,65.54,1
97.00,63.97,1
102.00,63.86,1
50.00,64.57,1
54.00,65.10,1
42.00,64.98,1
47.00,64.27,1
88.00,63.45,1
51.00,63.01,1
47.00,62.54,1
50.00,61.73,1
81.00,60.96,1
49.00,60.52,1
47.00,60.04,1
84.00,59.58,1
72.00,59.63,1
60.00,60.08,1
57.00,60.50,1
36.00,60.55,1
62.00,60.16,1
78.00,59.84,1
61.00,59.94,1
44.00,60.04,1
41.00,59.70,1
69.00,59.08,1
44.00,58.50,1
39.00,57.74,1
50.00,56.67,1
50.00,55.55,1
99.00,54.92,1
92.00,55.44,1
81.00,57.00,1
46.00,58.80,1
48.00,60.04,1
54.00,60.62,1
37.00,60.65,1
99.00,60.54,1
82.00,61.09,1
130.00,62.72,1
40.00,65.06,1
95.00,67.21,1
60.00,69.02,1
35.00,70.17,1
36.00,70.10,1
53.00,69.05,1
44.00,67.50,1
157.00,66.56,1
45.00,66.97,1
80.00,67.78,1
77.00,68.48,1
152.00,69.94,1
90.00,72.64,1
65.00,75.57,1
42.00,77.45,1
48.00,77.95,1
59.00,77.38,1
36.00,76.05,1
127.00,74.66,1
76.00,74.16,1
72.00,74.23,1
90.00,74.40,1
121.00,75.15,1
55.00,76.44,1
97.00,77.61,1
127.00,79.05,1
157.00,81.74,1
61.00,85.23,1
41.00,87.70,1
134.00,88.96,1
159.00,90.83,1
235.00,94.95,1
226.00,102.07,1
36.00,110.10,1
74.00,115.63,1
100.00,118.33,1
126.00,119.78,1
96.00,120.61,1
161.00,121.22,1
135.00,122.24,1
42.00,122.89,1
40.00,121.42,1
48.00,117.69,1
62.00,112.59,1
77.00,107.03,1
127.00,102.10,1
113.00,98.65,1
219.00,97.52,1
82.00,98.67,1
181.00,100.94,1
128.00,104.06,1
116.00,107.57,1
174.00,111.09,1
292.00,116.35,1
118.00,123.78,1
262.00,131.86,1
251.00,141.04,1
137.00,150.83,1
71.00,158.20,1
108.00,161.75,1
82.00,162.10,1
220.00,161.08,1
137.00,160.43,1
59.00,159.19,1
54.00,155.55,1
304.00,151.53,1
83.00,149.62,1
169.00,148.52,1
384.00,149.43,1
121.00,153.94,1
81.00,158.13,1
287.00,160.79,1
41.00,163.25,1
151.00,164.01,1
336.00,164.78,1
83.00,167.40,1
410.00,171.42,1
50.00,176.69,1
187.00,180.61,1
40.00,181.42,1
237.00,180.19,1
52.00,177.98,1
112.00,174.16,1
268.00,169.97,1
109.00,167.43,1
383.00,167.15,1
201.00,170.35,1
78.00,174.28,1
44.00,174.81,1
74.00,171.37,1
183.00,166.18,1
124.00,161.40,1
50.00,156.41,1
161.00,150.63,1
941.00,152.12,1
233.00,167.07,1
275.00,186.82,1
46.00,202.48,1
266.00,212.92,1
132.00,219.68,1
243.00,223.94,1
1023.00,233.37,1
851.00,258.99,1
1000.00,300.80,1
221.00,348.07,1
403.00,387.74,1
40.00,413.80,1
210.00,425.64,1
127.00,425.40,1
90.00,415.60,1
69.00,397.51,1
382.00,375.71,1
203.00,355.27,1
47.00,334.89,1
413.00,314.18,1
417.00,298.75,1
641.00,292.77,1
328.00,295.30,1
458.00,301.93,1
181.00,308.77,1
466.00,314.39,1
499.00,321.58,1
196.00,330.18,1
50.00,333.53,1
374.00,330.58,1
393.00,327.25,1
314.00,326.08,1
425.00,326.36,1
136.00,326.53,1
352.00,324.51,1
463.00,323.02,1
97.00,322.57,1
145.00,318.15,1
258.00,309.57,1
167.00,299.65,1
294.00,289.52,1
45.00,278.85,1
588.00,269.55,1
403.00,267.08,1
761.00,274.19,1
115.00,287.39,1
127.00,297.14,1
45.00,298.09,1
84.00,291.47,1
541.00,283.03,1
670.00,282.45,1
427.00,291.79,1
42.00,302.20,1
326.00,306.99,1
105.00,307.09,1
530.00,305.83,1
304.00,306.93,1
246.00,309.05,1
613.00,312.09,1
223.00,318.09,1
224.00,322.73,1
48.00,321.49,1
48.00,312.91,1
51.00,297.56,1
110.00,278.23,1
97.00,257.38,1
215.00,237.27,1
292.00,220.91,1
137.00,208.93,1
113.00,198.52,1
153.00,188.32,1
403.00,181.14,1
159.00,178.99,1
156.00,178.69,1
164.00,177.80,1
139.00,176.38,1
112.00,174.05,1
102.00,170.36,1
209.00,166.25,1
75.00,162.54,1
47.00,157.69,1
94.00,150.93,1
43.00,143.09,1
164.00,135.24,1
246.00,129.92,1
58.00,127.50,1
70.00,125.01,1
225.00,122.48,1
45.00,121.17,1
94.00,119.55,1
109.00,117.20,1
244.00,116.13,1
66.00,116.97,1
42.00,117.19,1
265.00,116.91,1
212.00,119.32,1
373.00,125.96,1
190.00,136.39,1
50.00,146.44,1
225.00,153.49,1
208.00,159.62,1
266.00,166.51,1
113.00,173.30,1
204.00,178.48,1
36.00,181.08,1
116.00,180.31,1
60.00,176.47,1
154.00,170.92,1
105.00,164.95,1
285.00,160.33,1
175.00,158.58,1
113.00,158.19,1
61.00,156.47,1
139.00,153.05,1
127.00,149.25,1
71.00,145.26,1
211.00,141.39,1
152.00,139.10,1
39.00,137.34,1
243.00,135.37,1
238.00,135.72,1
54.00,137.90,1
49.00,138.26,1
52.00,135.61,1
192.00,131.95,1
110.00,129.31,1
129.00,127.52,1
69.00,125.54,1
73.00,122.70,1
39.00,118.57,1
215.00,114.53,1
109.00,112.44,1
49.00,111.13,1
187.00,109.71,1
206.00,110.22,1
85.00,112.64,1
112.00,114.80,1
52.00,115.61,1
89.00,114.94,1
183.00,114.04,1
110.00,114.26,1
78.00,114.63,1
41.00,113.64,1
35.00,110.74,1
98.00,106.59,1
151.00,103.07,1
88.00,101.02,1
74.00,99.44,1
351.00,99.83,1
61.00,103.76,1
146.00,108.44,1
51.00,111.74,1
51.00,113.01,1
57.00,111.97,1
42.00,109.16,1
167.00,105.95,1
154.00,104.41,1
53.00,104.17,1
237.00,104.65,1
94.00,106.71,1
245.00,110.30,1
84.00,114.92,1
193.00,119.64,1
150.00,124.39,1
40.00,128.29,1
123.00,129.92,1
62.00,129.74,1
40.00,127.64,1
71.00,123.56,1
95.00,118.66,1
40.00,113.49,1
60.00,107.76,1
100.00,101.99,1
344.00,99.26,1
189.00,101.97,1
249.00,108.71,1
110.00,116.85,1
70.00,123.64,1
127.00,127.81,1
46.00,129.80,1
136.00,129.94,1
92.00,129.14,1
69.00,127.46,1
85.00,124.56,1
79.00,120.87,1
266.00,118.27,1
52.00,117.87,1
137.00,117.87,1
179.00,118.14,1
174.00,120.00,1
41.00,122.14,1
48.00,122.23,1
127.00,120.43,1
98.00,118.38,1
42.00,115.93,1
162.00,113.06,1
86.00,110.89,1
37.00,108.63,1
91.00,105.38,1
47.00,101.62,1
75.00,97.56,1
173.00,94.30,1
370.00,95.27,1
38.00,100.76,1
513.00,109.51,1
48.00,121.78,1
64.00,132.65,1
75.00,138.59,1
92.00,141.03,1
77.00,141.00,1
156.00,139.64,1
42.00,137.54,1
37.00,133.68,1
316.00,129.90,1
180.00,129.73,1
101.00,131.79,1
134.00,133.26,1
75.00,133.64,1
160.00,133.16,1
48.00,132.06,1
132.00,130.05,1
101.00,127.63,1
126.00,125.38,1
58.00,122.92,1
103.00,119.82,1
149.00,116.92,1
92.00,114.93,1
158.00,113.68,1
247.00,114.39,1
85.00,117.25,1
81.00,119.66,1
64.00,120.10,1
77.00,118.81,1
45.00,116.07,1
111.00,112.43,1
79.00,108.80,1
86.00,105.38,1
184.00,102.89,1
167.00,102.73,1
52.00,103.93,1
84.00,104.33,1
160.00,104.32,1
300.00,106.71,1
109.00,112.18,1
46.00,117.29,1
113.00,119.89,1
76.00,120.78,1
94.00,120.40,1
38.00,118.63,1
89.00,115.51,1
88.00,111.82,1
62.00,108.02,1
38.00,103.61,1
89.00,98.71,1
65.00,94.05,1
156.00,90.50,1
164.00,89.33,1
52.00,89.94,1
66.00,90.18,1
110.00,89.81,1
60.00,89.42,1
144.00,89.26,1
82.00,89.75,1
153.00,90.97,1
75.00,92.73,1
63.00,94.02,1
316.00,96.18,1
70.00,101.05,1
110.00,106.09,1
46.00,109.18,1
92.00,110.31,1
47.00,109.81,1
54.00,107.77,1
152.00,105.19,1
58.00,103.18,1
86.00,101.17,1
62.00,98.70,1
48.00,95.69,1
127.00,92.59,1
112.00,90.60,1
54.00,89.44,1
194.00,89.03,1
128.00,90.50,1
59.00,92.84,1
69.00,94.14,1
180.00,95.14,1
48.00,96.70,1
172.00,98.39,1
341.00,102.53,1
322.00,112.05,1
347.00,126.63,1
251.00,144.07,1
142.00,160.75,1
68.00,173.08,1
45.00,179.35,1
71.00,180.08,1
200.00,177.87,1
210.00,175.93,1
58.00,174.25,1
295.00,172.34,1
81.00,171.23,1
47.00,168.88,1
127.00,164.03,1
97.00,158.20,1
77.00,151.82,1
114.00,144.97,1
85.00,138.19,1
101.00,131.65,1
40.00,125.03,1
198.00,119.00,1
195.00,115.72,1
78.00,114.89,1
58.00,113.85,1
56.00,111.34,1
213.00,108.92,1
108.00,108.36,1
183.00,109.41,1
227.00,112.40,1
42.00,116.57,1
90.00,119.20,1
290.00,121.49,1
134.00,125.87,1
245.00,131.68,1
241.00,138.91,1
69.00,146.39,1
218.00,152.16,1
64.00,156.22,1
164.00,158.34,1
169.00,159.34,1
89.00,159.72,1
141.00,158.75,1
47.00,156.22,1
165.00,152.43,1
171.00,149.04,1
298.00,148.20,1
347.00,151.86,1
118.00,158.87,1
164.00,165.12,1
198.00,169.73,1
102.00,173.09,1
128.00,174.30,1
115.00,173.36,1
67.00,170.38,1
82.00,165.20,1
146.00,158.93,1
134.00,153.11,1
115.00,148.00,1
60.00,142.72,1
147.00,137.16,1
115.00,132.27,1
142.00,128.47,1
186.00,126.17,1
141.00,125.67,1
94.00,125.79,1
215.00,126.22,1
225.00,128.57,1
202.00,133.29,1
45.00,138.05,1
169.00,140.92,1
88.00,142.31,1
203.00,143.20,1
104.00,144.08,1
144.00,144.57,1
83.00,144.08,1
172.00,142.93,1
267.00,143.05,1
35.00,144.56,1
57.00,144.19,1
57.00,140.85,1
151.00,136.28,1
122.00,132.28,1
170.00,129.54,1
76.00,127.63,1
90.00,125.36,1
115.00,122.55,1
72.00,119.60,1
47.00,115.92,1
125.00,111.69,1
189.00,108.81,1
50.00,107.60,1
36.00,105.81,1
78.00,102.59,1
38.00,98.64,1
55.00,94.10,1
110.00,89.66,1
343.00,88.46,1
117.00,92.19,1
37.00,97.07,1
49.00,99.54,1
47.00,99.64,1
126.00,98.64,1
60.00,97.58,1
65.00,96.12,1
52.00,93.83,1
39.00,90.69,1
95.00,87.16,1
72.00,84.09,1
86.00,81.66,1
38.00,79.45,1
73.00,77.08,1
80.00,74.91,1
64.00,73.24,1
43.00,71.63,1
46.00,69.64,1
86.00,67.65,1
36.00,66.01,1
89.00,64.62,1
53.00,63.63,1
45.00,62.76,1
52.00,61.63,1
176.00,61.42,1
41.00,62.91,1
40.00,64.43,1
74.00,65.06,1
80.00,65.60,1
75.00,66.39,1
37.00,67.01,1
124.00,67.52,1
99.00,68.85,1
78.00,70.90,1
40.00,72.55,1
64.00,73.24,1
59.00,73.21,1
60.00,72.77,1
88.00,72.24,1
61.00,71.90,1
57.00,71.47,1
40.00,70.55,1
80.00,69.32,1
56.00,68.20,1
61.00,67.19,1
54.00,66.12,1
53.00,64.96,1
80.00,63.90,1
43.00,63.11,1
42.00,62.14,1
41.00,60.73,1
60.00,59.17,1
47.00,57.75,1
58.00,56.51,1
45.00,55.43,1
45.00,54.36,1
45.00,53.24,1
46.00,52.12,1
64.00,51.21,1
42.00,50.61,1
48.00,50.10,1
70.00,49.78,1
112.00,50.39,1
56.00,52.08,1
41.00,53.84,1
59.00,55.03,1
37.00,55.72,1
38.00,55.82,1
48.00,55.38,1
60.00,54.81,1
44.00,54.32,1
64.00,53.90,1
60.00,53.72,1
78.00,53.98,1
84.00,54.87,1
