71,45.88,1
46,46.63,1
53,47.45,1
57,48.23,1
39,48.93,1
41,49.3,1
61,49.46,1
63,49.81,1
80,50.65,1
44,51.81,1
49,52.78,1
115,53.9,1
47,55.66,1
39,57.2,1
121,58.52,1
39,60.24,1
75,61.81,1
99,63.35,1
39,65,1
36,65.87,1
119,66.26,1
44,66.99,1
38,67.36,1
108,67.3,1
37,67.44,1
35,67.1,1
78,66.15,1
67,65.38,1
52,64.81,1
86,64.36,1
42,64.09,1
49,63.58,1
76,62.87,1
48,62.31,1
39,61.57,1
92,60.78,1
38,60.32,1
41,59.7,1
74,58.86,1
39,58.17,1
71,57.56,1
102,57.53,1
38,58.2,1
54,58.7,1
71,58.94,1
57,59.26,1
111,59.99,1
60,61.37,1
36,62.59,1
139,63.68,1
227,66.89,1
39,72.32,1
157,77.89,1
57,82.93,1
39,86.58,1
197,89.24,1
190,93.47,1
365,101.39,1
243,113.67,1
153,127.59,1
96,139.28,1
138,147.57,1
173,153.49,1
140,158.07,1
108,160.97,1
62,161.29,1
178,159.56,1
127,157.47,1
286,156.61,1
181,158.08,1
47,159.71,1
136,159.08,1
343,158.81,1
71,160.72,1
301,163.36,1
140,166.69,1
62,169.03,1
608,172.41,1
53,180.29,1
275,188.5,1
198,195.12,1
237,201.21,1
131,205.81,1
356,209.57,1
84,213.16,1
69,213.73,1
52,209.31,1
108,201.35,1
156,192.13,1
39,182.55,1
332,173.91,1
126,168.46,1
87,164.3,1
88,158.91,1
93,152.51,1
127,145.93,1
156,140.26,1
274,137.2,1
53,136.6,1
44,135.12,1
84,131.37,1
227,127.8,1
233,127.25,1
216,130.15,1
301,136.05,1
133,143.94,1
37,150.16,1
127,152.67,1
169,153.31,1
93,153.35,1
155,152.52,1
131,151.25,1
194,150.34,1
59,149.46,1
96,147.21,1
77,143.34,1
40,138.05,1
123,131.77,1
68,125.55,1
47,119.2,1
69,112.34,1
298,107.41,1
117,106.6,1
67,107.4,1
248,108.58,1
230,112.46,1
347,120.4,1
240,132.03,1
125,144.37,1
317,155.64,1
112,166.26,1
225,175.17,1
855,187.91,1
224,209.13,1
42,229.46,1
323,242.56,1
100,250.96,1
127,254.41,1
259,253.71,1
151,251.35,1
197,247.53,1
100,241.76,1
120,233.69,1
176,224.05,1
117,214.19,1
362,205.99,1
302,202.46,1
274,203.29,1
206,205.94,1
284,209.16,1
80,211.75,1
225,212.24,1
154,211.26,1
60,208.43,1
181,203.15,1
134,197.03,1
277,191.86,1
179,188.75,1
400,188.69,1
314,193.09,1
141,199.75,1
84,203.83,1
245,204.77,1
66,204.01,1
41,200.13,1
112,192.69,1
49,183.26,1
62,172.23,1
81,160.26,1
61,148.22,1
212,137.6,1
254,131.08,1
180,129.25,1
110,129.59,1
105,129.74,1
169,129.6,1
99,129.7,1
62,129.03,1
88,126.81,1
151,124.15,1
136,122.38,1
40,120.81,1
239,119.39,1
184,120.16,1
34,122.06,1
127,122.61,1
130,122.43,1
274,123.73,1
186,127.76,1
42,132.27,1
107,134.41,1
128,134.77,1
50,134.01,1
168,132.27,1
90,130.5,1
78,128.37,1
171,125.96,1
52,123.86,1
171,121.86,1
68,120.12,1
78,118.01,1
103,115.21,1
150,112.86,1
90,111.42,1
36,109.66,1
70,106.6,1
532,106.59,1
135,113.56,1
92,122.48,1
372,130.93,1
42,140.26,1
155,147.76,1
83,152.18,1
117,154.12,1
132,154.21,1
88,153.06,1
106,150.54,1
99,146.95,1
244,143.9,1
191,143.26,1
52,143.63,1
89,142.35,1
87,139.29,1
78,135.17,1
200,131.24,1
79,128.53,1
82,125.85,1
296,124.11,1
57,124.72,1
112,125.37,1
196,125.67,1
143,127.07,1
60,128.42,1
329,130.09,1
491,137.02,1
82,149.27,1
89,159.78,1
116,165.58,1
40,167.52,1
179,166.54,1
137,164.71,1
217,163.42,1
456,165.51,1
220,172.84,1
124,181.14,1
120,186.33,1
134,188.2,1
37,186.9,1
69,182.04,1
177,175.24,1
187,169.32,1
163,165.12,1
187,162.27,1
48,159.57,1
161,155.9,1
49,151.44,1
257,147.3,1
199,145.59,1
104,145.75,1
36,144.71,1
459,144.39,1
37,147.57,1
47,149.91,1
86,148.53,1
48,144.74,1
183,140.08,1
45,135.7,1
186,131.68,1
128,128.77,1
49,126.36,1
288,124.61,1
224,126.17,1
118,130.25,1
91,133.59,1
294,136.63,1
49,140.44,1
44,142.3,1
129,141.18,1
74,138.77,1
175,136.08,1
84,133.73,1
77,131,1
40,126.89,1
189,122.43,1
291,120.88,1
47,122.45,1
104,123.64,1
87,123.28,1
105,122.1,1
105,120.48,1
73,118.48,1
108,116.01,1
93,113.46,1
97,111,1
36,108.13,1
43,104.12,1
220,100.46,1
55,98.81,1
113,97.95,1
106,97.26,1
92,96.97,1
37,96.24,1
42,94.22,1
48,90.98,1
62,87.16,1
157,84.1,1
88,82.83,1
354,84.8,1
84,90.76,1
153,97.89,1
61,103.81,1
68,107.7,1
58,109.19,1
102,109.08,1
41,107.89,1
92,105.71,1
194,104.03,1
70,103.84,1
39,103.35,1
162,102.11,1
43,101.15,1
92,99.89,1
191,99.08,1
280,101.45,1
46,106.46,1
110,110.73,1
94,113.28,1
439,117.56,1
499,129.12,1
182,147.04,1
241,164.92,1
93,179.31,1
244,189.84,1
128,197.42,1
330,203.52,1
292,210.34,1
361,219.14,1
48,227.36,1
152,231.13,1
78,229.92,1
170,225.35,1
229,219.78,1
159,214.79,1
424,211.92,1
144,212.22,1
114,212.27,1
92,209.14,1
65,202.81,1
47,193.53,1
127,182.46,1
219,172.31,1
44,163.94,1
146,155.91,1
118,148.4,1
240,142.94,1
114,139.95,1
40,137.24,1
66,132.81,1
1023,134.92,1
200,151.14,1
189,171.77,1
353,189.46,1
247,206.08,1
41,219.25,1
49,225.14,1
270,225.54,1
133,224.35,1
232,222.37,1
872,225.64,1
44,237.46,1
827,253.34,1
377,274.2,1
159,295.42,1
95,308.36,1
174,312.32,1
153,309.88,1
104,302.65,1
127,291.19,1
97,276.64,1
275,261.35,1
107,247.32,1
129,233.59,1
199,220.07,1
56,207.33,1
202,195.04,1
109,183.96,1
39,173.24,1
257,163.04,1
257,156.59,1
62,153.41,1
436,152.67,1
129,155.81,1
97,159.59,1
410,163.25,1
301,170.7,1
126,180.11,1
36,186.16,1
70,186.84,1
142,183.84,1
94,179.19,1
475,176.4,1
73,177.67,1
240,179.87,1
107,181.05,1
36,180.01,1
88,175.48,1
148,169.22,1
145,163.23,1
99,157.72,1
88,151.89,1
113,145.65,1
74,139.3,1
114,132.97,1
180,127.75,1
240,125.49,1
93,125.82,1
309,127.98,1
265,133.47,1
260,142.32,1
51,151.24,1
128,157.08,1
89,159.59,1
200,160.41,1
148,161,1
149,161.45,1
129,161.2,1
44,159.41,1
83,155.26,1
134,149.8,1
249,145.65,1
243,144.9,1
259,147.75,1
39,151.66,1
506,156.57,1
142,164.98,1
107,173.34,1
106,177.8,1
82,178.64,1
162,176.94,1
164,174.5,1
119,171.92,1
329,170.31,1
321,172.57,1
82,177.27,1
38,179.32,1
115,177.23,1
120,173.01,1
112,167.94,1
71,161.96,1
115,155.11,1
72,147.87,1
47,140,1
905,138.23,1
53,148.29,1
231,161.3,1
55,170.57,1
70,175.39,1
80,175.51,1
366,174.73,1
102,175.9,1
75,176.31,1
247,174.93,1
63,173.33,1
67,170.01,1
64,164,1
72,156.22,1
63,147.41,1
61,137.97,1
45,128.12,1
140,118.8,1
84,111.17,1
186,105.79,1
87,102.7,1
113,100.86,1
135,99.83,1
92,99.68,1
69,99.48,1
104,98.79,1
91,98.05,1
48,97,1
95,95.33,1
86,93.59,1
45,91.75,1
70,89.36,1
41,86.45,1
44,83,1
60,79.19,1
51,75.47,1
39,71.8,1
53,68.14,1
85,65.01,1
121,63.32,1
51,63.08,1
183,64.17,1
89,67.04,1
142,71.17,1
48,75.42,1
72,78.73,1
229,82.12,1
235,88.35,1
50,96.33,1
182,103.49,1
45,109.3,1
52,112.77,1
56,113.37,1
52,111.88,1
132,109.46,1
83,107.29,1
348,107.43,1
118,111.37,1
134,116.64,1
265,122.16,1
83,128.48,1
35,132.89,1
42,133.44,1
80,131.08,1
58,127.11,1
238,123.47,1
127,122.07,1
312,123.62,1
107,127.79,1
128,132.14,1
126,135.12,1
154,137.33,1
228,139.95,1
154,143.61,1
64,146.61,1
72,146.97,1
164,145.44,1
101,143.62,1
59,141,1
359,139.12,1
81,140.19,1
332,143.4,1
40,147.59,1
72,149.88,1
176,149.64,1
246,150.05,1
54,151.38,1
158,151.62,1
168,151.25,1
194,151.64,1
214,153.31,1
199,156.28,1
46,158.82,1
156,159.18,1
110,158.06,1
36,155.39,1
145,150.95,1
62,145.79,1
476,143.2,1
86,145.58,1
267,150.13,1
100,154.57,1
124,157.73,1
66,158.35,1
44,156.03,1
37,150.69,1
443,146.29,1
39,146.09,1
428,148.94,1
132,154.64,1
104,160.45,1
176,163.79,1
295,167.13,1
72,171.06,1
181,173.51,1
88,173.94,1
51,171.9,1
290,168.64,1
139,166.96,1
161,166.19,1
214,165.69,1
233,166.63,1
60,167.95,1
128,167.38,1
103,164.89,1
155,161.58,1
38,157.45,1
44,151.37,1
64,143.28,1
296,136.26,1
38,132.15,1
38,128.04,1
363,124.64,1
44,124.59,1
41,124.51,1
49,121.78,1
83,117.5,1
43,112.51,1
289,108.78,1
246,109.57,1
56,113.44,1
80,116.26,1
91,117.1,1
402,119.37,1
53,124.98,1
119,130.3,1
96,133.21,1
40,133.93,1
92,132.29,1
46,128.91,1
44,123.95,1
262,119.35,1
81,117.27,1
244,117.37,1
223,120.08,1
59,124.36,1
347,129.18,1
72,135.42,1
54,140.19,1
85,141.38,1
81,140.15,1
177,138.08,1
169,136.93,1
140,136.95,1
70,136.72,1
92,135.11,1
68,132.09,1
39,127.64,1
160,122.56,1
88,118.35,1
86,114.72,1
163,111.67,1
145,110.26,1
73,109.88,1
72,108.96,1
115,107.39,1
51,105.58,1
51,102.92,1
257,100.9,1
64,101.21,1
75,101.9,1
118,101.81,1
329,103.67,1
168,109.45,1
68,116.27,1
41,120.46,1
240,122.88,1
44,125.33,1
43,126.12,1
284,125.96,1
73,127.34,1
310,130.28,1
49,134.34,1
42,136.69,1
42,135.39,1
122,131.96,1
96,128.15,1
195,125.22,1
68,123.43,1
80,121.39,1
416,121.17,1
107,125.37,1
135,130.74,1
71,134.18,1
115,135.6,1
153,135.96,1
56,135.68,1
126,134.19,1
108,132.07,1
94,129.69,1
450,129.8,1
123,134.79,1
71,140.48,1
83,143,1
53,142.57,1
152,140.35,1
367,140,1
92,143.22,1
76,146.11,1
44,145.87,1
53,142.61,1
71,137.26,1
90,131.01,1
87,124.72,1
105,118.87,1
45,113.32,1
296,109.42,1
132,109.19,1
132,111.11,1
161,113.49,1
54,115.75,1
131,116.93,1
75,117.2,1
35,116.13,1
122,113.68,1
83,111.05,1
76,108.39,1
153,105.99,1
78,104.47,1
58,102.89,1
88,100.62,1
38,97.81,1
36,94.1,1
277,91.36,1
127,92.17,1
147,95.37,1
64,98.66,1
83,100.86,1
102,101.93,1
51,102.17,1
53,101.11,1
196,99.87,1
43,99.67,1
77,99.2,1
102,98.03,1
44,96.59,1
113,94.81,1
172,93.96,1
51,94.41,1
104,94.75,1
134,95.12,1
65,95.88,1
79,96.11,1
136,96.08,1
46,96.16,1
137,96.06,1
120,96.44,1
60,97.16,1
83,97.16,1
247,97.86,1
49,100.35,1
103,102.62,1
88,103.8,1
175,105.02,1
38,106.4,1
249,108.07,1
52,110.63,1
100,112.66,1
174,114,1
55,115.41,1
113,115.95,1
344,117.71,1
38,122.09,1
107,125.74,1
143,127.62,1
134,129.19,1
82,130.19,1
67,129.67,1
71,127.34,1
191,124.67,1
99,123.09,1
125,122.06,1
59,120.61,1
76,118.17,1
90,114.9,1
104,111.59,1
90,108.6,1
152,106.34,1
106,105.23,1
84,104.61,1
47,103.34,1
36,100.73,1
78,97.04,1
110,93.53,1
34,90.51,1
60,87.19,1
111,83.97,1
181,82.59,1
123,83.71,1
127,86.38,1
56,89.14,1
129,91.33,1
56,93.03,1
62,93.74,1
54,93.11,1
143,92.14,1
62,91.68,1
56,90.98,1
212,90.62,1
54,91.76,1
51,92.66,1
39,91.89,1
63,89.83,1
104,87.52,1
144,86.31,1
80,86.42,1
100,86.99,1
85,87.56,1
126,88.37,1
142,90.02,1
68,92.26,1
151,94.46,1
42,96.41,1
89,97.39,1
51,97.14,1
95,96.1,1
65,94.66,1
80,92.96,1
79,91.1,1
99,89.46,1
192,89.15,1
138,91.08,1
403,96.71,1
36,105.9,1
90,114.06,1
61,118.78,1
155,121.48,1
36,122.86,1
100,122.56,1
107,121.13,1
400,121.93,1
78,126.64,1
90,131.37,1
203,134.44,1
143,137.6,1
149,140.73,1
213,143.86,1
120,147.23,1
322,151.33,1
63,156.27,1
82,159.24,1
126,159.16,1
68,157.17,1
75,153.25,1
49,147.43,1
129,140.63,1
85,134.05,1
593,131.98,1
101,137.38,1
147,144.76,1
34,149.14,1
150,150.56,1
52,149.87,1
56,146.95,1
70,141.83,1
54,135.32,1
44,127.74,1
146,120.14,1
44,113.53,1
95,107.47,1
90,101.99,1
39,97.06,1
61,91.98,1
100,87.24,1
158,84.22,1
264,84.75,1
269,90.24,1
114,99.06,1
113,107.53,1
186,114.76,1
239,122.43,1
36,130,1
127,135.07,1
76,137.49,1
207,138.78,1
107,140.11,1
62,140.48,1
42,138.35,1
76,133.98,1
154,129.12,1
65,124.86,1
291,122.26,1
126,122.65,1
188,124.94,1
327,129.43,1
108,136.44,1
150,142.98,1
174,148.02,1
181,152.57,1
99,156.24,1
85,157.7,1
134,156.91,1
212,155.8,1
82,155.09,1
107,153.41,1
215,151.29,1
139,150.26,1
60,149.08,1
88,146.13,1
447,144.7,1
153,148.24,1
171,153.67,1
132,157.89,1
83,160.16,1
35,159.37,1
72,155.33,1
42,148.96,1
154,141.76,1
96,135.29,1
243,130.77,1
47,128.2,1
75,125.42,1
148,122.02,1
144,119.66,1
109,118.41,1
194,118.14,1
79,118.8,1
102,119.12,1
64,118.28,1
52,116.05,1
153,113.17,1
220,112.02,1
52,112.77,1
127,113.34,1
60,113.05,1
138,112.28,1
135,111.87,1
291,113.64,1
122,118.16,1
46,122.49,1
44,123.88,1
50,122.37,1
91,119.13,1
286,117.02,1
165,118.42,1
43,121.01,1
287,123.43,1
83,126.97,1
73,129.81,1
55,130.01,1
106,128.26,1
242,126.89,1
135,127.66,1
144,129.45,1
199,131.68,1
75,134.12,1
79,135.06,1
104,134.11,1
55,131.79,1
127,128.5,1
112,125.23,1
322,124.16,1
82,126.15,1
44,127.87,1
61,126.88,1
83,123.98,1
238,121.53,1
115,121.24,1
122,121.88,1
287,123.68,1
115,127.68,1
210,132.5,1
47,136.59,1
80,138.36,1
94,137.63,1
45,135.12,1
46,130.66,1
86,124.81,1
51,118.46,1
110,112.18,1
94,106.72,1
42,101.86,1
52,96.69,1
111,91.7,1
245,89.15,1
131,90.34,1
106,93.32,1
42,95.68,1
39,96.19,1
78,95.04,1
53,93.07,1
330,92.75,1
84,96.06,1
45,99.88,1
91,101.67,1
50,101.97,1
116,101.36,1
154,101.14,1
59,101.63,1
39,101.21,1
128,99.75,1
60,98.27,1
57,96.42,1
141,94.43,1
36,92.9,1
106,91.3,1
60,89.6,1
144,88.41,1
90,88.2,1
140,88.95,1
127,90.71,1
156,93.58,1
120,97.29,1
146,101.39,1
253,106.64,1
309,115.02,1
137,125.93,1
68,135.44,1
134,141.56,1
51,144.75,1
73,144.91,1
109,142.76,1
54,139.25,1
48,134.19,1
262,129.31,1
75,126.67,1
78,124.53,1
45,121.05,1
177,117.25,1
49,114.2,1
62,110.88,1
39,106.44,1
108,101.6,1
235,98.61,1
358,100.87,1
69,107.64,1
103,114.18,1
64,118.18,1
366,122.24,1
87,128.58,1
89,134.35,1
126,137.52,1
130,139.29,1
36,139.51,1
92,137.52,1
42,133.6,1
338,130.45,1
219,131.48,1
42,134.71,1
116,136.18,1
109,135.97,1
123,135.09,1
104,133.74,1
97,131.83,1
129,129.55,1
48,126.85,1
122,123.48,1
107,120.13,1
178,117.87,1
66,116.62,1
52,114.81,1
92,111.8,1
48,108.16,1
64,103.9,1
107,99.57,1
84,95.99,1
35,92.65,1
117,89.29,1
218,87.82,1
64,88.93,1
93,90.46,1
44,91.06,1
250,92.07,1
76,94.93,1
49,97.69,1
52,98.4,1
84,97.66,1
127,96.73,1
128,96.69,1
337,99.43,1
77,105.5,1
141,111.85,1
113,116.87,1
117,120.82,1
146,123.91,1
85,126.23,1
121,127.44,1
87,127.56,1
61,126.36,1
44,123.37,1
112,119.17,1
49,114.64,1
68,109.72,1
56,104.34,1
145,99.49,1
133,96.48,1
126,95.44,1
231,96.59,1
198,100.77,1
57,106.28,1
171,110.94,1
139,115.26,1
50,118.85,1
59,120.1,1
341,121.29,1
514,128.66,1
333,144.11,1
99,161.67,1
151,175.28,1
170,184.55,1
110,190.46,1
70,192.42,1
45,189.99,1
82,183.86,1
90,175.61,1
179,167.17,1
189,160.48,1
42,155.05,1
142,149.22,1
48,142.95,1
147,136.64,1
90,130.9,1
96,125.71,1
37,120.25,1
92,114.29,1
42,108.15,1
185,102.89,1
123,99.91,1
275,100.15,1
143,103.77,1
196,109.34,1
98,115.19,1
39,119.37,1
90,120.81,1
90,120.47,1
133,119.56,1
106,118.74,1
315,119.63,1
94,123.22,1
74,126.64,1
52,127.49,1
114,126.34,1
84,124.3,1
234,122.91,1
136,123.46,1
124,125,1
106,126.1,1
145,126.73,1
181,127.79,1
133,129.66,1
44,130.84,1
40,129.59,1
220,127.2,1
257,127.26,1
147,130.4,1
55,133.49,1
40,133.88,1
92,131.59,1
48,127.77,1
91,122.94,1
280,119.42,1
288,120.59,1
226,126.42,1
262,134.95,1
70,143.76,1
130,150.1,1
70,153.26,1
61,153.35,1
115,150.85,1
97,147.18,1
78,142.73,1
155,137.99,1
110,133.95,1
118,130.52,1
39,126.78,1
108,122.25,1
58,117.36,1
160,112.94,1
49,109.38,1
54,105.63,1
104,101.46,1
49,97.5,1
165,94.3,1
48,92.28,1
52,90.28,1
59,87.52,1
61,84.43,1
188,82.35,1
188,83.18,1
111,86.67,1
146,91.06,1
81,95.38,1
91,98.8,1
160,101.63,1
51,104.24,1
34,105.22,1
357,106.43,1
80,110.65,1
79,115.13,1
229,118.58,1
127,122.77,1
34,126.17,1
73,126.81,1
62,125.08,1
154,122.54,1
151,120.87,1
193,120.98,1
101,122.33,1
73,123.19,1
54,122.23,1
159,120.28,1
165,119.25,1
131,119.65,1
120,120.53,1
150,121.51,1
59,122.2,1
47,121.26,1
89,118.55,1
56,114.9,1
75,110.62,1
77,106.04,1
63,101.46,1
95,97.1,1
100,93.49,1
132,91.18,1
37,89.74,1
66,87.92,1
61,85.53,1
235,84.38,1
172,86.5,1
129,91.08,1
226,96.97,1
148,104.25,1
136,111.78,1
52,117.7,1
111,121.21,1
54,122.59,1
209,123.13,1
142,124.55,1
88,126.31,1
54,126.56,1
121,125.16,1
49,122.82,1
91,119.54,1
79,115.66,1
57,111.42,1
36,106.42,1
38,100.49,1
48,93.98,1
82,87.71,1
57,82.27,1
59,77.53,1
62,73.31,1
41,69.54,1
92,66.32,1
295,65.99,1
120,70.2,1
74,76.1,1
137,81.41,1
467,89.52,1
123,102.57,1
58,115.46,1
155,124.69,1
127,131.67,1
193,137.59,1
56,142.25,1
43,143.93,1
59,142.12,1
52,137.81,1
88,132.06,1
106,126.09,1
98,120.67,1
108,115.95,1
42,111.47,1
91,106.72,1
164,102.8,1
172,101.3,1
196,102.66,1
55,105.41,1
58,107.02,1
50,106.49,1
61,104.38,1
60,101.26,1
121,98.03,1
100,95.66,1
72,93.95,1
127,92.6,1
49,91.62,1
58,90.18,1
106,88.35,1
105,87.13,1
88,86.66,1
87,86.48,1
97,86.45,1
36,86.19,1
80,85.2,1
94,84.02,1
46,82.94,1
96,81.71,1
40,80.38,1
35,78.45,1
97,76.1,1
50,74.11,1
110,72.68,1
96,72.22,1
52,72.41,1
41,72.15,1
144,71.87,1
150,73.25,1
190,77.09,1
50,82.25,1
57,86.31,1
38,88.2,1
97,88.63,1
94,88.73,1
66,88.77,1
89,88.47,1
77,87.97,1
90,87.43,1
92,87.02,1
112,87.02,1
42,87.1,1
87,86.62,1
42,85.53,1
56,83.74,1
295,83.35,1
107,86.51,1
231,92.15,1
92,98.85,1
173,105.53,1
410,114.11,1
203,126.75,1
142,140.09,1
40,149.96,1
112,155.27,1
104,157.23,1
247,158.19,1
144,159.83,1
145,161.4,1
100,161.67,1
74,160,1
54,155.95,1
48,149.62,1
157,142.39,1
129,136.25,1
77,131.15,1
213,127.04,1
71,124.45,1
90,122.05,1
108,119.15,1
39,115.86,1
68,111.62,1
386,109.33,1
336,113.76,1
44,122.47,1
266,130.73,1
189,139.01,1
42,146.37,1
410,152.78,1
104,160.57,1
61,166.8,1
260,170.03,1
114,172.62,1
46,173.3,1
126,170.83,1
210,167.52,1
214,165.73,1
209,165.89,1
234,167.69,1
100,169.94,1
78,170.27,1
156,168.3,1
101,165.3,1
116,161.46,1
234,157.9,1
52,155.24,1
70,151.45,1
84,145.86,1
120,139.75,1
263,135.34,1
103,133.71,1
267,134.15,1
193,136.95,1
40,140.27,1
230,142.32,1
160,144.63,1
62,146.67,1
54,146.15,1
126,143.38,1
258,141.2,1
39,140.5,1
88,138.84,1
48,135.13,1
59,129.86,1
82,123.62,1
174,118.08,1
82,114.2,1
154,111.54,1
204,110.73,1
53,111.55,1
216,112.83,1
121,115.08,1
85,117.47,1
240,119.8,1
69,122.85,1
146,125.44,1
232,128.17,1
50,131.45,1
51,132.77,1
80,131.31,1
106,128.46,1
155,125.75,1
97,123.77,1
49,121.47,1
39,117.65,1
49,112.32,1
84,106.39,1
163,101.5,1
168,99.22,1
38,98.64,1
82,97.63,1
81,95.98,1
102,94.41,1
260,94.6,1
155,98.02,1
42,102.44,1
47,104.78,1
98,105.02,1
168,105.12,1
123,106.33,1
100,107.97,1
130,109.4,1
81,110.51,1
122,111.13,1
127,111.66,1
152,112.73,1
150,114.61,1
116,116.94,1
86,118.72,1
271,120.76,1
115,124.44,1
64,127.8,1
99,128.96,1
64,128.27,1
40,125.71,1
253,122.9,1
44,121.57,1
120,120.35,1
87,118.51,1
173,117.05,1
55,116.11,1
242,115.9,1
241,118.37,1
42,122.66,1
257,126.68,1
276,132.44,1
60,139.61,1
135,144.83,1
78,147.39,1
63,147.37,1
127,145.25,1
107,142.34,1
205,139.93,1
111,138.67,1
48,137.06,1
60,133.5,1
107,128.65,1
43,123.32,1
39,117.12,1
97,110.33,1
224,105.3,1
119,103.49,1
208,104.23,1
74,106.39,1
35,107.75,1
102,107.26,1
65,105.85,1
84,103.9,1
322,103.56,1
164,107.25,1
227,113.81,1
103,120.97,1
89,126.73,1
54,129.66,1
77,129.88,1
111,128.4,1
106,126.38,1
103,124.18,1
104,121.84,1
126,119.65,1
77,117.61,1
56,114.95,1
72,111.29,1
165,107.85,1
56,105.46,1
149,103.68,1
90,102.56,1
97,101.85,1
96,101.08,1
87,100.26,1
207,100.26,1
35,101.39,1
90,101.94,1
41,101.1,1
129,99.61,1
311,100.23,1
54,104.05,1
84,107.67,1
99,109.51,1
62,110.14,1
99,109.65,1
51,108.22,1
83,105.9,1
34,102.7,1
101,98.96,1
153,96.07,1
90,94.8,1
191,95.04,1
56,96.45,1
46,97.22,1
127,96.86,1
85,96.57,1
54,96.06,1
189,95.65,1
64,96.27,1
182,97.69,1
50,99.48,1
56,100.35,1
82,99.7,1
87,98.45,1
38,96.67,1
112,94.4,1
161,93.05,1
111,93.45,1
42,94.18,1
55,93.69,1
104,92.34,1
168,91.83,1
34,92.32,1
81,92.27,1
59,91.28,1
151,90.4,1
115,90.67,1
40,91.36,1
38,90.78,1
106,89.17,1
40,87.4,1
86,85.4,1
71,83.4,1
40,81.34,1
37,78.65,1
75,75.55,1
38,72.56,1
93,69.91,1
42,67.78,1
106,66.26,1
40,65.34,1
72,64.62,1
68,64.02,1
52,63.59,1
192,64.17,1
35,66.4,1
71,68.64,1
50,69.96,1
57,70.51,1
90,70.71,1
112,71.41,1
148,73.39,1
74,76.46,1
123,79.73,1
156,83.5,1
117,88.17,1
60,92.51,1
88,95.44,1
148,97.69,1
74,99.95,1
108,101.71,1
168,103.47,1
71,105.63,1
63,106.87,1
90,106.65,1
39,105.29,1
54,102.58,1
128,99.41,1
69,96.85,1
50,94.31,1
158,91.96,1
191,91.73,1
41,93.35,1
53,94.19,1
179,94.41,1
42,95.2,1
172,96.26,1
82,97.74,1
123,99.43,1
70,100.72,1
56,101.01,1
58,99.86,1
172,98.53,1
39,97.92,1
88,97.01,1
68,95.46,1
78,93.62,1
40,91.31,1
105,88.71,1
39,86.19,1
118,83.92,1
90,82.43,1
35,81.32,1
44,79.48,1
87,77.18,1
39,75.01,1
183,73.75,1
91,74.48,1
57,76.05,1
75,77.05,1
74,77.58,1
111,78.18,1
48,78.9,1
106,79.42,1
68,79.9,1
61,80.13,1
100,80.06,1
41,79.85,1
123,79.57,1
74,79.71,1
38,79.74,1
88,79.09,1
72,78.35,1
40,77.45,1
48,75.86,1
116,74.22,1
39,73.16,1
44,71.9,1
58,70.1,1
132,68.83,1
85,68.95,1
55,69.72,1
115,70.56,1
59,71.71,1
92,72.9,1
48,73.8,1
169,75,1
40,76.95,1
72,78.54,1
44,79.04,1
55,78.58,1
64,77.44,1
66,76.08,1
51,74.56,1
68,72.9,1
128,71.82,1
277,73.62,1
202,79.89,1
318,90.25,1
44,102.46,1
177,113.16,1
40,121.18,1
56,125.87,1
84,127.24,1
52,126.33,1
89,123.74,1
44,119.96,1
130,115.65,1
107,111.95,1
65,108.81,1
51,105.21,1
72,100.97,1
73,96.63,1
45,92.31,1
64,87.85,1
82,83.67,1
52,80.04,1
117,77.13,1
122,75.76,1
61,75.7,1
37,75.47,1
65,74.44,1
51,73,1
47,71.26,1
56,69.24,1
64,67.25,1
91,65.79,1
124,65.56,1
63,66.56,1
86,67.89,1
109,69.5,1
38,71.26,1
134,72.87,1
37,74.53,1
146,76.25,1
125,78.78,1
69,81.95,1
116,84.77,1
91,87.36,1
37,89.21,1
131,90.11,1
36,90.59,1
70,90.21,1
100,89.22,1
167,89.13,1
52,90.12,1
75,90.76,1
36,90.2,1
82,88.68,1
66,86.8,1
38,84.58,1
62,81.78,1
104,79.16,1
110,77.68,1
41,77.01,1
95,76.32,1
249,77.24,1
53,80.71,1
59,84.09,1
84,86,1
63,87,1
116,87.59,1
250,89.64,1
107,94.18,1
165,99.73,1
80,104.92,1
89,108.83,1
96,111.13,1
92,112.28,1
186,113.3,1
104,115.02,1
51,116.2,1
121,115.96,1
41,114.7,1
242,113.63,1
99,114.23,1
127,115.6,1
124,116.76,1
161,118.21,1
102,119.94,1
233,122.23,1
188,126.16,1
77,130.66,1
144,133.77,1
108,135.62,1
86,136.22,1
51,134.93,1
108,131.92,1
79,128.11,1
146,124.38,1
108,121.4,1
128,119.17,1
89,117.29,1
128,115.56,1
36,113.57,1
261,112.12,1
166,113.29,1
48,115.74,1
108,116.82,1
75,116.58,1
40,115.02,1
53,111.77,1
127,107.85,1
39,104.17,1
40,99.95,1
46,94.81,1
62,89.38,1
36,84,1
64,78.78,1
236,75.53,1
62,75.49,1
69,76.51,1
44,76.76,1
42,76.06,1
56,74.53,1
41,72.51,1
84,70.41,1
76,68.84,1
81,68,1
35,67.36,1
124,66.93,1
146,67.92,1
37,70.18,1
39,71.71,1
35,71.76,1
91,71.07,1
59,70.48,1
51,69.85,1
84,69.09,1
83,68.72,1
44,68.6,1
95,68.44,1
45,68.37,1
124,68.6,1
75,69.56,1
37,70.55,1
83,70.89,1
81,71.14,1
50,71.43,1
41,71.11,1
50,70.03,1
293,70.47,1
123,74.77,1
47,80.39,1
50,84.22,1
210,87.29,1
65,91.16,1
57,94.37,1
75,95.79,1
68,95.98,1
81,95.37,1
63,94.17,1
81,92.53,1
54,90.54,1
45,87.96,1
68,84.85,1
51,81.61,1
54,78.3,1
118,75.48,1
92,74,1
38,73.23,1
52,72.05,1
73,70.53,1
81,69.36,1
73,68.72,1
44,68.2,1
49,67.28,1
40,65.87,1
77,64.33,1
82,63.31,1
102,63.28,1
58,64.01,1
61,64.75,1
74,65.28,1
89,65.98,1
108,67.3,1
36,68.89,1
89,70.05,1
40,70.72,1
70,70.86,1
183,71.62,1
75,74.06,1
231,78.12,1
46,83.42,1
65,87.89,1
139,90.99,1
45,93.55,1
51,94.72,1
62,94.2,1
76,92.76,1
84,91.06,1
72,89.38,1
37,87.33,1
70,84.67,1
68,81.88,1
100,79.57,1
56,77.87,1
127,76.8,1
40,76.35,1
40,75.53,1
89,74.13,1
212,74.19,1
109,76.95,1
108,80.93,1
58,84.45,1
68,86.73,1
78,87.86,1
100,88.48,1
127,89.39,1
69,90.61,1
80,91.4,1
45,91.24,1
38,89.82,1
95,87.56,1
42,85.19,1
83,82.72,1
86,80.54,1
65,78.87,1
59,77.27,1
54,75.45,1
103,73.81,1
47,72.66,1
66,71.56,1
59,70.32,1
88,69.31,1
43,68.54,1
47,67.52,1
94,66.42,1
46,65.71,1
42,64.89,1
101,64.02,1
45,63.64,1
108,63.72,1
74,64.44,1
35,65.26,1
82,65.6,1
143,66.51,1
55,68.5,1
80,70.51,1
59,71.97,1
54,72.79,1
52,72.81,1
64,72.25,1
80,71.59,1
129,71.64,1
80,72.77,1
36,73.9,1
43,73.94,1
115,73.49,1
42,73.31,1
199,74.05,1
52,76.23,1
42,78.22,1
65,78.81,1
118,79.06,1
38,79.43,1
75,79.3,1
70,78.72,1
162,78.79,1
107,80.38,1
107,82.92,1
40,85.09,1
80,86.13,1
85,86.43,1
66,86.41,1
72,85.94,1
86,85.18,1
164,85.17,1
36,86.06,1
153,87.11,1
55,88.3,1
63,88.99,1
39,88.39,1
58,86.66,1
58,84.23,1
214,82.8,1
37,83.3,1
65,83.84,1
85,83.57,1
75,83.16,1
124,83.07,1
89,83.67,1
127,84.9,1
75,86.48,1
76,87.74,1
138,88.82,1
40,89.93,1
105,90.48,1
53,90.41,1
149,90.34,1
81,90.86,1
77,91.46,1
42,91.2,1
70,89.89,1
53,87.86,1
106,85.75,1
55,83.95,1
48,81.99,1
34,79.31,1
90,76.35,1
48,73.75,1
92,71.63,1
235,71.53,1
167,75.11,1
42,80.38,1
77,84.45,1
87,87.08,1
64,88.81,1
124,90,1
97,91.3,1
59,92.39,1
150,93.18,1
216,95.46,1
95,99.63,1
51,103.28,1
50,104.7,1
36,103.86,1
84,101.49,1
60,98.52,1
64,95.23,1
118,92.11,1
64,89.69,1
64,87.46,1
166,85.83,1
177,86.51,1
100,89.31,1
78,92.24,1
43,93.9,1
66,93.95,1
78,92.99,1
60,91.52,1
93,89.78,1
44,87.89,1
79,85.69,1
52,83.29,1
41,80.56,1
78,77.57,1
74,74.98,1
120,73.4,1
118,73.33,1
64,74.33,1
54,75.11,1
60,75.14,1
85,74.82,1
75,74.63,1
179,75.44,1
346,80.02,1
86,88.76,1
120,97.76,1
36,104.37,1
48,107.93,1
53,108.61,1
62,107.32,1
109,105.16,1
196,103.98,1
48,104.19,1
127,104.36,1
50,103.96,1
47,102.46,1
154,100.4,1
134,99.56,1
52,99.54,1
253,100.3,1
120,103.17,1
72,106.6,1
129,108.94,1
80,110.5,1
60,110.91,1
122,110.21,1
49,108.95,1
69,106.78,1
176,104.6,1
51,103.4,1
87,102.09,1
226,101.44,1
47,102.42,1
46,102.81,1
120,101.84,1
39,100.42,1
48,98.04,1
121,95.11,1
52,92.57,1
35,89.72,1
176,87.05,1
38,85.66,1
119,84.84,1
66,84.24,1
147,84.28,1
200,86.15,1
126,90.32,1
72,94.84,1
77,98,1
60,99.51,1
76,99.61,1
74,98.76,1
155,97.98,1
45,97.7,1
83,96.96,1
38,95.25,1
248,94.18,1
156,95.94,1
72,99.33,1
75,101.71,1
48,102.37,1
38,101.23,1
214,99.8,1
54,99.72,1
106,99.89,1
165,100.29,1
47,101.27,1
44,101.17,1
126,99.91,1
72,98.69,1
70,97.31,1
362,97.79,1
104,102.39,1
71,107.81,1
88,111.13,1
102,112.86,1
262,115.02,1
154,119.3,1
105,124.19,1
70,127.37,1
125,128.64,1
59,128.47,1
68,126.66,1
61,123.22,1
127,119.15,1
62,115.23,1
79,111.17,1
63,106.75,1
53,102,1
43,96.75,1
121,91.72,1
90,87.96,1
88,85.41,1
246,84.88,1
61,86.97,1
61,89.23,1
128,90.57,1
57,91.68,1
51,91.92,1
80,91.03,1
112,90.01,1
48,89.18,1
86,88.02,1
68,86.61,1
51,84.93,1
75,82.88,1
180,81.72,1
105,82.62,1
117,84.77,1
75,87.02,1
50,88.47,1
87,88.81,1
134,89.09,1
51,89.71,1
214,90.94,1
39,93.14,1
58,94.64,1
83,94.6,1
42,93.64,1
52,91.64,1
161,89.62,1
100,89.04,1
41,88.98,1
62,88.01,1
214,87.51,1
44,88.63,1
70,89.62,1
118,89.91,1
74,90.3,1
46,90.19,1
107,89.39,1
78,88.61,1
92,88.03,1
117,87.81,1
101,88.27,1
96,89.13,1
52,89.68,1
127,89.85,1
80,90.19,1
65,90.37,1
199,90.91,1
70,92.72,1
90,94.58,1
233,96.86,1
52,100.4,1
118,103.54,1
77,105.51,1
36,106.06,1
144,105.4,1
153,105.35,1
55,106,1
142,106.33,1
198,107.51,1
44,109.68,1
53,110.51,1
127,109.78,1
64,108.66,1
46,106.71,1
83,103.69,1
161,101.04,1
56,99.51,1
95,98.1,1
70,96.4,1
56,94.33,1
252,93.23,1
127,94.99,1
42,97.71,1
76,98.91,1
183,99.67,1
49,101,1
121,102,1
39,102.12,1
60,100.97,1
57,98.54,1
47,95.27,1
62,91.4,1
71,87.44,1
84,83.91,1
56,80.9,1
56,78.02,1
60,75.14,1
240,73.91,1
82,75.67,1
92,78.6,1
44,80.78,1
66,81.8,1
49,81.74,1
46,80.73,1
55,78.9,1
75,76.81,1
60,74.88,1
57,73.01,1
63,71.14,1
240,70.85,1
77,73.41,1
69,76.76,1
115,79.49,1
72,82.01,1
70,83.93,1
121,85.36,1
106,87.09,1
76,88.9,1
129,90.54,1
175,93,1
190,97.31,1
36,102.26,1
127,105.85,1
203,109.16,1
212,114.21,1
63,119.98,1
84,123.89,1
41,125,1
60,123.55,1
126,120.75,1
60,117.7,1
132,114.62,1
48,111.56,1
133,108.53,1
52,105.67,1
67,102.51,1
47,98.64,1
69,94.35,1
60,90,1
136,86.4,1
248,85.6,1
191,88.98,1
84,94.52,1
98,99.38,1
91,102.86,1
138,105.57,1
95,107.95,1
286,111.25,1
65,116.13,1
69,120.01,1
162,122.01,1
57,123.22,1
184,123.87,1
41,124.12,1
99,123.22,1
72,121.05,1
77,118.05,1
79,114.36,1
101,110.56,1
52,106.77,1
88,102.78,1
133,99.34,1
48,96.76,1
87,94.22,1
127,92.06,1
82,90.86,1
83,90.04,1
42,88.84,1
183,87.88,1
128,88.67,1
37,90.28,1
118,91.15,1
40,91.39,1
54,90.64,1
65,88.84,1
43,86.4,1
34,83.22,1
45,79.33,1
90,75.51,1
117,72.94,1
73,71.87,1
146,72.07,1
98,73.67,1
56,75.74,1
98,77.35,1
69,78.67,1
89,79.76,1
46,80.37,1
53,80.1,1
72,79.1,1
86,78.07,1
100,77.55,1
38,77.27,1
81,76.63,1
82,75.94,1
103,75.78,1
155,76.82,1
58,78.95,1
128,81.27,1
65,83.47,1
86,85.23,1
69,86.28,1
127,87.13,1
96,88.35,1
128,90.06,1
137,92.43,1
39,94.82,1
77,95.92,1
64,95.72,1
108,94.99,1
71,94.2,1
39,92.86,1
151,91.26,1
149,91.07,1
160,92.96,1
62,95.7,1
73,97.57,1
55,97.94,1
64,97.04,1
47,95.05,1
81,92.37,1
98,89.82,1
55,87.66,1
64,85.36,1
75,82.92,1
84,80.79,1
75,79.13,1
139,78.33,1
109,78.95,1
62,80.27,1
74,81.15,1
42,81.22,1
52,80.33,1
88,78.94,1
80,77.81,1
42,76.78,1
74,75.43,1
59,73.97,1
223,73.83,1
112,76.37,1
58,79.94,1
40,82.23,1
95,83.18,1
68,83.62,1
36,83.39,1
84,82.31,1
57,80.93,1
169,80.24,1
145,81.52,1
47,83.99,1
50,85.47,1
86,85.7,1
41,85.2,1
39,83.73,1
55,81.29,1
89,78.71,1
65,76.62,1
78,74.95,1
59,73.51,1
130,72.69,1
88,73.03,1
95,74.19,1
74,75.53,1
90,76.8,1
164,78.68,1
51,81.39,1
84,83.64,1
73,85.01,1
40,85.47,1
71,84.83,1
51,83.47,1
38,81.42,1
141,79.39,1
77,78.51,1
110,78.6,1
86,79.23,1
117,80.4,1
90,82.01,1
124,84,1
50,85.94,1
43,86.77,1
123,86.67,1
39,86.44,1
36,85.36,1
56,83.1,1
72,80.45,1
58,77.91,1
79,75.61,1
123,74.16,1
84,73.98,1
64,74.33,1
36,74.19,1
78,73.4,1
54,72.41,1
90,71.54,1
54,70.9,1
80,70.36,1
44,69.76,1
66,68.94,1
154,68.75,1
69,70.01,1
36,71.36,1
83,71.87,1
59,72.05,1
36,71.76,1
85,70.95,1
45,70.07,1
103,69.38,1
142,69.82,1
52,71.46,1
52,72.81,1
80,73.39,1
66,73.69,1
79,73.89,1
54,73.9,1
84,73.7,1
97,73.75,1
95,74.43,1
88,75.59,1
57,76.68,1
137,77.77,1
56,79.24,1
96,80.58,1
79,81.64,1
43,82.2,1
42,81.61,1
118,80.49,1
144,80.47,1
88,81.88,1
83,83.58,1
42,84.56,1
40,84.21,1
75,82.79,1
66,81.08,1
42,79.16,1
62,76.84,1
77,74.54,1
117,73.08,1
55,72.58,1
219,73.5,1
45,76.2,1
49,78.7,1
94,79.96,1
49,80.63,1
71,80.65,1
47,79.97,1
60,78.67,1
66,77.01,1
127,75.83,1
171,76.5,1
81,79.02,1
117,82.04,1
36,84.53,1
163,86.53,1
42,88.53,1
101,90,1
80,90.82,1
42,90.95,1
173,90.82,1
139,92.06,1
51,94.1,1
170,95.94,1
84,98.09,1
83,99.96,1
63,100.65,1
89,100.32,1
50,99.16,1
38,96.88,1
63,93.5,1
96,89.99,1
48,86.85,1
119,84.17,1
59,82.2,1
75,80.56,1
106,79.26,1
78,78.67,1
36,78.08,1
438,79.89,1
81,86.94,1
61,94.89,1
76,100.09,1
35,102.78,1
34,102.92,1
82,101.16,1
84,98.82,1
130,96.91,1
103,95.95,1
84,95.51,1
43,94.62,1
40,92.54,1
52,89.36,1
72,85.77,1
61,82.33,1
46,78.98,1
40,75.43,1
82,71.95,1
129,69.68,1
49,68.87,1
37,68.16,1
58,66.86,1
35,65.2,1
158,64.15,1
190,65.7,1
73,69.79,1
69,73.94,1
69,76.96,1
129,79.48,1
178,82.94,1
44,87.21,1
32,90.03,1
74,90.71,1
80,90.37,1
99,89.88,1
141,90,1
61,90.77,1
36,90.83,1
134,90.09,1
150,90.31,1
82,91.75,1
118,93.38,1
87,94.88,1
81,95.97,1
87,96.4,1
163,97,1
68,98.22,1
167,99.76,1
64,101.47,1
127,102.91,1
58,103.71,1
88,103.62,1
169,103.46,1
209,105.19,1
70,108.46,1
103,111.1,1
65,112.23,1
98,112.12,1
50,110.91,1
164,109.3,1
190,109.16,1
99,110.77,1
46,111.91,1
98,111.45,1
36,109.73,1
70,106.78,1
58,102.93,1
148,99.35,1
114,97.22,1
46,95.87,1
118,94.34,1
76,93.02,1
46,91.56,1
102,89.65,1
50,87.71,1
111,85.92,1
74,84.59,1
204,84.61,1
82,86.5,1
87,88.85,1
39,90.12,1
36,89.77,1
177,88.92,1
108,89.45,1
43,90.51,1
84,90.63,1
55,89.92,1
121,89.01,1
166,89.2,1
38,90.45,1
167,91.79,1
105,93.71,1
66,95.74,1
78,96.72,1
67,96.65,1
74,95.76,1
53,94.14,1
89,92.01,1
72,89.86,1
35,87.47,1
112,84.86,1
77,82.85,1
37,81.08,1
136,79.44,1
54,78.57,1
61,77.83,1
46,76.54,1
41,74.62,1
67,72.3,1
134,70.71,1
44,70.31,1
81,70.18,1
89,70.19,1
40,70.36,1
228,71.45,1
38,74.34,1
38,76.9,1
131,78.32,1
44,79.66,1
45,80.22,1
157,80.4,1
113,81.8,1
38,83.63,1
73,84.43,1
166,85.14,1
116,87.18,1
67,89.69,1
58,91.18,1
54,91.25,1
61,90.17,1
59,88.31,1
157,86.75,1
115,86.72,1
64,87.55,1
46,87.68,1
178,87.64,1
40,88.36,1
114,89.06,1
149,90.1,1
111,92.23,1
106,94.74,1
145,97.38,1
35,99.73,1
70,100.56,1
96,100.12,1
112,99.56,1
54,98.93,1
98,97.82,1
120,96.8,1
49,96.02,1
73,94.66,1
37,92.42,1
84,89.56,1
63,86.64,1
175,84.74,1
91,84.66,1
46,85.14,1
107,85.08,1
72,84.97,1
82,84.83,1
40,84.2,1
128,83.34,1
40,82.7,1
81,81.88,1
83,80.9,1
117,80.49,1
38,80.45,1
106,80.24,1
98,80.3,1
53,80.63,1
84,80.59,1
55,80.18,1
52,79.25,1
80,77.9,1
43,76.41,1
55,74.57,1
70,72.56,1
91,70.99,1
36,69.83,1
85,68.69,1
75,67.87,1
118,67.92,1
41,68.62,1
48,68.94,1
50,68.44,1
37,67.34,1
65,65.83,1
53,64.33,1
127,63.52,1
120,64.34,1
93,66.65,1
34,69.02,1
58,70.35,1
61,70.77,1
90,70.99,1
60,71.29,1
135,72.02,1
187,74.5,1
45,78.5,1
109,82.14,1
86,85.08,1
88,87.54,1
129,89.75,1
99,92.14,1
72,94.2,1
65,95.2,1
79,95.14,1
96,94.58,1
235,95.22,1
93,97.99,1
145,101.52,1
71,104.6,1
109,106.75,1
81,107.92,1
93,108.25,1
119,108.12,1
95,107.96,1
36,107.12,1
48,104.73,1
127,101.59,1
83,99.03,1
263,98.39,1
162,101.04,1
174,106.01,1
56,110.96,1
99,114.24,1
40,115.37,1
45,114.26,1
120,111.7,1
148,109.65,1
105,108.77,1
140,108.62,1
123,109.12,1
59,109.57,1
136,109.41,1
37,108.71,1
145,107.51,1
51,106.17,1
65,104.21,1
129,101.84,1
208,101.06,1
123,102.64,1
89,104.93,1
85,106.39,1
36,106.43,1
104,105.09,1
48,103.01,1
42,100.04,1
164,96.91,1
178,95.85,1
251,98.24,1
65,102.95,1
132,107.37,1
92,110.66,1
59,112.59,1
60,112.57,1
47,110.71,1
73,107.5,1
110,104.01,1
106,101.22,1
90,99.16,1
79,97.33,1
47,95.16,1
64,92.32,1
126,89.59,1
50,87.58,1
105,85.9,1
71,84.51,1
127,83.77,1
58,83.59,1
143,83.89,1
69,84.75,1
46,85.32,1
78,84.9,1
190,85.01,1
125,87.11,1
93,90.23,1
63,92.7,1
34,93.62,1
96,93.1,1
38,91.81,1
127,90.27,1
156,89.83,1
60,90.64,1
218,92.35,1
192,96.28,1
36,101.36,1
34,104.34,1
86,104.72,1
199,104.9,1
122,106.58,1
181,109.5,1
91,112.86,1
35,114.97,1
43,114.48,1
40,111.64,1
88,107.53,1
62,103.15,1
108,99.06,1
114,95.92,1
90,93.87,1
64,92.17,1
62,90.15,1
41,87.51,1
96,84.6,1
36,81.81,1
38,78.69,1
96,75.43,1
116,73.31,1
80,72.65,1
127,73.07,1
90,74.47,1
64,76.14,1
77,77.33,1
36,77.77,1
128,77.83,1
65,78.25,1
38,78.43,1
50,77.56,1
81,76.14,1
77,74.94,1
82,74.17,1
158,74.43,1
53,75.89,1
47,77.06,1
242,78.61,1
127,82.61,1
106,87.89,1
77,92.43,1
76,95.6,1
83,97.44,1
181,99.11,1
115,101.72,1
82,104.41,1
102,106.15,1
39,106.65,1
163,106.33,1
55,106.05,1
40,104.92,1
72,102.3,1
94,99.22,1
43,96.11,1
87,92.76,1
74,89.56,1
100,86.94,1
72,84.93,1
78,83.25,1
54,81.56,1
121,80.12,1
103,79.68,1
79,80.06,1
182,81.36,1
93,84.08,1
57,86.88,1
88,88.58,1
97,89.67,1
102,90.7,1
67,91.54,1
43,91.45,1
119,90.6,1
58,89.77,1
326,90.8,1
43,94.79,1
141,99.26,1
136,103.19,1
130,107.25,1
98,110.87,1
86,113.37,1
88,114.47,1
74,114.3,1
163,113.68,1
120,113.75,1
77,114.02,1
86,113.41,1
62,111.77,1
89,109.31,1
100,106.63,1
51,103.88,1
56,100.48,1
50,96.34,1
67,91.84,1
117,87.88,1
133,85.55,1
84,84.83,1
36,84.27,1
72,82.94,1
101,81.51,1
49,80.39,1
76,79.16,1
106,78.15,1
70,77.75,1
88,77.64,1
59,77.51,1
72,77.15,1
58,76.48,1
100,75.82,1
132,76.04,1
50,77.13,1
102,78.16,1
38,78.78,1
37,78.42,1
115,77.43,1
63,76.84,1
44,76.21,1
101,75.3,1
130,75.22,1
42,76,1
112,76.77,1
62,77.53,1
52,77.93,1
98,77.83,1
82,77.92,1
67,78.13,1
78,78.13,1
120,78.39,1
66,79.17,1
114,80.17,1
52,81.14,1
39,81.32,1
57,80.31,1
44,78.52,1
106,76.64,1
60,75.3,1
133,74.74,1
52,74.97,1
48,75.03,1
76,74.44,1
119,74.16,1
91,74.84,1
85,76.07,1
62,77.16,1
134,78.28,1
94,80.04,1
171,82.81,1
73,86.39,1
81,89.55,1
60,91.43,1
49,91.89,1
93,91.28,1
50,90.15,1
65,88.45,1
79,86.38,1
65,84.32,1
44,82.07,1
75,79.53,1
47,76.95,1
102,74.7,1
106,73.47,1
36,72.99,1
36,71.99,1
80,70.41,1
36,68.79,1
49,66.95,1
181,65.95,1
103,67.23,1
119,70.17,1
76,73.53,1
43,76.25,1
82,77.81,1
110,79.05,1
60,80.37,1
63,81.13,1
89,81.3,1
103,81.59,1
49,81.96,1
46,81.57,1
105,80.61,1
40,79.66,1
85,78.53,1
59,77.3,1
62,76,1
78,74.66,1
100,73.8,1
127,74.05,1
42,75.06,1
45,75.46,1
36,74.65,1
89,73.26,1
37,71.86,1
36,70.05,1
128,68.33,1
100,67.99,1
100,69.05,1
226,71.94,1
62,76.83,1
136,82.04,1
67,86.6,1
43,89.79,1
109,91.41,1
85,92.48,1
44,92.9,1
148,92.8,1
87,93.19,1
70,93.65,1
86,93.49,1
37,92.58,1
57,90.62,1
86,88.09,1
65,85.68,1
57,83.27,1
81,80.84,1
39,78.45,1
41,75.68,1
46,72.45,1
43,69.06,1
52,65.72,1
40,62.55,1
37,59.47,1
39,56.43,1
118,54.19,1
63,53.48,1
44,53.55,1
58,53.56,1
102,53.96,1
71,55.24,1
121,57.4,1
54,60.18,1
44,62.56,1
65,64.01,1
45,64.81,1
98,65.36,1
78,66.26,1
120,67.84,1
110,70.34,1
99,73.54,1
76,76.71,1
130,79.73,1
97,82.97,1
47,85.75,1
67,87.16,1
74,87.47,1
112,87.51,1
41,87.45,1
121,87.12,1
89,87.06,1
102,87.46,1
67,87.84,1
61,87.68,1
68,86.79,1
66,85.41,1
98,84,1
60,82.81,1
88,81.7,1
61,80.61,1
85,79.55,1
46,78.41,1
66,76.95,1
84,75.47,1
122,74.79,1
72,75.11,1
73,75.67,1
40,75.73,1
35,74.82,1
46,72.95,1
50,70.58,1
60,68.14,1
51,65.87,1
49,63.7,1
64,61.71,1
42,59.97,1
35,58.17,1
36,56.11,1
38,53.88,1
99,52.16,1
40,51.4,1
127,51.65,1
139,53.71,1
34,57.12,1
72,60.13,1
55,62.36,1
79,64.14,1
141,66.3,1
68,69.29,1
98,72.38,1
68,75.07,1
37,76.88,1
108,77.78,1
83,78.67,1
55,79.47,1
79,79.7,1
36,79.29,1
63,78.12,1
55,76.44,1
50,74.49,1
153,73.08,1
144,73.72,1
81,76.07,1
99,78.7,1
62,80.92,1
74,82.38,1
92,83.26,1
42,83.65,1
155,83.92,1
94,85.03,1
57,86.38,1
43,86.62,1
150,86.36,1
68,86.71,1
56,86.94,1
72,86.32,1
107,85.53,1
48,84.86,1
57,83.7,1
43,81.74,1
93,79.51,1
83,77.75,1
51,76.42,1
36,74.69,1
163,73.28,1
97,73.57,1
45,74.69,1
62,75.12,1
83,75.05,1
41,74.74,1
39,73.71,1
135,72.58,1
68,72.45,1
72,72.78,1
89,73.11,1
75,73.64,1
69,74.15,1
35,74.13,1
40,73.16,1
143,72.13,1
101,72.49,1
59,73.71,1
64,74.54,1
126,75.3,1
38,76.31,1
63,76.75,1
78,76.56,1
88,76.42,1
56,76.34,1
64,75.95,1
41,75,1
45,73.38,1
92,71.56,1
62,70.22,1
110,69.58,1
97,69.92,1
93,71.16,1
89,72.82,1
47,74.3,1
35,74.78,1
84,74.32,1
140,74.36,1
40,75.27,1
85,75.99,1
39,76.09,1
53,75.43,1
119,74.61,1
36,74.23,1
56,73.52,1
91,72.53,1
52,71.77,1
52,70.87,1
69,69.7,1
35,68.37,1
88,66.97,1
85,66.14,1
51,65.88,1
104,65.91,1
147,67.1,1
41,69.42,1
127,71.84,1
78,74.38,1
35,76.48,1
41,77.09,1
79,76.64,1
46,75.78,1
120,75.02,1
82,75.01,1
145,76.08,1
82,78.12,1
76,80.28,1
65,81.74,1
63,82.37,1
120,82.69,1
43,83.07,1
35,82.6,1
150,81.68,1
85,81.75,1
77,82.39,1
89,82.85,1
115,83.53,1
35,84.2,1
71,84.05,1
89,83.36,1
59,82.62,1
68,81.6,1
112,80.66,1
45,80.07,1
76,79.27,1
80,78.33,1
72,77.58,1
151,77.54,1
79,78.68,1
48,79.89,1
147,80.84,1
39,82.04,1
107,82.98,1
96,83.84,1
43,84.54,1
41,84.13,1
116,83.03,1
42,82.06,1
54,80.7,1
82,78.93,1
119,77.75,1
80,77.59,1
59,77.7,1
114,77.79,1
47,78.04,1
113,78.31,1
62,78.69,1
41,78.68,1
134,78.37,1
47,78.49,1
116,78.82,1
40,79.11,1
123,79.35,1
180,80.76,1
60,83.66,1
94,86.35,1
36,87.87,1
164,88.86,1
49,90.08,1
47,90.58,1
41,89.48,1
89,87.49,1
46,85.28,1
63,82.8,1
74,80.22,1
76,77.97,1
66,76.1,1
88,74.61,1
39,73.33,1
38,71.62,1
117,69.88,1
70,69.07,1
46,68.67,1
38,67.76,1
100,66.66,1
134,66.69,1
118,68.52,1
72,71.28,1
90,73.94,1
124,76.63,1
60,79.42,1
60,81.43,1
116,82.71,1
102,84.21,1
43,85.56,1
54,85.77,1
85,85.05,1
54,83.98,1
75,82.61,1
87,81.24,1
130,80.65,1
127,81.45,1
82,83.21,1
76,84.84,1
108,86.1,1
64,87.15,1
38,87.33,1
72,86.34,1
92,85,1
60,83.78,1
57,82.31,1
72,80.5,1
41,78.47,1
52,76.02,1
71,73.44,1
39,70.97,1
53,68.42,1
87,66.14,1
90,64.83,1
46,64.29,1
84,63.94,1
66,63.88,1
155,64.8,1
69,67.02,1
41,69.25,1
123,70.93,1
127,73.28,1
61,76.26,1
135,79.18,1
183,83.01,1
37,87.63,1
36,90.65,1
79,91.51,1
72,91.34,1
57,90.5,1
99,89.22,1
45,87.79,1
66,85.9,1
92,83.85,1
45,81.96,1
39,79.63,1
86,76.96,1
44,74.49,1
50,72.01,1
91,69.68,1
38,67.84,1
61,66.09,1
68,64.45,1
97,63.51,1
70,63.44,1
92,64,1
54,64.86,1
36,65.31,1
51,64.96,1
44,64.06,1
97,63.2,1
57,62.9,1
71,62.92,1
94,63.27,1
91,64.35,1
76,65.95,1
44,67.35,1
77,68.18,1
35,68.49,1
46,68.05,1
85,67.23,1
57,66.64,1
90,66.38,1
58,66.42,1
36,66.25,1
49,65.42,1
68,64.29,1
45,63.21,1
39,61.93,1
125,60.96,1
61,61.1,1
193,62.84,1
52,66.21,1
45,69.4,1
53,71.16,1
87,72.1,1
108,73.2,1
90,74.87,1
78,76.68,1
76,78.18,1
84,79.33,1
61,80.11,1
91,80.5,1
117,81.12,1
139,82.74,1
81,85.17,1
113,87.63,1
165,90.5,1
37,93.65,1
72,95.52,1
37,95.59,1
43,94.05,1
58,91.27,1
88,88.19,1
123,85.87,1
98,84.84,1
73,84.49,1
78,84.1,1
111,83.82,1
75,83.94,1
125,84.44,1
107,85.61,1
45,86.85,1
168,87.93,1
65,89.54,1
108,91.16,1
99,92.51,1
220,94.83,1
83,98.62,1
61,101.94,1
70,103.37,1
68,103.24,1
55,101.88,1
34,99.23,1
150,96.19,1
67,94.01,1
70,92.17,1
42,89.8,1
72,86.87,1
62,83.82,1
49,80.76,1
40,77.41,1
37,73.67,1
82,70.02,1
68,67.15,1
40,64.89,1
153,63.51,1
70,63.79,1
61,64.83,1
79,65.72,1
36,66.33,1
115,66.8,1
90,67.89,1
122,69.92,1
106,72.77,1
93,76.08,1
77,79.12,1
65,81.4,1
190,83.72,1
41,86.75,1
87,89.14,1
111,90.71,1
41,91.8,1
95,91.97,1
133,92.06,1
62,92.59,1
100,92.88,1
71,92.78,1
62,92.16,1
67,90.79,1
66,88.92,1
47,86.59,1
49,83.67,1
70,80.47,1
46,77.32,1
124,74.73,1
70,73.3,1
37,72.28,1
98,71.11,1
93,70.56,1
98,70.97,1
39,71.64,1
75,71.86,1
52,71.63,1
61,71.08,1
77,70.38,1
130,70.38,1
75,71.46,1
139,73.38,1
70,75.91,1
42,77.97,1
72,78.83,1
42,78.77,1
63,77.92,1
93,76.85,1
78,76.2,1
45,75.62,1
69,74.64,1
40,73.27,1
50,71.45,1
84,69.56,1
118,68.59,1
78,68.87,1
160,70.39,1
37,72.83,1
86,74.92,1
86,76.47,1
55,77.71,1
41,78.04,1
39,77.17,1
79,75.61,1
76,74.17,1
82,73.21,1
48,72.45,1
36,71.24,1
38,69.26,1
70,66.98,1
46,64.88,1
63,63,1
75,61.53,1
38,60.46,1
45,59.26,1
42,57.79,1
141,57,1
44,57.55,1
55,58.41,1
77,59.04,1
42,59.64,1
81,60.13,1
43,60.55,1
80,60.91,1
53,61.29,1
41,61.43,1
62,61.13,1
70,60.82,1
79,60.9,1
72,61.43,1
138,62.78,1
139,65.76,1
52,69.72,1
56,72.9,1
40,74.59,1
60,75.04,1
51,74.64,1
42,73.55,1
35,71.7,1
58,69.33,1
37,66.79,1
43,64.1,1
62,61.47,1
50,59.23,1
154,58.18,1
103,59.25,1
34,61.36,1
46,62.72,1
74,63.34,1
36,63.62,1
149,64.16,1
111,66.14,1
80,69.17,1
34,71.72,1
71,73.09,1
69,73.74,1
61,74.04,1
64,73.92,1
114,73.89,1
54,74.29,1
90,74.72,1
111,75.42,1
185,77.59,1
61,81.16,1
41,84.06,1
83,85.36,1
63,85.75,1
65,85.47,1
61,84.54,1
55,83.03,1
67,81.1,1
36,78.82,1
82,76.3,1
52,73.95,1
167,72.63,1
38,72.72,1
112,73.32,1
75,74.14,1
71,75.07,1
54,75.52,1
48,75.25,1
47,74.18,1
84,72.79,1
40,71.44,1
35,69.69,1
76,67.59,1
70,65.89,1
35,64.49,1
72,63.04,1
52,61.77,1
62,60.73,1
45,59.76,1
45,58.67,1
63,57.55,1
39,56.52,1
71,55.63,1
38,54.92,1
118,54.75,1
60,55.59,1
105,57.22,1
81,59.47,1
65,61.95,1
72,64.13,1
114,66.34,1
71,68.89,1
89,71.4,1
73,73.61,1
71,75.38,1
52,76.44,1
45,76.54,1
42,75.61,1
73,74.07,1
126,73.04,1
40,72.85,1
44,72.37,1
42,71.01,1
109,69.58,1
35,68.64,1
52,67.56,1
42,66,1
114,64.7,1
72,64.39,1
42,64.52,1
44,64.12,1
50,63.2,1
40,61.92,1
72,60.56,1
72,59.65,1
93,59.54,1
82,60.3,1
54,61.45,1
50,62.27,1
97,62.91,1
86,64.04,1
35,65.29,1
83,66.06,1
84,66.81,1
34,67.53,1
39,67.42,1
48,66.44,1
47,65.01,1
103,63.79,1
116,63.8,1
71,65.05,1
44,66.35,1
55,66.92,1
49,66.8,1
103,66.62,1
87,67.11,1
84,68.25,1
73,69.57,1
104,71.03,1
34,72.4,1
46,72.84,1
61,72.31,1
93,71.68,1
60,71.37,1
71,71.12,1
42,70.59,1
76,69.78,1
58,68.93,1
104,68.45,1
54,68.46,1
77,68.6,1
58,68.64,1
40,68.32,1
52,67.39,1
45,66.02,1
81,64.64,1
51,63.58,1
42,62.54,1
80,61.46,1
84,60.96,1
74,61.23,1
56,61.79,1
71,62.29,1
103,63.11,1
50,64.34,1
90,65.57,1
38,66.56,1
76,67.11,1
75,67.49,1
35,67.72,1
39,67.17,1
67,66.01,1
97,65.19,1
63,65.08,1
78,65.33,1
38,65.48,1
56,65.17,1
57,64.49,1
77,63.88,1
69,63.62,1
102,63.94,1
71,64.91,1
59,66,1
68,66.78,1
59,67.26,1
96,67.73,1
84,68.62,1
75,69.83,1
132,71.47,1
282,75.46,1
52,82.18,1
39,88.09,1
94,91.52,1
60,93.48,1
60,94.14,1
36,93.32,1
77,91.34,1
39,88.71,1
57,85.53,1
47,81.94,1
114,78.69,1
67,76.45,1
70,74.86,1
41,73.22,1
88,71.53,1
76,70.3,1
124,70.05,1
77,70.88,1
118,72.43,1
39,74.13,1
76,75.22,1
60,75.63,1
73,75.66,1
64,75.41,1
48,74.78,1
103,74,1
103,73.92,1
41,74.31,1
100,74.5,1
60,74.67,1
78,74.8,1
103,75.05,1
42,75.46,1
62,75.33,1
179,75.6,1
67,77.33,1
35,78.97,1
77,79.36,1
42,78.94,1
38,77.66,1
87,75.82,1
72,74.26,1
40,72.85,1
118,71.61,1
72,71.19,1
45,71.05,1
70,70.51,1
49,69.7,1
87,68.89,1
49,68.25,1
36,67.33,1
89,66.14,1
59,65.3,1
88,64.94,1
106,65.33,1
99,66.77,1
36,68.47,1
37,69.22,1
50,68.81,1
86,68.06,1
140,68.24,1
185,70.7,1
99,75.25,1
78,80.02,1
48,83.51,1
36,85.12,1
48,84.92,1
53,83.5,1
63,81.45,1
43,79.04,1
195,77.44,1
68,77.79,1
48,78.62,1
93,78.79,1
37,78.55,1
59,77.63,1
88,76.38,1
74,75.46,1
135,75.33,1
79,76.24,1
78,77.48,1
58,78.28,1
61,78.41,1
66,77.94,1
98,77.41,1
75,77.24,1
115,77.56,1
88,78.48,1
48,79.4,1
47,79.37,1
94,78.68,1
47,77.88,1
38,76.57,1
123,75.08,1
120,74.8,1
176,76.57,1
65,79.81,1
175,83.62,1
82,87.86,1
41,91.32,1
99,93.08,1
56,93.79,1
83,93.65,1
75,92.91,1
51,91.62,1
200,90.73,1
58,91.26,1
69,91.83,1
57,91.31,1
49,89.82,1
76,87.61,1
213,86.46,1
177,88.33,1
60,92.02,1
95,95.03,1
150,97.48,1
82,100.06,1
142,102.48,1
91,104.71,1
46,106.01,1
66,105.55,1
48,103.58,1
112,100.93,1
129,98.9,1
143,98.32,1
58,98.54,1
46,97.97,1
78,96.17,1
99,94.11,1
86,92.43,1
56,90.8,1
55,88.63,1
93,86.2,1
118,84.46,1
34,83.35,1
61,81.8,1
42,79.55,1
44,76.78,1
44,73.58,1
75,70.42,1
42,67.64,1
50,65.02,1
111,62.98,1
71,62.17,1
62,62.1,1
99,62.43,1
105,63.63,1
166,66.36,1
193,71.43,1
106,78.34,1
34,84.64,1
88,88.8,1
77,91.4,1
55,92.79,1
148,93.55,1
74,94.54,1
48,95.01,1
124,94.66,1
42,94.06,1
88,92.95,1
110,91.73,1
66,90.87,1
75,89.83,1
50,88.26,1
69,86.16,1
90,84.02,1
39,81.99,1
88,79.85,1
98,78.17,1
70,77.24,1
44,76.3,1
107,75.26,1
90,74.86,1
43,74.81,1
61,74.26,1
104,73.6,1
56,73.36,1
40,72.87,1
45,71.58,1
156,70.6,1
86,71.19,1
38,72.31,1
82,72.79,1
37,72.72,1
121,72.56,1
128,73.39,1
53,75.17,1
48,76.37,1
48,76.38,1
67,75.59,1
39,74.32,1
87,72.82,1
44,71.39,1
102,70.24,1
37,69.39,1
38,68.23,1
80,66.68,1
72,65.53,1
48,64.74,1
130,64.46,1
39,64.98,1
158,66.26,1
112,68.9,1
46,72.17,1
107,74.85,1
85,77.26,1
35,79.11,1
111,80.1,1
90,81.08,1
98,82.36,1
102,83.82,1
132,85.74,1
40,87.72,1
41,88.4,1
81,87.69,1
62,86.44,1
81,85,1
108,83.83,1
38,82.94,1
87,81.77,1
70,80.5,1
55,79.21,1
46,77.48,1
81,75.49,1
50,73.62,1
62,71.77,1
36,69.73,1
181,68.47,1
96,69.35,1
40,71.14,1
86,72.32,1
67,73.13,1
52,73.57,1
36,73.19,1
34,71.78,1
92,69.95,1
44,68.41,1
55,66.93,1
82,65.53,1
64,64.65,1
45,63.95,1
102,63.41,1
54,63.42,1
54,63.51,1
142,63.99,1
69,65.61,1
47,67.37,1
121,68.83,1
42,70.41,1
35,71.26,1
67,71.04,1
227,71.8,1
95,75.1,1
100,79.39,1
56,82.94,1
59,85.11,1
63,85.92,1
51,85.65,1
44,84.35,1
100,82.55,1
82,81.14,1
116,80.54,1
91,80.77,1
41,81.08,1
92,80.82,1
82,80.49,1
68,80.25,1
115,80.17,1
76,80.55,1
61,80.89,1
113,81.05,1
81,81.53,1
75,82.09,1
223,83.56,1
41,86.54,1
52,88.91,1
44,89.32,1
43,88.2,1
75,86.13,1
77,83.93,1
56,81.85,1
35,79.41,1
96,76.77,1
47,74.49,1
35,72.15,1
96,69.75,1
35,67.78,1
61,65.93,1
96,64.43,1
82,63.94,1
58,64.08,1
116,64.66,1
46,65.75,1
135,67.24,1
90,69.52,1
35,71.84,1
83,73.23,1
50,73.94,1
70,74.13,1
153,74.67,1
67,76.26,1
67,77.87,1
72,78.79,1
60,79.11,1
35,78.62,1
43,77.07,1
50,74.75,1
51,72.13,1
114,69.95,1
68,68.84,1
73,68.4,1
50,67.99,1
50,67.27,1
38,66.05,1
107,64.86,1
37,64.2,1
36,63.37,1
78,62.19,1
55,61.27,1
55,60.56,1
88,60.11,1
59,60.18,1
49,60.35,1
69,60.35,1
155,61.18,1
36,63.21,1
102,65.38,1
105,67.72,1
135,70.96,1
81,74.83,1
42,78.11,1
39,79.7,1
84,79.97,1
36,79.54,1
51,78.3,1
75,76.53,1
70,74.89,1
38,73.26,1
98,71.62,1
56,70.4,1
37,69.19,1
106,67.93,1
65,67.32,1
87,67.3,1
94,67.82,1
51,68.66,1
52,69.09,1
90,69.15,1
87,69.55,1
55,70.19,1
86,70.7,1
46,71,1
75,70.97,1
91,70.98,1
53,71.2,1
48,71.04,1
106,70.67,1
71,70.8,1
79,71.26,1
43,71.51,1
47,71.08,1
39,69.86,1
69,68.23,1
137,67.33,1
52,67.7,1
51,68.16,1
76,68.15,1
74,68.19,1
44,68.17,1
59,67.73,1
52,66.92,1
77,66.08,1
39,65.28,1
36,64.09,1
90,62.73,1
78,62.06,1
73,62.13,1
72,62.58,1
102,63.49,1
84,65.06,1
53,66.77,1
47,67.82,1
104,68.45,1
77,69.41,1
127,71.03,1
83,73.34,1
32,75.35,1
62,76.11,1
64,75.99,1
51,75.38,1
35,74.08,1
59,72.13,1
32,69.79,1
64,67.24,1
55,64.86,1
37,62.65,1
66,60.51,1
40,58.61,1
49,56.84,1
74,55.37,1
87,54.77,1
46,54.93,1
88,55.45,1
43,56.2,1
82,57.02,1
92,58.24,1
44,59.81,1
113,61.44,1
54,63.34,1
39,64.83,1
52,65.36,1
60,65.27,1
124,65.49,1
60,66.53,1
87,67.86,1
62,69.06,1
69,70.01,1
126,71.11,1
65,72.78,1
75,74.38,1
89,75.65,1
70,76.79,1
94,77.78,1
105,78.96,1
50,80.18,1
130,81.22,1
202,83.57,1
42,87.33,1
39,90,1
76,90.66,1
162,91.09,1
100,92.53,1
82,94.25,1
48,95.01,1
76,94.55,1
110,93.65,1
47,92.69,1
40,90.91,1
97,88.41,1
78,86.16,1
118,84.68,1
106,84.22,1
69,84.38,1
77,84.37,1
74,84.02,1
69,83.41,1
51,82.36,1
86,80.97,1
51,79.5,1
55,77.76,1
37,75.5,1
97,73.16,1
61,71.37,1
72,70.05,1
48,68.83,1
54,67.46,1
44,65.84,1
52,64.04,1
66,62.32,1
37,60.79,1
92,59.53,1
52,58.86,1
36,58.32,1
94,57.78,1
61,57.82,1
40,58.05,1
87,58.2,1
49,58.55,1
81,59.09,1
35,59.57,1
44,59.58,1
35,58.93,1
84,58.12,1
71,57.85,1
38,57.92,1
115,58.22,1
113,59.67,1
74,62.24,1
77,64.92,1
105,67.57,1
71,70.31,1
32,72.37,1
76,73.29,1
44,73.45,1
69,73.07,1
84,72.57,1
80,72.4,1
77,72.53,1
101,73.01,1
48,73.66,1
38,73.66,1
116,73.21,1
85,73.38,1
69,74.02,1
88,74.63,1
40,74.98,1
59,74.64,1
70,73.8,1
49,72.77,1
39,71.29,1
54,69.31,1
39,67.06,1
48,64.61,1
65,62.27,1
48,60.3,1
81,58.82,1
60,57.97,1
64,57.6,1
51,57.39,1
64,57.24,1
53,57.14,1
64,57.12,1
52,57.14,1
42,57,1
75,56.75,1
101,57.11,1
46,58.17,1
58,59.12,1
112,60.16,1
45,61.66,1
50,62.85,1
68,63.43,1
43,63.67,1
38,63.33,1
100,62.78,1
87,62.98,1
59,63.79,1
46,64.38,1
54,64.39,1
44,63.91,1
63,63.13,1
44,62.22,1
127,61.76,1
35,62.13,1
42,62.33,1
40,61.73,1
80,60.91,1
48,60.32,1
61,59.83,1
70,59.47,1
77,59.53,1
58,59.93,1
38,60.16,1
65,60,1
42,59.62,1
121,59.6,1
82,60.63,1
38,62.08,1
42,62.78,1
184,63.76,1
62,66.28,1
43,68.91,1
34,70.14,1
39,69.99,1
35,68.78,1
64,67.02,1
65,65.35,1
91,64.28,1
98,64.18,1
75,64.98,1
35,65.77,1
115,66.35,1
82,67.45,1
72,68.96,1
35,69.99,1
73,70.23,1
74,70.2,1
73,70.28,1
97,70.64,1
55,71.24,1
36,71.35,1
72,70.71,1
106,70.25,1
34,70.2,1
191,70.86,1
36,72.74,1
80,74.61,1
140,76.33,1
40,78.43,1
41,79.59,1
80,79.53,1
72,79.1,1
53,78.45,1
84,77.53,1
61,76.6,1
37,75.36,1
95,73.84,1
42,72.46,1
69,71.07,1
86,69.86,1
68,69.18,1
47,68.61,1
36,67.54,1
69,66.05,1
146,65.38,1
69,66.26,1
50,67.5,1
56,68.08,1
68,68.17,1
167,68.95,1
40,70.92,1
38,72.43,1
58,72.63,1
43,71.99,1
50,70.74,1
40,68.96,1
36,66.7,1
70,64.28,1
109,62.67,1
55,62.21,1
40,61.95,1
39,61.13,1
53,59.91,1
81,58.87,1
48,58.3,1
42,57.75,1
38,56.84,1
73,55.84,1
36,55.06,1
41,54.18,1
69,53.26,1
183,53.81,1
139,57.18,1
71,62.25,1
65,66.89,1
137,71.01,1
84,75.28,1
56,79.02,1
65,81.42,1
75,82.7,1
59,83.21,1
48,82.84,1
124,82.13,1
123,82.34,1
56,83.29,1
65,83.74,1
65,83.39,1
40,82.31,1
105,80.83,1
92,79.87,1
39,79.21,1
83,78.18,1
78,77.15,1
48,76.19,1
74,74.99,1
53,73.66,1
55,72.15,1
68,70.52,1
58,69.01,1
68,67.67,1
59,66.5,1
44,65.31,1
39,63.79,1
44,61.88,1
53,59.88,1
109,58.52,1
52,58.23,1
37,58.14,1
101,58.03,1
38,58.33,1
127,59.13,1
183,61.71,1
44,66.07,1
38,69.75,1
144,72.43,1
99,75.58,1
38,78.62,1
104,80.64,1
92,82.3,1
127,84.28,1
94,86.63,1
43,88.51,1
83,89.19,1
78,89.12,1
77,88.74,1
46,87.81,1
69,86.18,1
44,83.97,1
38,81.14,1
36,77.6,1
50,73.65,1
56,69.81,1
48,66.32,1
50,63.15,1
48,60.27,1
35,57.58,1
45,54.98,1
44,52.59,1
76,50.76,1
47,49.7,1
94,49.43,1
78,50.19,1
53,51.6,1
52,52.92,1
43,53.83,1
76,54.5,1
58,55.3,1
86,56.39,1
89,57.98,1
102,60.3,1
107,63.37,1
44,66.59,1
112,69.37,1
99,72.23,1
41,74.91,1
52,76.39,1
57,76.66,1
119,76.69,1
36,76.91,1
88,76.85,1
40,76.34,1
41,75.16,1
52,73.22,1
46,70.91,1
68,68.57,1
35,66.31,1
49,63.95,1
107,62.02,1
66,61.22,1
55,61.02,1
38,60.62,1
82,60.08,1
65,59.88,1
47,59.89,1
71,59.83,1
127,60.41,1
82,62.21,1
39,64.25,1
75,65.62,1
39,66.38,1
44,66.4,1
82,65.94,1
75,65.76,1
38,65.67,1
101,65.51,1
65,65.75,1
105,66.53,1
61,67.7,1
78,68.87,1
36,69.58,1
35,69.35,1
64,68.3,1
37,66.89,1
54,65.2,1
96,63.75,1
42,62.92,1
77,62.34,1
87,62.17,1
41,62.4,1
46,62.28,1
52,61.67,1
55,60.85,1
44,59.93,1
64,58.96,1
110,58.59,1
38,59.04,1
84,59.65,1
128,60.91,1
71,63.24,1
35,65.44,1
118,67.09,1
48,68.77,1
59,70.02,1
137,71.17,1
52,72.88,1
60,74.26,1
111,75.19,1
46,76.13,1
53,76.43,1
72,76,1
87,75.5,1
49,75.06,1
237,75.73,1
54,78.49,1
52,81.27,1
82,82.67,1
172,84.2,1
77,86.74,1
93,89.26,1
57,90.87,1
68,91.37,1
206,92.02,1
82,94.14,1
145,96.9,1
75,99.49,1
64,101.13,1
123,101.72,1
110,102.29,1
172,103.58,1
36,105.2,1
88,105.7,1
47,104.72,1
35,102.31,1
54,98.51,1
52,93.97,1
45,89.11,1
103,84.48,1
98,81.06,1
84,78.94,1
150,78.17,1
127,79.23,1
86,81.47,1
112,83.88,1
36,85.79,1
68,86.49,1
99,86.41,1
35,85.97,1
154,85.47,1
95,85.88,1
62,86.7,1
79,86.92,1
99,86.85,1
39,86.54,1
34,85.2,1
68,82.8,1
38,79.96,1
65,76.89,1
55,73.85,1
69,71.11,1
70,68.86,1
72,67.19,1
95,66.26,1
46,65.9,1
35,65.29,1
57,64.09,1
36,62.59,1
53,60.89,1
61,59.26,1
47,57.9,1
52,56.66,1
91,55.85,1
67,55.87,1
36,56.2,1
74,56.35,1
52,56.55,1
45,56.68,1
50,56.49,1
230,57.57,1
40,61.02,1
46,64.58,1
40,66.55,1
68,67.47,1
61,67.88,1
108,68.42,1
32,69.12,1
54,69.23,1
89,68.91,1
82,68.99,1
45,69.23,1
100,69.37,1
62,69.72,1
48,69.93,1
37,69.39,1
64,68.22,1
60,66.93,1
86,65.97,1
87,65.7,1
60,65.97,1
52,66.13,1
52,65.85,1
64,65.28,1
53,64.61,1
82,64.06,1
42,63.66,1
74,63.23,1
93,63.16,1
71,63.75,1
64,64.56,1
74,65.3,1
96,66.24,1
52,67.4,1
65,68.24,1
130,69.2,1
69,70.89,1
84,72.75,1
104,74.58,1
73,76.51,1
39,77.84,1
70,78.11,1
108,78.11,1
70,78.46,1
59,78.68,1
68,78.35,1
36,77.43,1
104,76.18,1
41,75.07,1
46,73.67,1
102,72.11,1
48,71,1
40,69.78,1
104,68.46,1
70,67.83,1
71,67.71,1
64,67.67,1
61,67.54,1
88,67.48,1
56,67.62,1
228,69.04,1
64,72.63,1
48,76.29,1
127,78.93,1
114,81.77,1
124,85.18,1
108,88.84,1
48,91.89,1
217,94.65,1
144,98.78,1
37,103.13,1
41,105.14,1
57,104.67,1
70,102.7,1
110,100.35,1
93,98.41,1
286,98.47,1
85,101.46,1
47,104.53,1
112,105.83,1
140,106.72,1
43,107.46,1
123,107.35,1
44,106.46,1
68,104.59,1
51,101.6,1
76,98.02,1
142,94.9,1
56,92.84,1
68,90.86,1
84,88.63,1
82,86.64,1
101,85.15,1
39,83.87,1
146,82.81,1
205,83.68,1
36,86.5,1
48,88.47,1
73,88.74,1
78,88.26,1
179,88.35,1
98,89.9,1
82,91.89,1
158,93.83,1
158,96.8,1
247,101.83,1
74,108.29,1
47,113.26,1
43,115.04,1
45,114.07,1
55,111.1,1
127,107.5,1
45,104.13,1
46,100.3,1
48,95.6,1
41,90.39,1
85,85.22,1
83,80.91,1
38,77.34,1
50,73.81,1
136,70.95,1
174,70.54,1
69,72.46,1
51,74.51,1
78,75.68,1
126,76.81,1
86,78.57,1
96,80.56,1
100,82.53,1
73,84.35,1
140,86.14,1
68,88.13,1
50,89.41,1
45,89.2,1
85,87.95,1
47,86.27,1
53,84.04,1
81,81.51,1
85,79.36,1
90,77.93,1
105,77.32,1
72,77.38,1
50,77.34,1
107,77.05,1
44,76.83,1
39,76.06,1
128,75.03,1
61,74.71,1
38,74.37,1
68,73.36,1
108,72.49,1
112,72.71,1
78,73.87,1
90,75.26,1
59,76.46,1
154,77.83,1
91,80.09,1
90,82.69,1
69,84.73,1
81,86.05,1
52,86.53,1
141,86.74,1
122,87.79,1
61,89.37,1
75,90.26,1
88,90.42,1
42,89.97,1
103,88.92,1
62,87.75,1
44,86.2,1
58,83.88,1
49,81.07,1
72,78.15,1
140,76.09,1
55,75.39,1
65,74.96,1
73,74.3,1
67,73.63,1
40,72.73,1
56,71.32,1
66,69.69,1
69,68.28,1
53,67.07,1
34,65.66,1
210,65.16,1
41,66.73,1
72,68.72,1
142,70.67,1
179,74.23,1
118,79.58,1
104,85.31,1
38,89.85,1
83,92.5,1
84,93.84,1
127,94.88,1
56,95.79,1
111,96.21,1
49,96.05,1
41,94.81,1
105,92.7,1
51,90.52,1
59,88.06,1
63,85.2,1
46,82.12,1
63,78.85,1
67,75.74,1
35,72.79,1
35,69.56,1
76,66.3,1
70,63.75,1
92,62.26,1
96,61.96,1
68,62.59,1
35,63.2,1
55,63.18,1
36,62.56,1
153,62.34,1
66,63.48,1
43,64.96,1
46,65.58,1
72,65.6,1
58,65.49,1
37,65.1,1
68,64.31,1
89,63.75,1
74,63.87,1
78,64.44,1
158,65.96,1
134,69.27,1
76,73.65,1
65,77.44,1
108,80.35,1
100,83.06,1
42,85.27,1
58,86.12,1
83,85.93,1
94,85.56,1
63,85.21,1
95,84.73,1
54,84.1,1
35,82.8,1
48,80.51,1
55,77.64,1
88,74.92,1
68,72.85,1
41,71.06,1
131,69.67,1
131,69.91,1
106,71.9,1
67,74.44,1
44,76.25,1
64,76.91,1
50,76.69,1
85,76.06,1
48,75.27,1
59,74.18,1
101,73.09,1
64,72.54,1
71,72.21,1
88,71.99,1
43,71.85,1
157,72.1,1
36,73.16,1
53,73.87,1
67,73.7,1
37,72.99,1
40,71.52,1
74,69.61,1
82,68.1,1
60,67.16,1
49,66.31,1
39,65.09,1
43,63.42,1
82,61.77,1
137,61.32,1
222,63.73,1
163,69.64,1
46,76.73,1
105,82.55,1
62,86.88,1
44,89.55,1
96,90.67,1
120,91.46,1
118,92.79,1
124,94.71,1
36,96.36,1
141,97.21,1
96,98.07,1
80,98.89,1
34,98.64,1
107,97.29,1
76,95.73,1
39,93.85,1
121,91.59,1
72,89.76,1
70,88.18,1
119,86.79,1
54,85.86,1
35,84.48,1
158,82.97,1
55,82.43,1
52,81.94,1
71,80.77,1
81,79.48,1
49,78.2,1
80,76.79,1
67,75.46,1
42,74.06,1
70,72.38,1
51,70.64,1
60,68.9,1
78,67.35,1
55,66.19,1
74,65.29,1
83,64.8,1
44,64.64,1
36,64.1,1
82,63.21,1
94,62.87,1
90,63.52,1
98,64.98,1
61,66.8,1
42,68.15,1
98,68.93,1
101,70.04,1
51,71.48,1
67,72.45,1
82,72.99,1
53,73.34,1
81,73.41,1
95,73.59,1
36,73.83,1
46,73.33,1
71,72.18,1
39,70.8,1
104,69.49,1
58,68.73,1
47,68.08,1
144,67.79,1
141,69.26,1
39,71.95,1
91,74.18,1
87,75.97,1
121,78.01,1
48,80.1,1
52,81.27,1
65,81.26,1
145,81.27,1
98,82.34,1
96,84.03,1
91,85.7,1
41,86.76,1
111,87.05,1
135,87.68,1
52,88.84,1
86,89.47,1
168,90.23,1
76,91.94,1
60,93.34,1
89,93.68,1
41,93.14,1
115,92.01,1
197,91.98,1
59,93.59,1
40,94.65,1
132,94.58,1
96,94.7,1
37,94.65,1
57,93.36,1
79,91.19,1
76,88.94,1
87,86.91,1
50,84.97,1
50,82.65,1
33,79.67,1
94,76.5,1
183,74.91,1
47,75.39,1
98,76.38,1
45,76.98,1
49,76.85,1
44,75.76,1
46,73.92,1
38,71.53,1
49,68.76,1
64,66.04,1
35,63.54,1
54,61.09,1
106,59.27,1
43,58.48,1
68,58.09,1
168,58.74,1
49,61.03,1
122,63.96,1
50,66.9,1
54,69.21,1
34,70.27,1
72,70.34,1
119,70.52,1
97,71.69,1
123,73.83,1
36,76.15,1
70,77.58,1
30,77.8,1
102,77.31,1
94,77.09,1
35,77.07,1
48,76.25,1
112,75.12,1
70,74.6,1
48,74.22,1
70,73.43,1
105,72.83,1
126,73.33,1
73,74.83,1
36,76.05,1
38,75.96,1
70,74.9,1
141,74.25,1
83,74.88,1
191,76.99,1
73,80.51,1
59,83.79,1
107,85.99,1
82,87.75,1
77,89.06,1
215,90.83,1
94,94.13,1
68,97.43,1
91,99.37,1
96,100.41,1
37,100.52,1
78,99.34,1
37,97.05,1
61,93.85,1
111,90.54,1
107,88.26,1
34,86.58,1
84,84.57,1
42,82.27,1
44,79.55,1
68,76.48,1
109,74.02,1
162,73.41,1
52,74.55,1
136,76.27,1
60,78.24,1
40,79.59,1
42,79.48,1
55,78.27,1
40,76.34,1
87,74.19,1
79,72.52,1
158,72.19,1
91,73.57,1
110,75.91,1
95,78.53,1
37,80.71,1
91,81.85,1
92,82.57,1
36,82.97,1
112,82.81,1
52,82.52,1
51,81.79,1
83,80.49,1
111,79.55,1
76,79.36,1
290,81.14,1
54,85.67,1
36,89.87,1
98,91.96,1
42,92.77,1
72,92.41,1
136,91.75,1
39,91.38,1
91,90.59,1
120,89.82,1
64,89.52,1
54,88.84,1
50,87.19,1
51,84.75,1
37,81.66,1
44,78,1
58,74.16,1
39,70.43,1
57,66.86,1
82,63.89,1
74,61.96,1
77,60.97,1
124,61.13,1
93,62.69,1
41,64.71,1
83,66.23,1
79,67.56,1
51,68.75,1
51,69.3,1
87,69.41,1
91,69.81,1
93,70.79,1
49,71.9,1
74,72.56,1
53,72.72,1
135,73.05,1
43,73.9,1
39,74.26,1
49,73.49,1
37,71.9,1
38,69.64,1
41,66.9,1
143,64.78,1
141,64.9,1
39,66.69,1
56,68.11,1
74,68.8,1
85,69.44,1
38,69.96,1
76,70,1
56,69.75,1
114,69.75,1
92,70.56,1
44,71.67,1
84,72.32,1
49,72.59,1
34,72.17,1
37,70.74,1
92,68.97,1
40,67.5,1
39,65.9,1
87,64.2,1
231,64.48,1
96,67.88,1
44,72.08,1
42,74.75,1
42,75.7,1
111,75.88,1
76,76.31,1
99,77.12,1
85,78.15,1
107,79.45,1
86,81.01,1
57,82.28,1
84,82.88,1
109,83.35,1
53,83.89,1
44,83.66,1
84,82.59,1
74,81.4,1
53,80.16,1
68,78.62,1
44,76.77,1
54,74.56,1
41,72.01,1
166,70.19,1
68,70.14,1
119,71.25,1
106,73.15,1
37,75.22,1
44,76.17,1
36,75.7,1
41,74.15,1
45,71.86,1
38,69.14,1
38,66.1,1
60,63.04,1
66,60.49,1
52,58.56,1
167,57.94,1
78,59.41,1
68,61.8,1
67,63.9,1
170,66.46,1
57,70.04,1
48,73.19,1
64,74.95,1
46,75.65,1
100,75.8,1
71,76.03,1
85,76.39,1
47,76.52,1
110,76.48,1
34,76.41,1
156,76.59,1
82,77.73,1
69,79.25,1
48,79.99,1
62,79.8,1
88,79.16,1
55,78.48,1
47,77.4,1
49,75.65,1
70,73.6,1
58,71.64,1
35,69.61,1
56,67.3,1
46,64.91,1
36,62.46,1
87,60.24,1
55,58.74,1
88,58.03,1
48,57.87,1
131,58.44,1
73,60.11,1
69,62.25,1
79,64.22,1
102,66.31,1
81,68.72,1
92,71.22,1
86,73.67,1
97,76.07,1
78,78.35,1
126,80.61,1
61,82.9,1
58,84.43,1
196,85.89,1
110,88.79,1
46,91.87,1
44,93.21,1
54,92.69,1
89,91.22,1
131,90.08,1
92,89.9,1
58,89.87,1
111,89.52,1
54,89.05,1
85,88.26,1
48,86.99,1
70,85.21,1
43,82.96,1
72,80.38,1
104,78.17,1
83,76.91,1
139,76.79,1
66,77.69,1
38,78.36,1
82,78.12,1
36,77.33,1
45,75.81,1
60,73.68,1
41,71.33,1
72,68.95,1
53,66.83,1
45,64.85,1
203,64.07,1
51,65.51,1
50,67.38,1
106,68.69,1
66,70.13,1
71,71.46,1
85,72.53,1
82,73.61,1
68,74.63,1
81,75.4,1
68,75.96,1
36,75.95,1
190,76.17,1
93,78.02,1
48,80.37,1
98,81.87,1
36,82.62,1
77,82.5,1
110,82.16,1
92,82.39,1
75,82.9,1
43,82.89,1
75,82.1,1
35,80.67,1
44,78.49,1
59,75.74,1
42,72.83,1
82,70.08,1
110,68.27,1
108,68.04,1
135,69.43,1
41,71.66,1
79,73.43,1
65,74.53,1
53,75.08,1
83,75.11,1
40,74.78,1
113,74.35,1
39,74.08,1
148,74.22,1
85,75.36,1
73,76.95,1
44,77.9,1
82,78.04,1
95,78.07,1
80,78.43,1
112,79.13,1
159,80.88,1
43,83.44,1
172,86.07,1
67,88.98,1
124,91.81,1
114,94.47,1
37,96.58,1
46,96.92,1
210,96.77,1
48,97.7,1
36,98.01,1
52,96.42,1
46,93.58,1
40,89.86,1
57,85.56,1
48,81.13,1
125,77.38,1
90,75.19,1
182,75.05,1
90,76.97,1
146,80.08,1
35,83.24,1
100,85.51,1
67,86.89,1
45,87.37,1
131,87.24,1
121,87.79,1
74,89.01,1
104,90.09,1
84,90.95,1
47,91.23,1
82,90.58,1
70,89.41,1
60,87.89,1
83,86.09,1
68,84.31,1
242,83.97,1
176,86.97,1
62,91.78,1
139,96.04,1
129,99.97,1
119,103.93,1
64,107.07,1
85,108.66,1
178,109.67,1
38,110.78,1
207,111.77,1
44,112.93,1
98,113.32,1
60,112.36,1
36,110,1
68,106.21,1
68,101.81,1
47,97.17,1
44,92.13,1
81,87.04,1
59,82.49,1
82,78.62,1
50,75.34,1
73,72.47,1
174,70.94,1
89,71.63,1
96,73.51,1
38,75.14,1
51,75.75,1
36,75.15,1
36,73.54,1
70,71.35,1
37,69.09,1
54,66.73,1
59,64.41,1
99,62.76,1
35,61.84,1
103,61.34,1
77,61.57,1
46,62.21,1
97,62.84,1
71,63.81,1
63,64.94,1
97,66.07,1
38,67.19,1
62,67.76,1
62,67.81,1
66,67.68,1
49,67.36,1
67,66.8,1
82,66.35,1
41,66.07,1
76,65.65,1
58,65.24,1
45,64.72,1
58,63.9,1
36,62.79,1
111,61.86,1
114,62.18,1
51,63.59,1
57,64.81,1
95,65.75,1
100,67.15,1
86,69.14,1
66,71.17,1
137,73.29,1
66,75.83,1
70,78.06,1
73,79.47,1
34,79.99,1
67,79.46,1
54,78.26,1
70,76.79,1
51,75.16,1
123,73.87,1
97,73.72,1
62,74.29,1
48,74.49,1
84,74.18,1
47,73.66,1
39,72.63,1
54,70.92,1
69,69.07,1
36,67.26,1
116,65.78,1
69,65.27,1
96,65.61,1
68,66.42,1
136,67.88,1
76,70.2,1
37,72.33,1
86,73.5,1
113,74.63,1
55,76.06,1
62,76.98,1
46,77,1
51,76.16,1
55,74.68,1
50,72.83,1
41,70.64,1
107,68.61,1
58,67.39,1
56,66.54,1
116,66.06,1
63,66.41,1
48,66.87,1
70,66.91,1
44,66.63,1
75,66.15,1
42,65.54,1
36,64.53,1
84,63.26,1
70,62.47,1
56,62.12,1
114,62.25,1
49,63.03,1
58,63.78,1
78,64.24,1
47,64.63,1
64,64.74,1
92,64.88,1
153,66.16,1
73,68.83,1
159,72.38,1
71,76.51,1
44,79.97,1
100,82.1,1
46,83.39,1
64,83.75,1
95,83.47,1
116,83.57,1
40,83.92,1
133,84.12,1
56,84.49,1
132,85.1,1
176,86.84,1
49,89.69,1
38,91.46,1
91,91.58,1
40,90.79,1
94,89.38,1
95,88.03,1
54,86.88,1
36,85.11,1
104,82.85,1
60,80.9,1
38,78.91,1
87,76.64,1
52,74.56,1
61,72.59,1
90,70.88,1
100,70.06,1
40,69.84,1
67,69.41,1
93,69,1
82,69.17,1
35,69.43,1
66,69.14,1
94,68.79,1
70,68.92,1
59,69.17,1
67,69.17,1
35,68.78,1
79,67.98,1
77,67.36,1
70,67.17,1
38,66.9,1
111,66.62,1
46,66.72,1
129,67.34,1
114,69.05,1
35,71.3,1
48,72.57,1
65,72.76,1
82,72.65,1
105,72.92,1
127,74.18,1
73,76.26,1
89,78.3,1
36,79.64,1
82,80.03,1
124,80.36,1
84,81.37,1
117,82.84,1
79,84.49,1
79,85.89,1
44,86.43,1
38,85.68,1
70,83.84,1
47,81.53,1
75,79.06,1
74,76.8,1
60,74.89,1
159,73.87,1
36,74.08,1
105,74.56,1
91,75.25,1
44,76.02,1
42,75.91,1
89,75.12,1
48,74.25,1
111,73.58,1
85,73.57,1
74,74.07,1
35,74.21,1
127,74.11,1
44,74.33,1
112,74.74,1
53,75.24,1
60,75.42,1
60,75,1
42,74.04,1
49,72.45,1
58,70.49,1
142,69.21,1
40,69.09,1
97,69.37,1
76,69.85,1
48,70.36,1
38,70.14,1
122,69.7,1
45,69.75,1
132,70.34,1
78,71.65,1
107,73.55,1
53,75.42,1
84,76.79,1
44,77.49,1
58,77.36,1
82,76.7,1
66,76.04,1
34,75.07,1
90,73.71,1
38,72.32,1
50,70.66,1
64,68.73,1
73,67.07,1
98,66.14,1
39,65.79,1
111,65.72,1
43,66.01,1
66,66.22,1
72,66.24,1
151,67.05,1
106,69.43,1
72,72.53,1
96,75.34,1
92,77.94,1
72,80.24,1
92,82.05,1
40,83.16,1
71,83.26,1
124,83.12,1
166,84.28,1
208,87.88,1
107,93.37,1
142,99.13,1
67,104.01,1
124,107.58,1
60,109.85,1
38,110.25,1
69,108.62,1
85,105.94,1
53,102.82,1
89,99.37,1
47,95.76,1
45,91.74,1
93,87.54,1
48,83.77,1
36,80,1
74,76.09,1
66,72.67,1
49,69.78,1
64,67.16,1
70,64.99,1
76,63.51,1
106,62.99,1
101,63.73,1
51,65.15,1
165,67.13,1
56,70.01,1
83,72.86,1
41,74.79,1
68,75.72,1
38,75.7,1
41,74.72,1
95,73.28,1
38,71.99,1
52,70.47,1
83,68.84,1
90,67.88,1
54,67.52,1
63,67.17,1
53,66.61,1
44,65.74,1
56,64.54,1
40,63.11,1
82,61.74,1
102,61.19,1
34,61.39,1
68,61.47,1
144,62.1,1
41,63.81,1
38,65.18,1
93,65.79,1
83,66.62,1
106,68.06,1
104,70.21,1
116,73.07,1
38,75.93,1
72,77.77,1
77,78.75,1
42,79.1,1
66,78.63,1
57,77.59,1
93,76.48,1
83,75.81,1
119,75.91,1
72,76.74,1
34,77.28,1
117,77.27,1
53,77.36,1
67,77.27,1
78,76.83,1
115,76.75,1
59,77.19,1
140,78.06,1
101,79.76,1
38,81.56,1
52,82.12,1
62,81.52,1
38,80.14,1
139,78.73,1
104,78.52,1
60,79.13,1
50,79.24,1
68,78.57,1
69,77.58,1
41,76.3,1
41,74.38,1
134,72.59,1
45,71.75,1
86,71.31,1
72,71,1
41,70.66,1
110,70.25,1
93,70.54,1
36,71.18,1
87,71.4,1
102,71.78,1
41,72.44,1
68,72.64,1
205,73.54,1
106,76.65,1
46,80.31,1
53,82.52,1
66,83.28,1
40,82.97,1
43,81.55,1
46,79.2,1
129,76.98,1
124,76.28,1
52,76.77,1
86,77.19,1
43,77.17,1
71,76.61,1
68,75.75,1
99,75.11,1
66,74.89,1
43,74.52,1
52,73.45,1
54,71.86,1
55,70.05,1
70,68.3,1
48,66.72,1
66,65.22,1
122,64.43,1
39,64.57,1
66,64.74,1
78,64.79,1
48,64.92,1
55,64.76,1
98,64.61,1
90,65.19,1
86,66.49,1
57,67.91,1
66,68.95,1
118,70,1
67,71.53,1
79,73.07,1
99,74.5,1
48,75.81,1
40,76.25,1
170,76.52,1
141,78.54,1
67,81.76,1
36,84.07,1
53,84.65,1
44,83.8,1
78,82.19,1
55,80.35,1
39,78.17,1
80,75.69,1
62,73.46,1
80,71.68,1
59,70.29,1
92,69.3,1
54,68.71,1
62,68.16,1
72,67.55,1
47,66.95,1
63,66.17,1
51,65.24,1
87,64.46,1
87,64.31,1
92,64.99,1
118,66.57,1
132,69.37,1
148,73.61,1
128,78.98,1
80,84.45,1
56,88.66,1
45,90.87,1
163,92.1,1
50,93.47,1
104,94.46,1
120,95.21,1
79,96.12,1
71,96.53,1
86,96.18,1
106,95.62,1
43,94.85,1
160,94.03,1
56,93.77,1
38,93.04,1
95,91.29,1
47,89.22,1
39,86.58,1
144,83.94,1
70,82.43,1
43,81.27,1
127,80.04,1
70,79.49,1
81,79.32,1
49,78.9,1
234,79.38,1
163,82.73,1
225,89.08,1
80,96.68,1
103,103.29,1
199,108.91,1
89,114.45,1
238,119.95,1
72,125.44,1
143,129.8,1
49,132.2,1
39,131.96,1
48,128.88,1
77,124.03,1
58,118.4,1
138,112.94,1
36,108.11,1
253,104.69,1
223,104.93,1
199,109.07,1
42,114.1,1
61,116.99,1
56,117.16,1
36,115.12,1
84,111.53,1
92,107.55,1
46,103.56,1
42,98.98,1
34,93.59,1
53,87.76,1
56,82.04,1
38,76.66,1
130,72.2,1
62,69.4,1
51,67.5,1
175,66.62,1
172,68.49,1
116,72.95,1
210,79.01,1
42,85.77,1
93,91.27,1
47,94.71,1
61,96.26,1
115,96.6,1
85,96.77,1
123,97.08,1
167,98.21,1
64,100.14,1
80,101.39,1
36,101.14,1
83,99.54,1
99,97.52,1
49,95.49,1
77,93.05,1
146,91.01,1
78,90.14,1
118,89.97,1
46,89.84,1
38,88.82,1
140,87.28,1
67,86.4,1
96,85.94,1
151,86.13,1
50,87.13,1
179,88.57,1
88,90.83,1
74,93.09,1
195,95.29,1
87,98.37,1
54,100.96,1
68,101.77,1
103,101.45,1
75,100.74,1
69,99.53,1
50,97.48,1
43,94.47,1
68,90.74,1
83,87.07,1
51,83.76,1
100,80.83,1
47,78.4,1
99,76.38,1
97,75.15,1
40,74.48,1
61,73.48,1
37,71.94,1
121,70.5,1
47,69.77,1
45,69.06,1
117,68.34,1
54,68.29,1
48,68.24,1
77,67.84,1
69,67.52,1
91,67.58,1
35,67.76,1
78,67.63,1
58,67.35,1
96,67.3,1
101,67.94,1
65,69.17,1
60,70.23,1
219,72.04,1
90,75.91,1
80,80.32,1
60,83.58,1
48,85.34,1
56,85.61,1
71,84.9,1
84,83.88,1
35,82.6,1
74,80.78,1
45,78.6,1
38,76.03,1
42,72.89,1
68,69.67,1
65,66.93,1
92,65.03,1
42,63.85,1
43,62.65,1
141,61.89,1
46,62.34,1
47,62.94,1
95,63.26,1
44,63.73,1
57,63.97,1
53,63.78,1
47,63.26,1
41,62.32,1
74,61.22,1
48,60.33,1
57,59.52,1
52,58.72,1
136,58.62,1
201,60.92,1
64,65.66,1
37,70.11,1
39,72.62,1
57,73.56,1
45,73.47,1
60,72.69,1
58,71.53,1
92,70.51,1
74,70.01,1
47,69.69,1
94,69.31,1
41,69.01,1
42,68.3,1
36,66.84,1
87,65.17,1
38,63.8,1
36,62.29,1
79,60.65,1
55,59.45,1
45,58.51,1
66,57.6,1
45,56.84,1
70,56.26,1
54,55.92,1
70,55.87,1
70,56.17,1
110,57.18,1
63,58.98,1
84,61.04,1
55,62.95,1
58,64.41,1
42,65.15,1
78,65.37,1
50,65.42,1
67,65.33,1
46,65,1
72,64.51,1
35,63.87,1
62,62.95,1
62,62,1
43,61.12,1
36,59.96,1
67,58.59,1
37,57.33,1
58,56.12,1
73,55.21,1
48,54.78,1
70,54.62,1
53,54.69,1
108,55.28,1
36,56.42,1
133,58.01,1
37,60.1,1
47,61.8,1
61,62.64,1
48,63,1
46,62.86,1
47,62.23,1
75,61.48,1
39,60.82,1
50,59.98,1
51,58.94,1
43,57.81,1
97,56.97,1
39,56.74,1
67,56.69,1
83,56.89,1
45,57.45,1
36,57.71,1
63,57.49,1
36,57.05,1
49,56.35,1
65,55.61,1
39,55,1
37,54.21,1
60,53.25,1
46,52.43,1
35,51.62,1
63,50.78,1
36,50.09,1
48,49.43,1
38,48.69,1
61,48.05,1
46,47.68,1
51,47.51,1
44,47.39,1
55,47.34,1
43,47.37,1
43,47.34,1
35,47.11,1
45,46.68,1
48,46.24,1
37,45.85,1
44,45.41,1
46,44.99,1
37,44.61,1
79,44.49,1
43,44.9,1
48,45.48,1
40,45.9,1
59,46.24,1
43,46.64,1
38,46.91,1
42,46.89,1
52,46.77,1
36,46.63,1
40,46.34,1
41,45.88,1
34,45.31,1
54,44.72,1
44,44.34,1
64,44.28,1
