36.00,36.67,0
37.00,36.67,0
37.00,36.67,0
36.00,36.67,0
37.00,36.67,0
36.00,36.66,0
38.00,36.65,0
36.00,36.66,0
36.00,36.66,0
35.00,36.64,0
38.00,36.59,0
35.00,36.56,0
38.00,36.53,0
35.00,36.50,0
38.00,36.49,0
35.00,36.47,0
39.00,36.47,0
35.00,36.49,0
39.00,36.52,0
34.00,36.55,0
38.00,36.56,0
35.00,36.56,0
37.00,36.55,0
36.00,36.53,0
38.00,36.53,0
36.00,36.54,0
38.00,36.56,0
36.00,36.59,0
37.00,36.62,0
36.00,36.64,0
37.00,36.65,0
36.00,36.65,0
36.00,36.64,0
37.00,36.62,0
36.00,36.60,0
37.00,36.58,0
36.00,36.56,0
37.00,36.55,0
35.00,36.53,0
38.00,36.50,0
35.00,36.48,0
38.00,36.47,0
35.00,36.46,0
38.00,36.45,0
34.00,36.44,0
38.00,36.42,0
34.00,36.39,0
39.00,36.36,0
35.00,36.35,0
39.00,36.36,0
35.00,36.40,0
38.00,36.43,0
35.00,36.46,0
38.00,36.49,0
36.00,36.51,0
37.00,36.54,0
36.00,36.56,0
37.00,36.58,0
35.00,36.58,0
37.00,36.56,0
36.00,36.53,0
37.00,36.51,0
37.00,36.50,0
36.00,36.51,0
38.00,36.52,0
36.00,36.54,0
37.00,36.57,0
35.00,36.57,0
37.00,36.56,0
35.00,36.53,0
38.00,36.50,0
34.00,36.47,0
39.00,36.44,0
34.00,36.42,0
38.00,36.40,0
35.00,36.37,0
40.00,36.38,0
34.00,36.41,0
39.00,36.45,0
35.00,36.48,0
38.00,36.52,0
35.00,36.55,0
39.00,36.57,0
35.00,36.61,0
38.00,36.64,0
36.00,36.67,0
37.00,36.69,0
36.00,36.70,0
37.00,36.71,0
36.00,36.70,0
38.00,36.70,0
36.00,36.71,0
36.00,36.71,0
37.00,36.69,0
36.00,36.67,0
37.00,36.65,0
36.00,36.63,0
38.00,36.62,0
36.00,36.62,0
38.00,36.64,0
37.00,36.67,0
38.00,36.72,0
34.00,36.76,0
38.00,36.77,0
34.00,36.75,0
39.00,36.71,0
36.00,36.70,0
39.00,36.71,0
35.00,36.74,0
38.00,36.76,0
35.00,36.77,0
38.00,36.77,0
35.00,36.76,0
37.00,36.73,0
35.00,36.69,0
37.00,36.63,0
36.00,36.58,0
38.00,36.54,0
36.00,36.53,0
37.00,36.53,0
36.00,36.53,0
36.00,36.52,0
37.00,36.50,0
36.00,36.48,0
38.00,36.48,0
36.00,36.50,0
37.00,36.52,0
36.00,36.54,0
38.00,36.55,0
35.00,36.57,0
38.00,36.59,0
35.00,36.59,0
38.00,36.60,0
34.00,36.59,0
39.00,36.57,0
34.00,36.55,0
39.00,36.54,0
35.00,36.53,0
40.00,36.56,0
35.00,36.60,0
42.00,36.68,0
34.00,36.80,0
38.00,36.89,0
35.00,36.94,0
38.00,36.96,0
36.00,36.97,0
37.00,36.98,0
35.00,36.95,0
37.00,36.90,0
37.00,36.85,0
37.00,36.82,0
36.00,36.79,0
38.00,36.77,0
37.00,36.77,0
36.00,36.77,0
37.00,36.77,0
36.00,36.76,0
37.00,36.74,0
35.00,36.71,0
38.00,36.67,0
34.00,36.63,0
39.00,36.58,0
34.00,36.55,0
39.00,36.52,0
34.00,36.49,0
40.00,36.49,0
34.00,36.50,0
38.00,36.50,0
34.00,36.49,0
39.00,36.48,0
34.00,36.47,0
38.00,36.45,0
35.00,36.43,0
37.00,36.41,0
36.00,36.39,0
37.00,36.38,0
35.00,36.36,0
38.00,36.35,0
36.00,36.35,0
36.00,36.36,0
37.00,36.36,0
35.00,36.36,0
37.00,36.35,0
36.00,36.33,0
37.00,36.33,0
34.00,36.31,0
39.00,36.29,0
35.00,36.29,0
38.00,36.30,0
35.00,36.32,0
38.00,36.34,0
34.00,36.35,0
39.00,36.36,0
34.00,36.37,0
39.00,36.38,0
34.00,36.39,0
39.00,36.40,0
35.00,36.43,0
39.00,36.46,0
35.00,36.51,0
38.00,36.55,0
35.00,36.58,0
38.00,36.60,0
36.00,36.62,0
37.00,36.64,0
36.00,36.65,0
37.00,36.65,0
37.00,36.66,0
36.00,36.67,0
36.00,36.66,0
36.00,36.63,0
37.00,36.60,0
36.00,36.57,0
36.00,36.53,0
36.00,36.49,0
38.00,36.46,0
36.00,36.45,0
38.00,36.47,0
35.00,36.48,0
38.00,36.50,0
35.00,36.51,0
38.00,36.52,0
34.00,36.52,0
38.00,36.50,0
34.00,36.47,0
38.00,36.43,0
35.00,36.39,0
38.00,36.37,0
34.00,36.35,0
38.00,36.32,0
35.00,36.30,0
38.00,36.29,0
35.00,36.28,0
37.00,36.28,0
36.00,36.28,0
36.00,36.28,0
36.00,36.26,0
36.00,36.25,0
36.00,36.23,0
37.00,36.21,0
36.00,36.21,0
37.00,36.22,0
36.00,36.23,0
36.00,36.24,0
37.00,36.25,0
36.00,36.27,0
37.00,36.29,0
36.00,36.31,0
37.00,36.33,0
36.00,36.36,0
37.00,36.38,0
35.00,36.39,0
37.00,36.39,0
35.00,36.37,0
38.00,36.36,0
36.00,36.36,0
37.00,36.37,0
36.00,36.39,0
39.00,36.42,0
35.00,36.47,0
39.00,36.53,0
35.00,36.59,0
37.00,36.63,0
36.00,36.65,0
38.00,36.66,0
36.00,36.69,0
37.00,36.71,0
36.00,36.72,0
36.00,36.71,0
36.00,36.68,0
36.00,36.63,0
38.00,36.60,0
36.00,36.58,0
37.00,36.57,0
35.00,36.56,0
37.00,36.53,0
36.00,36.49,0
38.00,36.48,0
35.00,36.48,0
38.00,36.47,0
35.00,36.47,0
38.00,36.47,0
35.00,36.48,0
38.00,36.48,0
35.00,36.48,0
38.00,36.48,0
35.00,36.48,0
38.00,36.49,0
35.00,36.49,0
38.00,36.49,0
35.00,36.49,0
38.00,36.49,0
35.00,36.50,0
38.00,36.50,0
35.00,36.50,0
38.00,36.50,0
36.00,36.51,0
36.00,36.51,0
37.00,36.51,0
36.00,36.51,0
36.00,36.50,0
36.00,36.47,0
37.00,36.45,0
35.00,36.42,0
37.00,36.39,0
34.00,36.34,0
38.00,36.28,0
36.00,36.25,0
38.00,36.25,0
35.00,36.26,0
38.00,36.28,0
35.00,36.30,0
38.00,36.33,0
35.00,36.35,0
38.00,36.37,0
35.00,36.40,0
38.00,36.41,0
35.00,36.43,0
38.00,36.45,0
35.00,36.46,0
38.00,36.47,0
36.00,36.49,0
39.00,36.53,0
34.00,36.58,0
37.00,36.59,0
35.00,36.57,0
37.00,36.54,0
36.00,36.51,0
36.00,36.48,0
36.00,36.43,0
36.00,36.39,0
37.00,36.35,0
37.00,36.33,0
36.00,36.33,0
36.00,36.33,0
37.00,36.33,0
36.00,36.33,0
38.00,36.35,0
36.00,36.38,0
37.00,36.42,0
35.00,36.44,0
38.00,36.45,0
35.00,36.46,0
38.00,36.47,0
34.00,36.47,0
39.00,36.46,0
35.00,36.47,0
38.00,36.48,0
35.00,36.49,0
39.00,36.51,0
35.00,36.53,0
39.00,36.57,0
35.00,36.61,0
38.00,36.65,0
35.00,36.67,0
38.00,36.68,0
34.00,36.68,0
37.00,36.64,0
36.00,36.60,0
36.00,36.55,0
36.00,36.50,0
37.00,36.45,0
36.00,36.41,0
36.00,36.38,0
36.00,36.34,0
36.00,36.30,0
38.00,36.28,0
36.00,36.28,0
37.00,36.30,0
34.00,36.31,0
38.00,36.29,0
35.00,36.28,0
39.00,36.29,0
34.00,36.31,0
38.00,36.32,0
35.00,36.33,0
40.00,36.36,0
34.00,36.41,0
39.00,36.46,0
34.00,36.50,0
39.00,36.53,0
35.00,36.56,0
38.00,36.59,0
35.00,36.61,0
38.00,36.62,0
36.00,36.63,0
37.00,36.65,0
36.00,36.65,0
37.00,36.65,0
36.00,36.64,0
37.00,36.64,0
37.00,36.63,0
36.00,36.63,0
38.00,36.64,0
35.00,36.65,0
38.00,36.65,0
36.00,36.65,0
39.00,36.67,0
37.00,36.73,0
38.00,36.80,0
35.00,36.86,0
40.00,36.92,0
34.00,36.97,0
40.00,37.01,0
34.00,37.04,0
40.00,37.06,0
34.00,37.07,0
39.00,37.07,0
34.00,37.05,0
40.00,37.03,0
35.00,37.02,0
39.00,37.02,0
35.00,37.02,0
38.00,37.01,0
35.00,36.98,0
38.00,36.95,0
36.00,36.92,0
37.00,36.89,0
36.00,36.85,0
37.00,36.81,0
36.00,36.77,0
36.00,36.72,0
37.00,36.67,0
35.00,36.62,0
39.00,36.57,0
36.00,36.56,0
38.00,36.58,0
34.00,36.59,0
38.00,36.57,0
35.00,36.55,0
39.00,36.54,0
34.00,36.54,0
39.00,36.54,0
34.00,36.54,0
39.00,36.54,0
34.00,36.53,0
39.00,36.53,0
34.00,36.52,0
40.00,36.53,0
35.00,36.56,0
39.00,36.60,0
34.00,36.64,0
38.00,36.66,0
35.00,36.65,0
38.00,36.65,0
35.00,36.64,0
37.00,36.62,0
36.00,36.59,0
37.00,36.57,0
36.00,36.55,0
37.00,36.53,0
37.00,36.52,0
35.00,36.52,0
39.00,36.51,0
35.00,36.53,0
37.00,36.54,0
36.00,36.53,0
38.00,36.54,0
34.00,36.54,0
38.00,36.52,0
34.00,36.50,0
40.00,36.47,0
34.00,36.47,0
40.00,36.49,0
33.00,36.51,0
40.00,36.53,0
34.00,36.55,0
39.00,36.57,0
34.00,36.59,0
39.00,36.59,0
35.00,36.60,0
38.00,36.62,0
35.00,36.62,0
38.00,36.62,0
36.00,36.63,0
36.00,36.63,0
35.00,36.60,0
36.00,36.54,0
36.00,36.47,0
37.00,36.41,0
37.00,36.37,0
36.00,36.36,0
37.00,36.35,0
35.00,36.34,0
38.00,36.33,0
35.00,36.33,0
38.00,36.34,0
35.00,36.35,0
40.00,36.37,0
34.00,36.42,0
40.00,36.48,0
34.00,36.54,0
40.00,36.60,0
33.00,36.65,0
41.00,36.70,0
34.00,36.75,0
39.00,36.79,0
34.00,36.82,0
39.00,36.83,0
34.00,36.82,0
38.00,36.80,0
34.00,36.76,0
38.00,36.70,0
35.00,36.64,0
37.00,36.58,0
36.00,36.53,0
37.00,36.49,0
36.00,36.45,0
37.00,36.43,0
36.00,36.42,0
36.00,36.40,0
38.00,36.39,0
35.00,36.40,0
38.00,36.40,0
36.00,36.42,0
38.00,36.45,0
35.00,36.49,0
39.00,36.52,0
34.00,36.55,0
39.00,36.58,0
33.00,36.59,0
40.00,36.58,0
34.00,36.58,0
40.00,36.60,0
34.00,36.62,0
38.00,36.64,0
34.00,36.63,0
40.00,36.61,0
34.00,36.62,0
39.00,36.63,0
35.00,36.64,0
38.00,36.65,0
34.00,36.64,0
38.00,36.62,0
35.00,36.59,0
37.00,36.55,0
36.00,36.51,0
38.00,36.50,0
37.00,36.51,0
35.00,36.52,0
37.00,36.52,0
35.00,36.49,0
39.00,36.48,0
35.00,36.48,0
38.00,36.50,0
35.00,36.51,0
39.00,36.52,0
35.00,36.55,0
40.00,36.59,0
32.00,36.63,0
40.00,36.64,0
34.00,36.64,0
40.00,36.66,0
34.00,36.68,0
40.00,36.70,0
35.00,36.74,0
38.00,36.78,0
34.00,36.79,0
38.00,36.77,0
35.00,36.74,0
40.00,36.73,0
35.00,36.74,0
38.00,36.76,0
36.00,36.78,0
36.00,36.78,0
36.00,36.75,0
37.00,36.72,0
36.00,36.68,0
36.00,36.64,0
38.00,36.61,0
35.00,36.59,0
37.00,36.56,0
36.00,36.53,0
38.00,36.51,0
35.00,36.51,0
39.00,36.51,0
34.00,36.52,0
38.00,36.52,0
35.00,36.51,0
39.00,36.51,0
33.00,36.51,0
39.00,36.50,0
34.00,36.48,0
39.00,36.46,0
35.00,36.46,0
39.00,36.48,0
34.00,36.50,0
39.00,36.51,0
35.00,36.53,0
39.00,36.57,0
35.00,36.60,0
37.00,36.63,0
35.00,36.63,0
36.00,36.60,0
36.00,36.55,0
36.00,36.49,0
36.00,36.43,0
36.00,36.37,0
37.00,36.32,0
35.00,36.28,0
37.00,36.24,0
35.00,36.20,0
38.00,36.17,0
36.00,36.17,0
39.00,36.21,0
35.00,36.27,0
38.00,36.33,0
34.00,36.38,0
39.00,36.41,0
35.00,36.44,0
39.00,36.48,0
34.00,36.53,0
39.00,36.56,0
34.00,36.58,0
38.00,36.59,0
35.00,36.58,0
39.00,36.58,0
35.00,36.59,0
37.00,36.60,0
36.00,36.60,0
38.00,36.60,0
36.00,36.61,0
36.00,36.62,0
36.00,36.60,0
37.00,36.58,0
36.00,36.56,0
36.00,36.53,0
37.00,36.50,0
36.00,36.48,0
37.00,36.47,0
36.00,36.46,0
37.00,36.45,0
35.00,36.44,0
38.00,36.42,0
35.00,36.41,0
38.00,36.41,0
35.00,36.41,0
38.00,36.41,0
34.00,36.41,0
38.00,36.39,0
34.00,36.37,0
40.00,36.35,0
35.00,36.37,0
38.00,36.41,0
34.00,36.43,0
38.00,36.43,0
35.00,36.43,0
38.00,36.42,0
36.00,36.43,0
37.00,36.45,0
36.00,36.47,0
36.00,36.47,0
36.00,36.46,0
36.00,36.44,0
37.00,36.41,0
36.00,36.39,0
36.00,36.38,0
35.00,36.34,0
38.00,36.31,0
36.00,36.29,0
39.00,36.31,0
36.00,36.37,0
38.00,36.44,0
34.00,36.50,0
39.00,36.53,0
35.00,36.57,0
39.00,36.61,0
35.00,36.65,0
39.00,36.69,0
35.00,36.74,0
38.00,36.77,0
35.00,36.79,0
38.00,36.79,0
35.00,36.78,0
38.00,36.77,0
34.00,36.74,0
38.00,36.70,0
35.00,36.65,0
38.00,36.60,0
36.00,36.58,0
37.00,36.56,0
36.00,36.55,0
35.00,36.52,0
35.00,36.46,0
36.00,36.37,0
36.00,36.28,0
36.00,36.20,0
37.00,36.15,0
36.00,36.12,0
38.00,36.11,0
35.00,36.13,0
39.00,36.17,0
36.00,36.23,0
37.00,36.30,0
34.00,36.35,0
38.00,36.36,0
34.00,36.36,0
38.00,36.35,0
34.00,36.33,0
39.00,36.31,0
34.00,36.30,0
39.00,36.30,0
35.00,36.32,0
39.00,36.35,0
35.00,36.40,0
38.00,36.45,0
35.00,36.49,0
37.00,36.51,0
36.00,36.51,0
37.00,36.52,0
36.00,36.52,0
36.00,36.52,0
37.00,36.50,0
36.00,36.49,0
38.00,36.49,0
36.00,36.51,0
38.00,36.54,0
36.00,36.58,0
38.00,36.62,0
35.00,36.66,0
38.00,36.68,0
35.00,36.69,0
38.00,36.69,0
34.00,36.68,0
39.00,36.66,0
34.00,36.63,0
39.00,36.61,0
34.00,36.59,0
40.00,36.58,0
36.00,36.60,0
38.00,36.65,0
35.00,36.69,0
38.00,36.71,0
34.00,36.71,0
39.00,36.70,0
35.00,36.69,0
37.00,36.68,0
36.00,36.65,0
36.00,36.62,0
36.00,36.58,0
37.00,36.53,0
36.00,36.50,0
36.00,36.46,0
38.00,36.44,0
35.00,36.43,0
37.00,36.42,0
35.00,36.39,0
38.00,36.37,0
35.00,36.36,0
39.00,36.36,0
35.00,36.38,0
40.00,36.43,0
34.00,36.49,0
39.00,36.55,0
34.00,36.59,0
39.00,36.62,0
35.00,36.64,0
39.00,36.68,0
34.00,36.70,0
38.00,36.71,0
34.00,36.69,0
39.00,36.66,0
34.00,36.63,0
38.00,36.60,0
35.00,36.56,0
37.00,36.52,0
36.00,36.48,0
36.00,36.45,0
36.00,36.40,0
37.00,36.37,0
36.00,36.34,0
36.00,36.32,0
37.00,36.30,0
35.00,36.29,0
38.00,36.27,0
35.00,36.27,0
39.00,36.29,0
34.00,36.31,0
38.00,36.33,0
34.00,36.33,0
38.00,36.32,0
34.00,36.31,0
40.00,36.30,0
34.00,36.32,0
40.00,36.35,0
35.00,36.41,0
39.00,36.48,0
34.00,36.54,0
40.00,36.60,0
34.00,36.65,0
39.00,36.70,0
34.00,36.73,0
38.00,36.73,0
35.00,36.72,0
37.00,36.69,0
34.00,36.64,0
36.00,36.56,0
36.00,36.46,0
36.00,36.37,0
37.00,36.30,0
36.00,36.25,0
37.00,36.22,0
36.00,36.21,0
38.00,36.22,0
35.00,36.24,0
38.00,36.27,0
35.00,36.30,0
39.00,36.33,0
35.00,36.38,0
39.00,36.44,0
34.00,36.50,0
40.00,36.55,0
33.00,36.59,0
40.00,36.62,0
33.00,36.64,0
40.00,36.65,0
34.00,36.66,0
39.00,36.67,0
34.00,36.68,0
40.00,36.68,0
34.00,36.70,0
38.00,36.70,0
34.00,36.68,0
38.00,36.64,0
36.00,36.61,0
37.00,36.59,0
36.00,36.57,0
36.00,36.55,0
36.00,36.51,0
37.00,36.47,0
37.00,36.45,0
36.00,36.45,0
38.00,36.46,0
35.00,36.47,0
38.00,36.48,0
35.00,36.49,0
39.00,36.51,0
35.00,36.54,0
40.00,36.58,0
34.00,36.64,0
39.00,36.69,0
34.00,36.72,0
41.00,36.75,0
34.00,36.80,0
40.00,36.85,0
33.00,36.88,0
40.00,36.90,0
33.00,36.90,0
39.00,36.87,0
34.00,36.84,0
39.00,36.80,0
34.00,36.76,0
38.00,36.71,0
34.00,36.65,0
37.00,36.57,0
35.00,36.49,0
38.00,36.42,0
36.00,36.37,0
36.00,36.35,0
36.00,36.31,0
36.00,36.28,0
37.00,36.25,0
34.00,36.22,0
37.00,36.17,0
34.00,36.11,0
39.00,36.07,0
34.00,36.05,0
39.00,36.04,0
34.00,36.06,0
40.00,36.09,0
34.00,36.15,0
40.00,36.22,0
33.00,36.29,0
41.00,36.36,0
32.00,36.42,0
41.00,36.48,0
34.00,36.53,0
40.00,36.60,0
34.00,36.66,0
39.00,36.72,0
33.00,36.74,0
40.00,36.74,0
34.00,36.74,0
37.00,36.73,0
35.00,36.68,0
38.00,36.64,0
36.00,36.60,0
36.00,36.58,0
36.00,36.54,0
36.00,36.49,0
38.00,36.45,0
35.00,36.43,0
37.00,36.41,0
36.00,36.39,0
39.00,36.40,0
34.00,36.42,0
40.00,36.45,0
34.00,36.49,0
40.00,36.54,0
33.00,36.58,0
40.00,36.61,0
34.00,36.64,0
41.00,36.68,0
33.00,36.73,0
40.00,36.77,0
34.00,36.80,0
39.00,36.82,0
33.00,36.81,0
39.00,36.78,0
34.00,36.74,0
38.00,36.70,0
35.00,36.65,0
36.00,36.59,0
36.00,36.51,0
36.00,36.44,0
36.00,36.37,0
36.00,36.30,0
37.00,36.25,0
35.00,36.21,0
39.00,36.19,0
34.00,36.20,0
39.00,36.21,0
33.00,36.22,0
39.00,36.22,0
34.00,36.22,0
40.00,36.24,0
33.00,36.27,0
41.00,36.31,0
33.00,36.37,0
41.00,36.43,0
32.00,36.48,0
41.00,36.53,0
34.00,36.58,0
40.00,36.64,0
33.00,36.69,0
40.00,36.72,0
34.00,36.74,0
38.00,36.75,0
33.00,36.73,0
39.00,36.68,0
34.00,36.62,0
37.00,36.56,0
35.00,36.49,0
37.00,36.42,0
36.00,36.36,0
37.00,36.32,0
38.00,36.31,0
34.00,36.32,0
38.00,36.31,0
34.00,36.30,0
38.00,36.28,0
35.00,36.26,0
40.00,36.27,0
34.00,36.32,0
41.00,36.38,0
33.00,36.45,0
42.00,36.54,0
33.00,36.63,0
43.00,36.74,0
35.00,36.89,0
42.00,37.05,0
33.00,37.21,0
42.00,37.35,0
33.00,37.45,0
41.00,37.52,0
33.00,37.56,0
44.00,37.60,0
33.00,37.65,0
39.00,37.68,0
34.00,37.66,0
40.00,37.61,0
35.00,37.56,0
38.00,37.50,0
35.00,37.43,0
37.00,37.33,0
36.00,37.22,0
36.00,37.11,0
37.00,36.99,0
35.00,36.88,0
40.00,36.79,0
34.00,36.74,0
40.00,36.71,0
34.00,36.69,0
39.00,36.68,0
34.00,36.67,0
40.00,36.66,0
33.00,36.66,0
42.00,36.67,0
32.00,36.70,0
43.00,36.73,0
33.00,36.80,0
42.00,36.88,0
32.00,36.95,0
43.00,37.01,0
32.00,37.08,0
42.00,37.13,0
34.00,37.19,0
41.00,37.25,0
32.00,37.29,0
41.00,37.29,0
34.00,37.28,0
38.00,37.26,0
38.00,37.23,0
39.00,37.24,0
35.00,37.27,0
36.00,37.26,0
36.00,37.20,0
34.00,37.09,0
38.00,36.96,0
34.00,36.83,0
39.00,36.72,0
35.00,36.63,0
40.00,36.58,0
33.00,36.56,0
41.00,36.55,0
33.00,36.55,0
42.00,36.58,0
32.00,36.63,0
41.00,36.66,0
32.00,36.69,0
42.00,36.71,0
32.00,36.73,0
43.00,36.77,0
32.00,36.82,0
42.00,36.87,0
32.00,36.92,0
39.00,36.93,0
33.00,36.90,0
39.00,36.85,0
33.00,36.78,0
40.00,36.71,0
35.00,36.66,0
37.00,36.63,0
36.00,36.60,0
37.00,36.57,0
37.00,36.55,0
35.00,36.54,0
38.00,36.52,0
35.00,36.50,0
40.00,36.51,0
34.00,36.53,0
39.00,36.56,0
33.00,36.57,0
42.00,36.59,0
32.00,36.62,0
41.00,36.65,0
32.00,36.67,0
42.00,36.68,0
32.00,36.70,0
43.00,36.74,0
31.00,36.78,0
42.00,36.81,0
32.00,36.84,0
42.00,36.86,0
33.00,36.89,0
40.00,36.92,0
32.00,36.91,0
40.00,36.88,0
33.00,36.84,0
38.00,36.77,0
34.00,36.69,0
38.00,36.61,0
34.00,36.52,0
36.00,36.43,0
36.00,36.32,0
35.00,36.22,0
38.00,36.14,0
36.00,36.10,0
39.00,36.10,0
35.00,36.14,0
40.00,36.21,0
33.00,36.29,0
41.00,36.37,0
33.00,36.44,0
43.00,36.54,0
32.00,36.65,0
44.00,36.77,0
31.00,36.89,0
42.00,36.99,0
31.00,37.05,0
43.00,37.08,0
33.00,37.12,0
43.00,37.18,0
32.00,37.25,0
43.00,37.30,0
31.00,37.35,0
42.00,37.36,0
32.00,37.35,0
41.00,37.32,0
33.00,37.28,0
38.00,37.21,0
34.00,37.11,0
38.00,37.00,0
36.00,36.90,0
37.00,36.82,0
37.00,36.76,0
37.00,36.72,0
37.00,36.69,0
34.00,36.66,0
39.00,36.62,0
34.00,36.58,0
39.00,36.55,0
35.00,36.53,0
40.00,36.54,0
32.00,36.55,0
43.00,36.57,0
32.00,36.62,0
41.00,36.66,0
32.00,36.69,0
42.00,36.72,0
31.00,36.74,0
44.00,36.76,0
32.00,36.81,0
42.00,36.87,0
33.00,36.93,0
43.00,37.00,0
32.00,37.08,0
43.00,37.16,0
32.00,37.23,0
40.00,37.26,0
32.00,37.25,0
39.00,37.19,0
34.00,37.10,0
38.00,37.01,0
34.00,36.90,0
37.00,36.79,0
35.00,36.66,0
36.00,36.54,0
38.00,36.44,0
36.00,36.38,0
40.00,36.37,0
34.00,36.40,0
39.00,36.43,0
33.00,36.46,0
42.00,36.48,0
34.00,36.54,0
40.00,36.62,0
32.00,36.68,0
44.00,36.73,0
32.00,36.81,0
48.00,36.95,0
31.00,37.14,0
44.00,37.34,0
31.00,37.49,0
45.00,37.62,0
32.00,37.73,0
42.00,37.82,0
32.00,37.86,0
40.00,37.84,0
34.00,37.79,0
41.00,37.73,0
32.00,37.66,0
40.00,37.56,0
36.00,37.47,0
40.00,37.41,0
34.00,37.37,0
38.00,37.32,0
35.00,37.24,0
34.00,37.12,0
37.00,36.96,0
34.00,36.79,0
38.00,36.63,0
35.00,36.49,0
40.00,36.41,0
33.00,36.36,0
43.00,36.35,0
34.00,36.41,0
42.00,36.52,0
32.00,36.63,0
45.00,36.75,0
31.00,36.90,0
46.00,37.05,0
32.00,37.22,0
44.00,37.39,0
31.00,37.54,0
44.00,37.64,0
31.00,37.72,0
48.00,37.81,0
32.00,37.93,0
46.00,38.08,0
33.00,38.24,0
44.00,38.38,0
32.00,38.48,0
40.00,38.51,0
34.00,38.46,0
38.00,38.36,0
35.00,38.22,0
36.00,38.04,0
35.00,37.81,0
36.00,37.57,0
37.00,37.33,0
34.00,37.11,0
39.00,36.90,0
32.00,36.71,0
41.00,36.54,0
33.00,36.43,0
41.00,36.35,0
33.00,36.32,0
44.00,36.34,0
30.00,36.41,0
44.00,36.47,0
32.00,36.56,0
46.00,36.69,0
31.00,36.85,0
47.00,37.04,0
31.00,37.25,0
46.00,37.46,0
31.00,37.65,0
49.00,37.85,0
32.00,38.08,0
42.00,38.28,0
31.00,38.38,0
42.00,38.39,0
33.00,38.36,0
42.00,38.30,0
33.00,38.23,0
38.00,38.12,0
35.00,37.97,0
35.00,37.78,0
37.00,37.56,0
37.00,37.36,0
38.00,37.20,0
35.00,37.07,0
41.00,36.98,0
34.00,36.94,0
40.00,36.92,0
32.00,36.89,0
40.00,36.84,0
32.00,36.77,0
42.00,36.71,0
31.00,36.66,0
46.00,36.66,0
31.00,36.72,0
47.00,36.83,0
31.00,36.98,0
46.00,37.16,0
31.00,37.34,0
45.00,37.51,0
31.00,37.65,0
47.00,37.79,0
31.00,37.93,0
44.00,38.05,0
32.00,38.13,0
39.00,38.15,0
33.00,38.08,0
43.00,37.99,0
34.00,37.93,0
38.00,37.87,0
37.00,37.78,0
37.00,37.70,0
37.00,37.61,0
36.00,37.52,0
39.00,37.43,0
33.00,37.34,0
43.00,37.26,0
32.00,37.21,0
42.00,37.18,0
33.00,37.16,0
43.00,37.16,0
32.00,37.18,0
49.00,37.26,0
31.00,37.42,0
47.00,37.60,0
32.00,37.80,0
47.00,38.01,0
31.00,38.20,0
48.00,38.39,0
32.00,38.57,0
46.00,38.75,0
31.00,38.88,0
45.00,38.95,0
31.00,38.98,0
42.00,38.95,0
31.00,38.84,0
41.00,38.67,0
33.00,38.47,0
44.00,38.30,0
36.00,38.19,0
39.00,38.13,0
35.00,38.06,0
34.00,37.93,0
39.00,37.75,0
32.00,37.55,0
39.00,37.34,0
35.00,37.14,0
44.00,37.02,0
32.00,36.99,0
43.00,36.99,0
32.00,37.01,0
42.00,37.03,0
32.00,37.05,0
48.00,37.11,0
31.00,37.24,0
50.00,37.43,0
31.00,37.68,0
50.00,37.96,0
32.00,38.27,0
45.00,38.55,0
31.00,38.75,0
46.00,38.89,0
32.00,38.99,0
42.00,39.03,0
32.00,39.00,0
45.00,38.93,0
33.00,38.88,0
42.00,38.81,0
34.00,38.73,0
38.00,38.61,0
35.00,38.44,0
38.00,38.25,0
35.00,38.04,0
35.00,37.81,0
38.00,37.57,0
33.00,37.33,0
44.00,37.14,0
31.00,37.02,0
42.00,36.93,0
30.00,36.84,0
44.00,36.76,0
32.00,36.72,0
45.00,36.75,0
31.00,36.81,0
46.00,36.91,0
31.00,37.04,0
52.00,37.24,0
30.00,37.52,0
55.00,37.87,0
31.00,38.30,0
52.00,38.76,0
32.00,39.20,0
46.00,39.58,0
31.00,39.85,0
44.00,39.98,0
31.00,40.01,0
41.00,39.92,0
32.00,39.73,0
42.00,39.49,0
32.00,39.22,0
40.00,38.93,0
34.00,38.63,0
38.00,38.33,0
37.00,38.05,0
41.00,37.84,0
36.00,37.71,0
34.00,37.59,0
42.00,37.45,0
33.00,37.36,0
41.00,37.29,0
33.00,37.22,0
44.00,37.19,0
31.00,37.19,0
45.00,37.21,0
31.00,37.25,0
52.00,37.37,0
31.00,37.59,0
52.00,37.89,0
32.00,38.24,0
47.00,38.59,0
32.00,38.89,0
48.00,39.14,0
30.00,39.35,0
50.00,39.51,0
30.00,39.65,0
48.00,39.75,0
31.00,39.81,0
45.00,39.82,0
31.00,39.77,0
46.00,39.68,0
32.00,39.58,0
41.00,39.44,0
31.00,39.24,0
36.00,38.93,0
34.00,38.54,0
40.00,38.16,0
39.00,37.88,0
32.00,37.65,0
42.00,37.43,0
33.00,37.26,0
46.00,37.17,0
33.00,37.17,0
46.00,37.26,0
32.00,37.39,0
46.00,37.54,0
33.00,37.71,0
51.00,37.94,0
32.00,38.25,0
49.00,38.57,0
31.00,38.87,0
50.00,39.14,0
32.00,39.40,0
53.00,39.68,0
31.00,39.97,0
51.00,40.25,0
32.00,40.49,0
46.00,40.67,0
32.00,40.74,0
46.00,40.75,0
32.00,40.69,0
45.00,40.59,0
32.00,40.44,0
36.00,40.18,0
33.00,39.80,0
39.00,39.35,0
35.00,38.92,0
38.00,38.52,0
36.00,38.16,0
33.00,37.80,0
45.00,37.50,0
36.00,37.34,0
48.00,37.35,0
31.00,37.47,0
43.00,37.58,0
32.00,37.66,0
45.00,37.73,0
31.00,37.80,0
50.00,37.90,0
33.00,38.08,0
52.00,38.35,0
32.00,38.68,0
55.00,39.07,0
33.00,39.52,0
55.00,40.01,0
32.00,40.50,0
51.00,40.94,0
31.00,41.29,0
49.00,41.53,0
31.00,41.66,0
46.00,41.68,0
31.00,41.58,0
40.00,41.36,0
31.00,41.00,0
40.00,40.54,0
32.00,40.04,0
39.00,39.51,0
34.00,38.99,0
34.00,38.48,0
37.00,37.96,0
33.00,37.48,0
42.00,37.08,0
31.00,36.77,0
43.00,36.53,0
32.00,36.37,0
44.00,36.30,0
31.00,36.29,0
50.00,36.38,0
32.00,36.59,0
54.00,36.93,0
37.00,37.43,0
53.00,38.08,0
32.00,38.75,0
50.00,39.37,0
36.00,39.92,0
56.00,40.49,0
31.00,41.07,0
45.00,41.50,0
32.00,41.72,0
44.00,41.76,0
32.00,41.67,0
42.00,41.47,0
31.00,41.15,0
46.00,40.79,0
31.00,40.45,0
34.00,40.01,0
36.00,39.48,0
33.00,38.92,0
39.00,38.37,0
34.00,37.88,0
43.00,37.50,0
33.00,37.23,0
47.00,37.09,0
31.00,37.06,0
49.00,37.12,0
32.00,37.27,0
48.00,37.48,0
34.00,37.74,0
52.00,38.07,0
38.00,38.52,0
53.00,39.09,0
36.00,39.72,0
56.00,40.38,0
32.00,41.03,0
52.00,41.60,0
35.00,42.06,0
49.00,42.44,0
32.00,42.69,0
51.00,42.82,0
31.00,42.87,0
45.00,42.79,0
31.00,42.58,0
44.00,42.26,0
31.00,41.85,0
40.00,41.37,0
32.00,40.82,0
36.00,40.21,0
36.00,39.58,0
34.00,38.96,0
44.00,38.42,0
31.00,38.01,0
42.00,37.66,0
31.00,37.36,0
50.00,37.17,0
31.00,37.13,0
51.00,37.22,0
32.00,37.43,0
49.00,37.70,0
31.00,37.99,0
57.00,38.34,0
32.00,38.80,0
58.00,39.35,0
39.00,40.01,0
58.00,40.80,0
38.00,41.64,0
61.00,42.52,0
37.00,43.40,0
53.00,44.20,0
34.00,44.80,0
52.00,45.21,0
33.00,45.44,0
49.00,45.50,0
31.00,45.37,0
44.00,45.06,0
32.00,44.57,0
43.00,43.98,0
31.00,43.31,0
40.00,42.57,0
36.00,41.81,0
34.00,41.06,0
42.00,40.34,0
34.00,39.71,0
42.00,39.18,0
32.00,38.72,0
50.00,38.38,0
32.00,38.21,0
47.00,38.14,0
33.00,38.15,0
49.00,38.23,0
34.00,38.39,0
60.00,38.70,0
39.00,39.26,0
62.00,40.04,0
46.00,41.04,0
67.00,42.27,0
35.00,43.58,0
53.00,44.71,0
38.00,45.56,0
58.00,46.25,0
37.00,46.83,0
54.00,47.26,0
32.00,47.48,0
56.00,47.52,0
32.00,47.43,0
49.00,47.20,0
32.00,46.79,0
36.00,46.17,0
32.00,45.30,0
38.00,44.28,0
35.00,43.22,0
36.00,42.18,0
42.00,41.22,0
33.00,40.40,0
47.00,39.72,0
33.00,39.21,0
42.00,38.81,0
34.00,38.47,0
54.00,38.29,0
33.00,38.34,0
61.00,38.61,0
43.00,39.17,0
64.00,40.05,0
38.00,41.12,0
68.00,42.30,0
42.00,43.58,0
80.00,45.03,0
44.00,46.67,0
63.00,48.29,0
38.00,49.64,0
60.00,50.67,0
39.00,51.41,0
62.00,51.92,0
40.00,52.27,0
58.00,52.46,0
36.00,52.45,0
40.00,52.12,0
32.00,51.37,0
44.00,50.33,0
34.00,49.15,0
31.00,47.81,0
40.00,46.33,0
33.00,44.87,0
41.00,43.49,0
36.00,42.25,0
45.00,41.22,0
31.00,40.37,0
53.00,39.71,0
38.00,39.35,0
56.00,39.30,0
37.00,39.51,0
71.00,40.03,0
35.00,40.87,0
57.00,41.79,0
54.00,42.79,0
63.00,44.02,0
48.00,45.38,0
70.00,46.81,0
39.00,48.22,0
66.00,49.47,0
43.00,50.55,0
68.00,51.52,0
40.00,52.36,0
66.00,53.04,0
34.00,53.51,0
46.00,53.58,0
36.00,53.20,0
44.00,52.49,0
32.00,51.51,0
39.00,50.27,0
37.00,48.88,0
36.00,47.44,0
38.00,45.99,0
34.00,44.57,0
46.00,43.28,0
31.00,42.16,0
52.00,41.24,0
32.00,40.56,0
62.00,40.17,0
32.00,40.10,0
68.00,40.33,0
40.00,40.90,0
70.00,41.77,0
46.00,42.93,0
71.00,44.32,0
55.00,45.92,0
85.00,47.81,0
49.00,49.94,0
68.00,51.97,0
42.00,53.68,0
94.00,55.23,0
46.00,56.87,0
58.00,58.25,0
37.00,59.02,0
52.00,59.18,0
39.00,58.82,0
55.00,58.14,0
41.00,57.28,0
51.00,56.28,0
31.00,55.10,0
40.00,53.65,0
37.00,51.99,0
31.00,50.22,0
46.00,48.40,0
31.00,46.70,0
52.00,45.18,0
35.00,43.94,0
44.00,42.92,0
36.00,42.04,0
72.00,41.53,0
35.00,41.54,0
68.00,41.92,0
49.00,42.64,0
80.00,43.82,0
62.00,45.52,0
79.00,47.65,0
66.00,50.06,0
71.00,52.57,0
54.00,54.91,0
75.00,56.97,0
57.00,58.81,0
63.00,60.35,0
38.00,61.34,0
72.00,61.82,0
39.00,61.96,0
42.00,61.60,0
33.00,60.58,0
54.00,59.13,0
35.00,57.54,0
52.00,55.88,0
41.00,54.26,0
32.00,52.61,0
38.00,50.80,0
31.00,48.89,0
47.00,47.04,0
32.00,45.38,0
53.00,43.97,0
42.00,42.93,0
56.00,42.32,0
56.00,42.19,0
61.00,42.59,0
42.00,43.31,0
81.00,44.29,0
62.00,45.77,0
91.00,47.84,0
58.00,50.33,0
87.00,52.98,0
43.00,55.52,0
86.00,57.76,0
55.00,59.78,0
72.00,61.55,0
46.00,62.89,0
74.00,63.79,0
32.00,64.23,0
57.00,64.06,0
39.00,63.34,0
57.00,62.30,0
31.00,60.96,0
48.00,59.32,0
33.00,57.43,0
38.00,55.34,0
43.00,53.19,0
31.00,51.07,0
49.00,49.05,0
34.00,47.24,0
60.00,45.76,0
33.00,44.68,0
48.00,43.81,0
58.00,43.25,0
72.00,43.35,0
35.00,43.95,0
73.00,44.74,0
52.00,45.79,0
72.00,47.12,0
65.00,48.73,0
102.00,50.85,0
68.00,53.57,0
89.00,56.57,0
57.00,59.49,0
75.00,62.03,0
62.00,64.14,0
73.00,65.87,0
51.00,67.14,0
71.00,67.92,0
37.00,68.17,0
72.00,67.88,0
52.00,67.35,0
57.00,66.65,0
32.00,65.54,0
42.00,63.87,0
33.00,61.71,0
40.00,59.24,0
42.00,56.69,0
36.00,54.20,0
53.00,51.89,0
34.00,49.88,0
70.00,48.28,0
48.00,47.30,0
62.00,46.87,0
54.00,46.87,0
77.00,47.35,0
54.00,48.33,0
69.00,49.57,0
54.00,50.91,0
92.00,52.46,0
57.00,54.35,0
82.00,56.36,0
60.00,58.34,0
69.00,60.16,0
62.00,61.71,0
80.00,63.09,0
52.00,64.33,0
72.00,65.25,0
55.00,65.88,0
58.00,66.15,0
38.00,65.90,0
50.00,65.04,0
33.00,63.66,0
38.00,61.76,0
36.00,59.48,0
35.00,56.97,0
38.00,54.37,0
34.00,51.80,0
40.00,49.33,0
46.00,47.15,0
50.00,45.44,0
36.00,44.14,0
60.00,43.20,0
47.00,42.73,0
66.00,42.79,0
43.00,43.26,0
71.00,44.03,0
63.00,45.21,0
102.00,47.08,0
58.00,49.63,0
89.00,52.47,0
51.00,55.26,0
78.00,57.78,0
55.00,59.95,0
78.00,61.82,0
52.00,63.36,0
71.00,64.54,0
40.00,65.23,0
62.00,65.36,0
48.00,65.06,0
51.00,64.40,0
38.00,63.32,0
61.00,61.97,0
31.00,60.47,0
38.00,58.66,0
32.00,56.50,0
34.00,54.11,0
54.00,51.77,0
32.00,49.73,0
54.00,47.95,0
34.00,46.45,0
63.00,45.31,0
36.00,44.56,0
60.00,44.13,0
45.00,44.01,0
84.00,44.40,0
54.00,45.44,0
75.00,46.93,0
47.00,48.58,0
97.00,50.43,0
63.00,52.68,0
86.00,55.20,0
60.00,57.74,0
75.00,60.08,0
61.00,62.11,0
85.00,63.93,0
56.00,65.57,0
58.00,66.76,0
41.00,67.22,0
60.00,66.99,0
43.00,66.29,0
50.00,65.18,0
33.00,63.63,0
40.00,61.64,0
38.00,59.34,0
37.00,56.89,0
39.00,54.39,0
31.00,51.90,0
58.00,49.61,0
33.00,47.71,0
49.00,46.12,0
34.00,44.75,0
55.00,43.65,0
43.00,42.92,0
70.00,42.69,0
55.00,43.07,0
74.00,44.04,0
48.00,45.39,0
73.00,46.92,0
55.00,48.59,0
98.00,50.58,0
52.00,52.92,0
86.00,55.33,0
63.00,57.70,0
68.00,59.91,0
39.00,61.57,0
68.00,62.57,0
45.00,63.07,0
60.00,63.18,0
43.00,62.88,0
52.00,62.22,0
34.00,61.16,0
40.00,59.65,0
32.00,57.74,0
40.00,55.57,0
32.00,53.27,0
32.00,50.89,0
42.00,48.54,0
31.00,46.36,0
47.00,44.43,0
32.00,42.78,0
54.00,41.48,0
33.00,40.55,0
50.00,39.92,0
39.00,39.53,0
64.00,39.53,0
31.00,39.86,0
86.00,40.54,0
50.00,41.82,0
75.00,43.57,0
58.00,45.59,0
78.00,47.85,0
58.00,50.24,0
85.00,52.70,0
42.00,55.07,0
64.00,56.97,0
42.00,58.27,0
59.00,59.05,0
41.00,59.34,0
54.00,59.21,0
32.00,58.65,0
44.00,57.61,0
31.00,56.16,0
33.00,54.35,0
50.00,52.39,0
52.00,50.69,0
45.00,49.37,0
36.00,48.21,0
54.00,47.15,0
39.00,46.29,0
65.00,45.74,0
42.00,45.56,0
74.00,45.75,0
43.00,46.32,0
72.00,47.13,0
54.00,48.19,0
77.00,49.52,0
63.00,51.14,0
76.00,52.98,0
47.00,54.79,0
74.00,56.37,0
52.00,57.75,0
81.00,59.03,0
46.00,60.20,0
55.00,60.98,0
34.00,61.13,0
52.00,60.67,0
45.00,59.83,0
60.00,58.88,0
32.00,57.84,0
40.00,56.49,0
37.00,54.83,0
42.00,53.05,0
36.00,51.24,0
35.00,49.41,0
39.00,47.58,0
31.00,45.81,0
50.00,44.19,0
33.00,42.86,0
53.00,41.83,0
32.00,41.08,0
68.00,40.68,0
39.00,40.74,0
65.00,41.18,0
35.00,41.84,0
72.00,42.67,0
50.00,43.78,0
78.00,45.24,0
45.00,46.92,0
74.00,48.66,0
49.00,50.36,0
73.00,52.02,0
48.00,53.57,0
67.00,54.93,0
48.00,56.04,0
77.00,57.02,0
37.00,57.86,0
46.00,58.21,0
51.00,58.04,0
65.00,57.76,0
36.00,57.43,0
42.00,56.75,0
32.00,55.62,0
37.00,54.11,0
31.00,52.30,0
42.00,50.36,0
38.00,48.48,0
31.00,46.69,0
41.00,44.95,0
37.00,43.38,0
46.00,42.08,0
40.00,41.10,0
63.00,40.57,0
39.00,40.52,0
64.00,40.84,0
43.00,41.47,0
58.00,42.30,0
81.00,43.51,0
76.00,45.44,0
56.00,47.80,0
84.00,50.25,0
58.00,52.78,0
67.00,55.16,0
37.00,57.05,0
84.00,58.45,0
42.00,59.63,0
80.00,60.60,0
39.00,61.33,0
64.00,61.68,0
42.00,61.64,0
46.00,61.17,0
33.00,60.17,0
46.00,58.72,0
34.00,56.99,0
37.00,55.04,0
33.00,52.91,0
36.00,50.69,0
36.00,48.49,0
34.00,46.39,0
45.00,44.50,0
31.00,42.86,0
53.00,41.53,0
36.00,40.57,0
66.00,40.08,0
49.00,40.17,0
59.00,40.76,0
48.00,41.64,0
79.00,42.86,0
48.00,44.48,0
80.00,46.35,0
47.00,48.34,0
77.00,50.33,0
59.00,52.33,0
107.00,54.61,0
44.00,57.16,0
70.00,59.40,0
49.00,61.06,0
55.00,62.15,0
54.00,62.68,0
44.00,62.73,0
40.00,62.19,0
48.00,61.15,0
32.00,59.73,0
51.00,58.01,0
31.00,56.15,0
58.00,54.30,0
34.00,52.59,0
65.00,51.13,0
43.00,50.04,0
38.00,49.12,0
89.00,48.52,0
36.00,48.54,0
58.00,48.75,0
39.00,48.88,0
83.00,49.18,0
41.00,49.81,0
75.00,50.64,0
61.00,51.67,0
72.00,52.98,0
62.00,54.43,0
109.00,56.26,0
62.00,58.63,0
76.00,61.05,0
72.00,63.23,0
81.00,65.29,0
59.00,67.11,0
74.00,68.54,0
34.00,69.34,0
47.00,69.22,0
43.00,68.23,0
63.00,66.84,0
31.00,65.23,0
32.00,63.14,0
33.00,60.54,0
48.00,57.76,0
49.00,55.22,0
36.00,52.96,0
40.00,50.83,0
41.00,48.82,0
60.00,47.19,0
42.00,46.07,0
54.00,45.33,0
37.00,44.81,0
66.00,44.54,0
66.00,44.81,0
78.00,45.81,0
37.00,47.20,0
95.00,48.74,0
53.00,50.61,0
90.00,52.77,0
70.00,55.17,0
120.00,58.07,0
82.00,61.60,0
69.00,65.15,0
50.00,67.93,0
76.00,69.83,0
58.00,71.12,0
66.00,71.88,0
44.00,72.01,0
86.00,71.71,0
51.00,71.32,0
40.00,70.55,0
32.00,68.98,0
79.00,67.02,0
35.00,65.18,0
34.00,63.13,0
70.00,60.92,0
40.00,59.00,0
56.00,57.29,0
35.00,55.64,0
66.00,54.14,0
44.00,52.95,0
77.00,52.21,0
45.00,51.92,0
46.00,51.75,0
60.00,51.53,0
81.00,51.71,0
62.00,52.48,0
104.00,53.89,0
64.00,55.95,0
71.00,58.16,0
57.00,60.09,0
101.00,61.94,0
77.00,64.08,0
119.00,66.67,0
52.00,69.46,0
87.00,71.85,0
41.00,73.50,0
56.00,74.18,0
59.00,73.98,0
68.00,73.38,0
46.00,72.48,0
68.00,71.29,0
70.00,70.11,0
52.00,69.04,0
40.00,67.71,0
32.00,65.82,0
38.00,63.39,0
37.00,60.64,0
61.00,57.97,0
62.00,55.86,0
103.00,54.78,0
39.00,54.70,0
62.00,54.84,0
42.00,54.83,0
81.00,54.89,0
75.00,55.42,0
101.00,56.74,0
67.00,58.72,0
108.00,61.12,0
88.00,63.99,0
114.00,67.36,0
65.00,70.84,0
108.00,74.05,0
58.00,76.84,0
95.00,79.06,0
36.00,80.49,0
72.00,80.88,0
43.00,80.34,0
57.00,79.05,0
47.00,77.14,0
65.00,74.92,0
43.00,72.57,0
50.00,70.05,0
37.00,67.31,0
36.00,64.32,0
33.00,61.10,0
37.00,57.79,0
44.00,54.61,0
48.00,51.81,0
68.00,49.69,0
64.00,48.49,0
64.00,48.11,0
54.00,48.27,0
90.00,48.96,0
50.00,50.21,0
88.00,51.79,0
74.00,53.77,0
102.00,56.29,0
91.00,59.39,0
111.00,63.06,0
102.00,67.20,0
94.00,71.50,0
81.00,75.47,0
96.00,78.91,0
75.00,81.79,0
79.00,83.95,0
62.00,85.26,0
104.00,85.97,0
66.00,86.44,0
64.00,86.42,0
52.00,85.58,0
69.00,84.07,0
44.00,82.08,0
42.00,79.50,0
45.00,76.34,0
40.00,72.83,0
68.00,69.35,0
47.00,66.26,0
50.00,63.47,0
42.00,60.82,0
90.00,58.64,0
34.00,57.16,0
102.00,56.29,0
68.00,56.31,0
117.00,57.40,0
62.00,59.34,0
99.00,61.65,0
78.00,64.17,0
103.00,66.91,0
87.00,69.85,0
124.00,73.10,0
43.00,76.27,0
86.00,78.61,0
85.00,80.26,0
97.00,81.78,0
85.00,83.24,0
91.00,84.56,0
67.00,85.52,0
87.00,86.01,0
69.00,86.10,0
70.00,85.77,0
59.00,84.89,0
46.00,83.36,0
36.00,80.99,0
54.00,77.93,0
34.00,74.49,0
46.00,70.80,0
42.00,67.05,0
40.00,63.39,0
59.00,60.01,0
46.00,57.15,0
57.00,54.80,0
43.00,52.88,0
91.00,51.60,0
40.00,51.12,0
86.00,51.19,0
48.00,51.70,0
159.00,53.21,0
75.00,56.23,0
106.00,60.12,0
80.00,64.12,0
124.00,68.28,0
93.00,72.66,0
93.00,76.91,0
82.00,80.58,0
87.00,83.56,0
72.00,85.76,0
58.00,86.99,0
83.00,87.29,0
51.00,86.90,0
53.00,85.70,0
44.00,83.62,0
40.00,80.75,0
87.00,77.64,0
64.00,75.01,0
57.00,72.78,0
37.00,70.46,0
46.00,67.83,0
31.00,64.91,0
43.00,61.80,0
49.00,58.77,0
38.00,56.00,0
71.00,53.66,0
43.00,51.95,0
74.00,50.85,0
38.00,50.22,0
66.00,49.86,0
58.00,49.83,0
68.00,50.23,0
56.00,50.93,0
85.00,51.97,0
62.00,53.41,0
127.00,55.52,0
77.00,58.52,0
91.00,61.94,0
79.00,65.28,0
86.00,68.43,0
73.00,71.24,0
76.00,73.56,0
66.00,75.30,0
89.00,76.59,0
70.00,77.64,0
91.00,78.51,0
77.00,79.29,0
104.00,80.15,0
40.00,80.84,0
49.00,80.62,0
45.00,79.31,0
51.00,77.26,0
33.00,74.64,0
32.00,71.40,0
50.00,67.80,0
35.00,64.21,0
51.00,60.76,0
40.00,57.59,0
36.00,54.67,0
33.00,51.83,0
90.00,49.55,0
56.00,48.40,0
106.00,48.46,0
57.00,49.58,0
86.00,51.32,0
58.00,53.33,0
63.00,55.27,0
59.00,56.94,0
55.00,58.27,0
89.00,59.49,0
90.00,61.11,0
87.00,63.28,0
83.00,65.70,0
91.00,68.21,0
72.00,70.64,0
65.00,72.64,0
70.00,74.00,0
69.00,74.85,0
88.00,75.47,0
39.00,75.79,0
38.00,75.21,0
39.00,73.54,0
45.00,71.18,0
31.00,68.36,0
32.00,65.11,0
38.00,61.59,0
34.00,58.05,0
45.00,54.69,0
43.00,51.71,0
60.00,49.31,0
39.00,47.52,0
79.00,46.39,0
47.00,46.01,0
82.00,46.30,0
39.00,47.06,0
93.00,48.17,0
60.00,49.77,0
91.00,51.86,0
91.00,54.48,0
91.00,57.70,0
88.00,61.22,0
91.00,64.84,0
80.00,68.34,0
90.00,71.55,0
76.00,74.41,0
70.00,76.70,0
76.00,78.31,0
73.00,79.38,0
53.00,79.84,0
38.00,79.34,0
40.00,77.74,0
42.00,75.26,0
35.00,72.20,0
88.00,69.13,0
61.00,66.77,0
58.00,64.99,0
44.00,63.31,0
201.00,62.82,0
129.00,65.10,0
170.00,69.89,0
110.00,75.99,0
127.00,82.40,0
210.00,89.30,0
153.00,97.40,0
188.00,106.18,0
176.00,115.20,0
223.00,124.55,0
117.00,133.66,0
151.00,141.19,0
125.00,146.74,0
179.00,150.89,0
168.00,154.43,0
168.00,157.67,0
185.00,160.61,0
178.00,163.45,0
76.00,165.31,0
84.00,164.67,0
76.00,161.34,0
96.00,156.23,0
62.00,149.91,0
47.00,142.33,0
45.00,133.52,0
52.00,123.95,0
74.00,114.41,0
49.00,105.43,0
64.00,97.07,0
69.00,89.54,0
91.00,83.28,0
130.00,78.93,0
103.00,76.75,0
113.00,76.29,0
153.00,77.42,0
229.00,81.07,0
218.00,88.06,0
137.00,97.07,0
132.00,105.86,0
194.00,113.96,0
132.00,121.73,0
182.00,128.89,0
144.00,135.37,0
213.00,141.46,0
127.00,147.18,0
147.00,151.73,0
155.00,154.94,0
129.00,157.10,0
75.00,157.58,0
65.00,155.59,0
77.00,151.26,0
59.00,145.27,0
57.00,138.00,0
53.00,129.78,0
51.00,120.99,0
48.00,111.99,0
67.00,103.22,0
59.00,95.13,0
62.00,87.88,0
130.00,82.05,0
149.00,78.82,0
87.00,78.02,0
146.00,78.70,0
215.00,81.54,0
76.00,86.41,0
131.00,91.37,0
93.00,95.68,0
128.00,99.47,0
172.00,103.37,0
249.00,108.89,0
120.00,116.01,0
163.00,122.98,0
109.00,128.79,0
132.00,133.19,0
154.00,136.48,0
238.00,140.08,0
147.00,144.59,0
106.00,148.51,0
66.00,150.09,0
82.00,148.97,0
84.00,145.78,0
73.00,141.21,0
57.00,135.45,0
51.00,128.57,0
100.00,121.21,0
53.00,114.13,0
53.00,107.12,0
60.00,100.05,0
126.00,93.84,0
84.00,89.29,0
174.00,86.75,0
76.00,86.14,0
124.00,86.55,0
70.00,87.26,0
209.00,88.83,0
190.00,92.69,0
231.00,99.38,0
104.00,107.41,0
141.00,114.77,0
182.00,121.26,0
150.00,127.59,0
144.00,133.35,0
195.00,138.56,0
140.00,143.51,0
161.00,147.78,0
206.00,151.66,0
104.00,155.19,0
131.00,157.25,0
90.00,157.37,0
55.00,155.29,0
80.00,150.86,0
66.00,144.80,0
53.00,137.61,0
44.00,129.36,0
62.00,120.50,0
59.00,111.65,0
56.00,103.18,0
86.00,95.45,0
105.00,89.17,0
162.00,85.24,0
190.00,84.55,0
186.00,87.30,0
95.00,91.92,0
147.00,96.72,0
143.00,101.56,0
184.00,106.99,0
194.00,113.42,0
123.00,120.30,0
136.00,126.31,0
183.00,131.48,0
80.00,135.87,0
110.00,138.45,0
236.00,140.27,0
144.00,143.00,0
115.00,145.63,0
109.00,146.79,0
108.00,146.46,0
77.00,144.67,0
78.00,141.31,0
96.00,136.82,0
57.00,131.58,0
67.00,125.53,0
52.00,118.80,0
56.00,111.65,0
43.00,104.23,0
60.00,96.81,0
75.00,89.93,0
141.00,84.63,0
129.00,81.82,0
118.00,81.24,0
141.00,82.28,0
62.00,84.18,0
192.00,86.62,0
92.00,90.07,0
193.00,94.41,0
81.00,99.21,0
218.00,104.30,0
74.00,109.61,0
164.00,114.41,0
186.00,119.13,0
128.00,124.27,0
142.00,128.89,0
129.00,132.61,0
243.00,136.36,0
178.00,141.25,0
117.00,146.20,0
139.00,149.69,0
105.00,151.51,0
69.00,151.33,0
65.00,148.73,0
81.00,144.14,0
44.00,138.12,0
71.00,130.94,0
42.00,123.04,0
58.00,114.73,0
56.00,106.38,0
58.00,98.41,0
102.00,91.36,0
70.00,85.72,0
89.00,81.35,0
159.00,78.69,0
89.00,78.17,0
222.00,79.86,0
123.00,83.92,0
188.00,89.65,0
129.00,96.23,0
147.00,102.95,0
118.00,109.13,0
134.00,114.49,0
151.00,119.21,0
142.00,123.64,0
190.00,128.09,0
192.00,133.16,0
257.00,139.49,0
141.00,146.68,0
105.00,152.61,0
97.00,155.79,0
79.00,156.19,0
84.00,154.10,0
62.00,149.97,0
42.00,143.93,0
60.00,136.23,0
49.00,127.62,0
52.00,118.58,0
57.00,109.50,0
64.00,100.89,0
101.00,93.37,0
121.00,87.77,0
89.00,84.19,0
108.00,82.05,0
133.00,81.33,0
227.00,83.08,0
125.00,87.56,0
108.00,92.92,0
140.00,97.89,0
180.00,103.14,0
176.00,109.29,0
114.00,115.70,0
134.00,121.20,0
162.00,125.86,0
222.00,130.87,0
224.00,137.24,0
142.00,144.25,0
216.00,150.80,0
109.00,156.43,0
71.00,159.71,0
103.00,159.83,0
106.00,157.81,0
88.00,154.39,0
80.00,149.69,0
60.00,143.69,0
65.00,136.57,0
78.00,128.86,0
88.00,121.29,0
51.00,114.04,0
194.00,107.93,0
156.00,104.65,0
153.00,104.17,0
320.00,106.82,0
180.00,113.33,0
265.00,122.37,0
194.00,132.71,0
284.00,143.94,0
382.00,157.19,0
156.00,172.04,0
177.00,184.84,0
179.00,194.15,0
157.00,200.53,0
159.00,204.13,0
193.00,205.62,0
264.00,206.65,0
122.00,207.56,0
198.00,207.23,0
171.00,205.80,0
156.00,203.67,0
98.00,200.12,0
81.00,194.38,0
76.00,186.37,0
129.00,177.09,0
73.00,167.56,0
41.00,157.38,0
58.00,146.18,0
125.00,135.18,0
111.00,125.82,0
177.00,118.88,0
244.00,115.54,0
245.00,116.73,0
102.00,120.71,0
207.00,125.17,0
97.00,129.48,0
152.00,133.04,0
91.00,135.42,0
101.00,136.36,0
310.00,137.55,0
172.00,141.28,0
365.00,147.85,0
137.00,156.57,0
206.00,165.01,0
202.00,172.17,0
235.00,178.90,0
127.00,184.71,0
159.00,188.37,0
127.00,189.62,0
155.00,189.00,0
100.00,186.72,0
109.00,182.61,0
124.00,177.12,0
68.00,170.61,0
85.00,162.85,0
95.00,154.32,0
79.00,145.65,0
114.00,137.27,0
94.00,129.69,0
82.00,122.81,0
88.00,116.38,0
316.00,112.41,0
137.00,112.76,0
185.00,115.72,0
146.00,119.57,0
302.00,124.97,0
182.00,132.63,0
125.00,140.60,0
154.00,146.84,0
211.00,152.05,0
196.00,157.36,0
160.00,162.51,0
211.00,167.06,0
274.00,172.06,0
291.00,178.90,0
138.00,186.40,0
267.00,192.83,0
230.00,198.80,0
222.00,204.60,0
121.00,208.82,0
104.00,209.83,0
78.00,206.99,0
98.00,200.94,0
70.00,192.53,0
70.00,182.33,0
74.00,170.85,0
66.00,158.82,0
65.00,146.66,0
57.00,134.65,0
60.00,123.05,0
191.00,113.20,0
227.00,107.56,0
192.00,106.62,0
248.00,109.48,0
147.00,114.94,0
349.00,122.65,0
230.00,133.37,0
157.00,145.10,0
284.00,156.05,0
193.00,166.80,0
245.00,177.01,0
171.00,185.98,0
210.00,193.23,0
278.00,199.53,0
263.00,206.23,0
208.00,212.87,0
321.00,219.15,0
328.00,226.42,0
165.00,233.90,0
120.00,238.29,0
115.00,238.01,0
105.00,233.67,0
81.00,226.02,0
66.00,215.50,0
75.00,202.78,0
92.00,188.96,0
87.00,175.07,0
93.00,161.69,0
85.00,149.15,0
108.00,137.74,0
183.00,128.52,0
186.00,122.72,0
211.00,120.61,0
242.00,122.06,0
167.00,126.24,0
206.00,131.72,0
218.00,138.11,0
220.00,145.53,0
194.00,153.40,0
186.00,160.87,0
221.00,167.74,0
250.00,174.68,0
288.00,182.54,0
169.00,190.70,0
232.00,197.68,0
221.00,203.51,0
176.00,208.24,0
241.00,211.67,0
142.00,213.89,0
147.00,214.06,0
78.00,211.37,0
94.00,205.61,0
74.00,197.20,0
106.00,187.16,0
84.00,176.39,0
59.00,165.11,0
103.00,153.59,0
69.00,142.52,0
58.00,131.84,0
94.00,121.69,0
165.00,113.34,0
201.00,108.43,0
246.00,107.89,0
118.00,110.61,0
191.00,114.56,0
166.00,119.28,0
214.00,125.01,0
225.00,132.02,0
120.00,139.47,0
149.00,145.60,0
128.00,149.95,0
179.00,153.13,0
202.00,156.17,0
211.00,159.89,0
190.00,164.15,0
220.00,168.66,0
239.00,173.70,0
195.00,179.17,0
131.00,183.68,0
127.00,185.87,0
141.00,185.75,0
175.00,184.34,0
94.00,182.03,0
98.00,178.06,0
100.00,172.40,0
48.00,165.24,0
52.00,156.39,0
77.00,146.35,0
90.00,136.32,0
94.00,127.09,0
206.00,119.90,0
200.00,116.30,0
153.00,115.99,0
168.00,117.53,0
265.00,121.04,0
316.00,128.09,0
221.00,138.56,0
190.00,149.79,0
162.00,159.68,0
170.00,167.55,0
181.00,173.64,0
144.00,178.10,0
168.00,180.85,0
188.00,182.49,0
317.00,184.82,0
226.00,189.19,0
152.00,193.87,0
204.00,197.08,0
89.00,198.34,0
107.00,196.78,0
72.00,192.19,0
89.00,185.16,0
63.00,176.30,0
111.00,166.42,0
93.00,156.54,0
76.00,146.93,0
79.00,137.45,0
97.00,128.45,0
146.00,120.82,0
202.00,115.91,0
235.00,114.82,0
201.00,117.42,0
155.00,122.06,0
211.00,127.51,0
250.00,134.26,0
140.00,141.98,0
321.00,150.18,0
237.00,159.84,0
141.00,169.63,0
262.00,177.91,0
225.00,185.69,0
275.00,193.61,0
246.00,201.68,0
262.00,209.66,0
172.00,216.57,0
178.00,221.16,0
168.00,223.07,0
130.00,222.44,0
173.00,219.60,0
84.00,214.80,0
73.00,207.42,0
62.00,197.38,0
51.00,185.30,0
75.00,171.99,0
62.00,158.37,0
64.00,144.95,0
63.00,132.06,0
61.00,119.98,0
64.00,108.89,0
67.00,98.98,0
169.00,91.21,0
142.00,86.86,0
230.00,86.33,0
112.00,88.98,0
127.00,92.87,0
161.00,97.12,0
98.00,101.66,0
196.00,106.33,0
122.00,111.42,0
167.00,116.63,0
174.00,121.95,0
196.00,127.84,0
158.00,134.07,0
230.00,140.50,0
139.00,147.00,0
124.00,152.31,0
138.00,155.64,0
190.00,157.90,0
101.00,159.52,0
88.00,159.44,0
50.00,156.82,0
62.00,151.71,0
71.00,144.81,0
55.00,136.91,0
58.00,128.35,0
58.00,119.48,0
80.00,110.89,0
68.00,103.05,0
73.00,96.08,0
87.00,90.09,0
231.00,86.50,0
127.00,86.50,0
209.00,89.37,0
142.00,94.26,0
101.00,99.76,0
102.00,104.33,0
127.00,107.92,0
149.00,111.25,0
296.00,116.08,0
102.00,122.88,0
242.00,130.12,0
88.00,136.89,0
106.00,141.83,0
159.00,144.68,0
296.00,148.02,0
206.00,153.63,0
157.00,159.98,0
224.00,165.67,0
111.00,170.43,0
57.00,172.56,0
65.00,170.82,0
64.00,165.88,0
84.00,158.92,0
65.00,150.79,0
73.00,141.99,0
77.00,132.97,0
59.00,124.08,0
62.00,115.33,0
88.00,107.11,0
191.00,100.88,0
113.00,97.66,0
219.00,97.27,0
160.00,99.67,0
107.00,103.54,0
83.00,106.84,0
96.00,108.85,0
150.00,110.29,0
114.00,111.96,0
120.00,113.64,0
104.00,114.95,0
127.00,115.90,0
117.00,116.72,0
119.00,117.45,0
134.00,118.17,0
118.00,118.98,0
73.00,119.32,0
41.00,118.15,0
63.00,115.16,0
42.00,110.78,0
44.00,105.38,0
65.00,99.41,0
40.00,93.35,0
55.00,87.30,0
60.00,81.56,0
54.00,76.39,0
35.00,71.60,0
127.00,67.68,0
38.00,65.15,0
52.00,63.18,0
96.00,61.57,0
71.00,60.90,0
134.00,61.46,0
74.00,63.26,0
55.00,65.33,0
88.00,66.98,0
51.00,68.36,0
39.00,69.03,0
60.00,68.81,0
76.00,68.32,0
72.00,68.03,0
75.00,68.00,0
60.00,68.06,0
73.00,68.07,0
51.00,67.95,0
53.00,67.50,0
42.00,66.57,0
45.00,65.16,0
45.00,63.39,0
77.00,61.71,0
46.00,60.41,0
46.00,59.21,0
44.00,57.84,0
45.00,56.37,0
54.00,54.94,0
67.00,53.86,0
47.00,53.20,0
40.00,52.60,0
51.00,51.88,0
122.00,51.79,0
51.00,52.89,0
37.00,54.13,0
55.00,54.78,0
42.00,55.02,0
70.00,55.11,0
40.00,55.19,0
75.00,55.29,0
66.00,55.65,0
52.00,56.22,0
68.00,56.77,0
71.00,57.44,0
88.00,58.53,0
66.00,60.01,0
56.00,61.43,0
64.00,62.47,0
84.00,63.42,0
75.00,64.57,0
44.00,65.62,0
107.00,66.47,0
35.00,67.34,0
41.00,67.59,0
46.00,66.88,0
33.00,65.50,0
42.00,63.56,0
54.00,61.40,0
42.00,59.31,0
35.00,57.19,0
56.00,55.08,0
88.00,53.59,0
92.00,53.37,0
73.00,54.29,0
54.00,55.61,0
36.00,56.56,0
52.00,56.89,0
40.00,56.75,0
80.00,56.52,0
93.00,56.90,0
69.00,58.07,0
70.00,59.54,0
58.00,60.89,0
43.00,61.79,0
75.00,62.24,0
49.00,62.53,0
80.00,62.77,0
60.00,63.10,0
64.00,63.45,0
47.00,63.56,0
33.00,63.11,0
37.00,61.93,0
46.00,60.25,0
44.00,58.41,0
51.00,56.61,0
42.00,54.93,0
43.00,53.30,0
43.00,51.72,0
48.00,50.27,0
43.00,49.01,0
43.00,47.89,0
49.00,46.93,0
59.00,46.30,0
98.00,46.49,0
36.00,47.50,0
86.00,48.82,0
58.00,50.40,0
188.00,53.15,0
64.00,57.62,0
64.00,62.25,0
87.00,66.01,0
80.00,69.32,0
158.00,72.88,0
62.00,76.96,0
101.00,80.68,0
63.00,83.55,0
58.00,85.31,0
100.00,86.14,0
59.00,86.53,0
43.00,86.12,0
44.00,84.53,0
45.00,81.98,0
37.00,78.73,0
70.00,75.22,0
44.00,71.89,0
47.00,68.69,0
56.00,65.58,0
42.00,62.72,0
34.00,59.90,0
48.00,57.08,0
48.00,54.53,0
51.00,52.39,0
46.00,50.66,0
48.00,49.25,0
76.00,48.34,0
88.00,48.44,0
52.00,49.42,0
39.00,50.44,0
110.00,51.53,0
47.00,53.19,0
63.00,54.90,0
46.00,56.19,0
60.00,57.09,0
108.00,58.16,0
85.00,60.03,0
69.00,62.33,0
46.00,64.24,0
58.00,65.37,0
56.00,65.87,0
38.00,65.79,0
51.00,65.06,0
76.00,64.14,0
46.00,63.37,0
43.00,62.44,0
47.00,61.15,0
49.00,59.69,0
65.00,58.34,0
43.00,57.22,0
52.00,56.15,0
52.00,55.13,0
51.00,54.24,0
53.00,53.49,0
64.00,52.97,0
43.00,52.68,0
36.00,52.25,0
92.00,51.91,0
32.00,52.01,0
173.00,53.09,0
40.00,55.60,0
56.00,58.22,0
48.00,59.95,0
75.00,61.15,0
57.00,62.15,0
71.00,63.00,0
63.00,63.73,0
59.00,64.30,0
83.00,64.78,0
73.00,65.47,0
58.00,66.20,0
57.00,66.60,0
46.00,66.51,0
54.00,65.91,0
48.00,64.94,0
36.00,63.60,0
42.00,61.82,0
49.00,59.81,0
64.00,58.00,0
76.00,56.80,0
54.00,56.23,0
41.00,55.81,0
43.00,55.12,0
51.00,54.25,0
55.00,53.44,0
116.00,53.35,0
55.00,54.33,0
184.00,56.67,0
63.00,60.58,0
67.00,64.66,0
85.00,67.96,0
173.00,71.61,0
68.00,76.13,0
71.00,80.19,0
169.00,83.76,0
115.00,88.05,0
72.00,92.29,0
144.00,95.79,0
80.00,98.92,0
84.00,101.24,0
57.00,102.17,0
77.00,101.78,0
105.00,100.73,0
47.00,99.37,0
44.00,97.06,0
69.00,93.78,0
58.00,90.18,0
46.00,86.37,0
46.00,82.24,0
48.00,77.92,0
45.00,73.61,0
46.00,69.41,0
38.00,65.38,0
38.00,61.47,0
37.00,57.72,0
47.00,54.27,0
41.00,51.28,0
65.00,48.91,0
35.00,47.20,0
54.00,45.90,0
48.00,44.98,0
171.00,45.43,0
36.00,47.78,0
85.00,50.69,0
46.00,53.31,0
73.00,55.61,0
127.00,58.14,0
80.00,61.51,0
68.00,64.98,0
104.00,68.11,0
60.00,71.01,0
95.00,73.51,0
47.00,75.43,0
73.00,76.57,0
36.00,76.78,0
45.00,75.98,0
59.00,74.40,0
50.00,72.50,0
53.00,70.41,0
40.00,68.11,0
64.00,65.74,0
54.00,63.60,0
43.00,61.65,0
34.00,59.57,0
35.00,57.22,0
35.00,54.70,0
52.00,52.27,0
35.00,50.13,0
94.00,48.64,0
55.00,48.20,0
84.00,48.65,0
128.00,50.29,0
74.00,53.30,0
116.00,57.06,0
91.00,61.31,0
96.00,65.79,0
96.00,70.14,0
98.00,74.33,0
88.00,78.19,0
63.00,81.33,0
94.00,83.56,0
72.00,85.17,0
86.00,86.25,0
50.00,86.66,0
53.00,86.08,0
53.00,84.53,0
65.00,82.39,0
37.00,79.86,0
57.00,76.93,0
37.00,73.69,0
51.00,70.30,0
53.00,66.99,0
45.00,63.93,0
43.00,61.02,0
56.00,58.35,0
58.00,56.14,0
55.00,54.49,0
138.00,53.96,0
52.00,54.95,0
154.00,57.15,0
43.00,60.25,0
83.00,63.29,0
33.00,65.50,0
82.00,66.93,0
46.00,67.80,0
87.00,68.39,0
41.00,68.73,0
108.00,69.00,0
72.00,69.65,0
58.00,70.40,0
73.00,70.79,0
63.00,70.96,0
61.00,70.89,0
72.00,70.61,0
40.00,70.09,0
46.00,69.01,0
51.00,67.41,0
60.00,65.68,0
56.00,64.07,0
50.00,62.56,0
63.00,61.16,0
61.00,60.03,0
55.00,59.17,0
49.00,58.38,0
53.00,57.56,0
38.00,56.62,0
119.00,56.08,0
38.00,56.42,0
62.00,56.94,0
36.00,57.08,0
49.00,56.81,0
40.00,56.17,0
67.00,55.44,0
48.00,54.89,0
115.00,54.95,0
77.00,56.12,0
75.00,58.00,0
60.00,59.88,0
97.00,61.74,0
40.00,63.54,0
133.00,65.37,0
42.00,67.48,0
94.00,69.42,0
47.00,70.89,0
66.00,71.76,0
44.00,71.89,0
68.00,71.45,0
52.00,70.67,0
53.00,69.60,0
56.00,68.26,0
49.00,66.75,0
49.00,65.07,0
52.00,63.29,0
44.00,61.47,0
42.00,59.56,0
57.00,57.66,0
36.00,55.90,0
45.00,54.15,0
58.00,52.56,0
58.00,51.41,0
78.00,50.93,0
57.00,51.12,0
118.00,52.14,0
100.00,54.44,0
90.00,57.75,0
68.00,61.24,0
60.00,64.23,0
89.00,66.66,0
73.00,68.88,0
85.00,70.93,0
79.00,72.81,0
79.00,74.49,0
61.00,75.76,0
98.00,76.70,0
66.00,77.54,0
64.00,78.05,0
63.00,77.98,0
60.00,77.40,0
42.00,76.27,0
44.00,74.44,0
50.00,72.08,0
46.00,69.47,0
42.00,66.72,0
46.00,63.87,0
76.00,61.33,0
37.00,59.32,0
70.00,57.64,0
39.00,56.25,0
151.00,55.81,0
37.00,56.75,0
63.00,57.98,0
56.00,58.80,0
90.00,59.67,0
71.00,60.90,0
79.00,62.39,0
59.00,63.84,0
56.00,64.93,0
141.00,66.19,0
66.00,68.29,0
93.00,70.66,0
67.00,72.75,0
56.00,74.28,0
45.00,74.84,0
58.00,74.48,0
61.00,73.58,0
57.00,72.43,0
40.00,70.93,0
43.00,68.93,0
38.00,66.49,0
52.00,63.85,0
46.00,61.30,0
50.00,58.93,0
51.00,56.81,0
61.00,55.08,0
75.00,54.00,0
72.00,53.72,0
36.00,53.85,0
98.00,54.16,0
47.00,54.92,0
80.00,55.92,0
57.00,57.01,0
123.00,58.58,0
41.00,60.66,0
87.00,62.66,0
50.00,64.30,0
50.00,65.37,0
41.00,65.60,0
49.00,65.11,0
105.00,64.60,0
64.00,64.74,0
90.00,65.38,0
61.00,66.22,0
68.00,66.99,0
127.00,68.04,0
47.00,69.65,0
61.00,70.90,0
66.00,71.45,0
40.00,71.42,0
44.00,70.62,0
48.00,69.13,0
42.00,67.21,0
43.00,64.97,0
42.00,62.53,0
42.00,60.01,0
59.00,57.64,0
39.00,55.57,0
35.00,53.59,0
38.00,51.52,0
32.00,49.43,0
36.00,47.34,0
35.00,45.34,0
33.00,43.47,0
33.00,41.72,0
40.00,40.16,0
34.00,38.86,0
43.00,37.83,0
43.00,37.15,0
34.00,36.75,0
34.00,36.43,0
36.00,36.12,0
33.00,35.84,0
31.00,35.54,0
35.00,35.22,0
31.00,34.90,0
35.00,34.59,0
33.00,34.32,0
32.00,34.08,0
38.00,33.89,0
34.00,33.79,0
34.00,33.76,0
32.00,33.73,0
34.00,33.68,0
32.00,33.62,0
39.00,33.60,0
34.00,33.66,0
38.00,33.79,0
34.00,33.96,0
39.00,34.17,0
35.00,34.41,0
40.00,34.69,0
35.00,35.00,0
38.00,35.29,0
36.00,35.57,0
35.00,35.80,0
34.00,35.95,0
38.00,36.04,0
35.00,36.11,0
35.00,36.16,0
36.00,36.16,0
34.00,36.14,0
37.00,36.09,0
34.00,36.03,0
36.00,35.96,0
34.00,35.88,0
35.00,35.78,0
34.00,35.66,0
35.00,35.53,0
35.00,35.40,0
38.00,35.32,0
33.00,35.28,0
36.00,35.24,0
34.00,35.19,0
36.00,35.15,0
35.00,35.12,0
37.00,35.12,0
34.00,35.14,0
37.00,35.17,0
35.00,35.21,0
36.00,35.26,0
35.00,35.30,0
37.00,35.35,0
36.00,35.42,0
37.00,35.50,0
37.00,35.61,0
38.00,35.75,0
36.00,35.90,0
36.00,36.04,0
35.00,36.13,0
35.00,36.17,0
35.00,36.17,0
35.00,36.12,0
36.00,36.06,0
35.00,35.99,0
36.00,35.93,0
36.00,35.87,0
35.00,35.82,0
35.00,35.77,0
36.00,35.71,0
34.00,35.65,0
37.00,35.59,0
34.00,35.54,0
37.00,35.51,0
35.00,35.49,0
37.00,35.49,0
35.00,35.51,0
37.00,35.54,0
35.00,35.57,0
36.00,35.61,0
36.00,35.64,0
37.00,35.68,0
36.00,35.75,0
36.00,35.81,0
35.00,35.85,0
36.00,35.88,0
36.00,35.89,0
36.00,35.90,0
37.00,35.93,0
35.00,35.95,0
36.00,35.97,0
36.00,35.97,0
35.00,35.97,0
35.00,35.94,0
36.00,35.90,0
36.00,35.86,0
35.00,35.83,0
36.00,35.79,0
37.00,35.77,0
34.00,35.76,0
38.00,35.76,0
34.00,35.76,0
37.00,35.76,0
35.00,35.76,0
37.00,35.77,0
35.00,35.79,0
37.00,35.80,0
35.00,35.82,0
37.00,35.85,0
36.00,35.87,0
36.00,35.91,0
36.00,35.94,0
36.00,35.96,0
36.00,35.98,0
36.00,36.00,0
36.00,36.01,0
37.00,36.03,0
36.00,36.06,0
36.00,36.08,0
36.00,36.10,0
35.00,36.11,0
36.00,36.09,0
35.00,36.05,0
37.00,36.02,0
36.00,36.00,0
37.00,36.00,0
35.00,36.01,0
36.00,36.01,0
35.00,35.99,0
38.00,35.98,0
35.00,35.99,0
38.00,36.01,0
35.00,36.04,0
39.00,36.09,0
35.00,36.16,0
37.00,36.22,0
36.00,36.27,0
37.00,36.31,0
35.00,36.35,0
36.00,36.35,0
36.00,36.33,0
37.00,36.32,0
36.00,36.31,0
36.00,36.31,0
35.00,36.28,0
37.00,36.25,0
36.00,36.22,0
36.00,36.20,0
36.00,36.18,0
35.00,36.15,0
36.00,36.10,0
36.00,36.06,0
36.00,36.02,0
36.00,35.99,0
36.00,35.97,0
36.00,35.96,0
36.00,35.95,0
35.00,35.93,0
37.00,35.91,0
35.00,35.90,0
37.00,35.90,0
35.00,35.90,0
37.00,35.90,0
36.00,35.92,0
38.00,35.96,0
35.00,36.01,0
37.00,36.06,0
36.00,36.11,0
37.00,36.15,0
35.00,36.19,0
37.00,36.21,0
36.00,36.23,0
37.00,36.26,0
36.00,36.28,0
36.00,36.30,0
35.00,36.30,0
36.00,36.27,0
36.00,36.23,0
37.00,36.20,0
36.00,36.19,0
35.00,36.17,0
36.00,36.14,0
35.00,36.09,0
36.00,36.03,0
35.00,35.97,0
36.00,35.91,0
36.00,35.86,0
37.00,35.83,0
34.00,35.82,0
38.00,35.81,0
34.00,35.80,0
37.00,35.80,0
35.00,35.79,0
37.00,35.80,0
35.00,35.80,0
38.00,35.83,0
36.00,35.87,0
37.00,35.94,0
35.00,36.00,0
37.00,36.04,0
35.00,36.07,0
36.00,36.09,0
35.00,36.08,0
35.00,36.05,0
37.00,36.00,0
37.00,35.99,0
36.00,36.00,0
36.00,36.02,0
36.00,36.03,0
37.00,36.05,0
36.00,36.07,0
35.00,36.09,0
37.00,36.10,0
35.00,36.09,0
36.00,36.08,0
37.00,36.07,0
36.00,36.08,0
35.00,36.08,0
36.00,36.06,0
34.00,36.02,0
37.00,35.96,0
33.00,35.90,0
38.00,35.83,0
34.00,35.77,0
38.00,35.73,0
36.00,35.73,0
39.00,35.78,0
37.00,35.88,0
37.00,36.02,0
36.00,36.14,0
36.00,36.24,0
36.00,36.31,0
37.00,36.35,0
36.00,36.40,0
34.00,36.41,0
36.00,36.37,0
37.00,36.32,0
36.00,36.29,0
36.00,36.26,0
36.00,36.23,0
36.00,36.21,0
37.00,36.19,0
35.00,36.17,0
36.00,36.15,0
36.00,36.12,0
36.00,36.09,0
36.00,36.06,0
36.00,36.04,0
34.00,36.01,0
37.00,35.96,0
33.00,35.90,0
37.00,35.82,0
34.00,35.74,0
38.00,35.69,0
34.00,35.65,0
38.00,35.64,0
34.00,35.64,0
39.00,35.66,0
34.00,35.70,0
38.00,35.75,0
36.00,35.82,0
38.00,35.91,0
35.00,36.00,0
36.00,36.07,0
35.00,36.11,0
37.00,36.12,0
37.00,36.15,0
37.00,36.19,0
36.00,36.25,0
36.00,36.29,0
36.00,36.31,0
36.00,36.32,0
37.00,36.32,0
35.00,36.32,0
36.00,36.30,0
34.00,36.25,0
37.00,36.18,0
35.00,36.11,0
38.00,36.07,0
34.00,36.04,0
36.00,36.00,0
35.00,35.94,0
37.00,35.89,0
33.00,35.84,0
40.00,35.80,0
34.00,35.80,0
38.00,35.83,0
35.00,35.86,0
38.00,35.90,0
37.00,35.98,0
38.00,36.08,0
34.00,36.18,0
36.00,36.24,0
37.00,36.26,0
37.00,36.30,0
36.00,36.34,0
38.00,36.38,0
35.00,36.43,0
36.00,36.45,0
35.00,36.44,0
40.00,36.43,0
37.00,36.47,0
35.00,36.53,0
34.00,36.53,0
36.00,36.48,0
36.00,36.40,0
35.00,36.32,0
39.00,36.26,0
34.00,36.23,0
36.00,36.19,0
32.00,36.11,0
37.00,35.98,0
33.00,35.84,0
39.00,35.73,0
34.00,35.66,0
37.00,35.61,0
35.00,35.59,0
38.00,35.59,0
35.00,35.62,0
38.00,35.67,0
35.00,35.74,0
38.00,35.81,0
39.00,35.93,0
38.00,36.10,0
37.00,36.29,0
39.00,36.49,0
36.00,36.68,0
39.00,36.85,0
39.00,37.03,0
36.00,37.20,0
37.00,37.33,0
37.00,37.40,0
35.00,37.43,0
35.00,37.39,0
39.00,37.31,0
35.00,37.24,0
35.00,37.15,0
36.00,37.01,0
36.00,36.87,0
33.00,36.70,0
38.00,36.53,0
33.00,36.35,0
37.00,36.19,0
33.00,36.02,0
37.00,35.86,0
38.00,35.75,0
36.00,35.72,0
34.00,35.71,0
38.00,35.69,0
36.00,35.70,0
38.00,35.75,0
33.00,35.81,0
39.00,35.85,0
36.00,35.91,0
36.00,35.98,0
36.00,36.04,0
36.00,36.08,0
37.00,36.12,0
38.00,36.18,0
34.00,36.24,0
36.00,36.26,0
36.00,36.25,0
36.00,36.24,0
36.00,36.22,0
36.00,36.20,0
35.00,36.17,0
35.00,36.11,0
35.00,36.04,0
36.00,35.95,0
35.00,35.87,0
35.00,35.79,0
35.00,35.70,0
35.00,35.61,0
37.00,35.54,0
33.00,35.48,0
36.00,35.42,0
34.00,35.34,0
36.00,35.28,0
33.00,35.21,0
36.00,35.13,0
34.00,35.06,0
35.00,35.00,0
36.00,34.95,0
38.00,34.96,0
38.00,35.05,0
38.00,35.21,0
37.00,35.42,0
37.00,35.64,0
36.00,35.85,0
36.00,36.02,0
35.00,36.13,0
37.00,36.21,0
37.00,36.28,0
36.00,36.35,0
36.00,36.40,0
35.00,36.41,0
36.00,36.39,0
36.00,36.36,0
36.00,36.32,0
35.00,36.27,0
35.00,36.20,0
35.00,36.11,0
38.00,36.02,0
33.00,35.96,0
36.00,35.88,0
35.00,35.79,0
39.00,35.73,0
35.00,35.74,0
39.00,35.78,0
34.00,35.84,0
37.00,35.90,0
35.00,35.93,0
37.00,35.96,0
36.00,36.00,0
38.00,36.05,0
36.00,36.11,0
38.00,36.20,0
35.00,36.28,0
37.00,36.34,0
37.00,36.39,0
39.00,36.46,0
35.00,36.56,0
37.00,36.62,0
37.00,36.67,0
36.00,36.71,0
36.00,36.72,0
36.00,36.71,0
38.00,36.70,0
36.00,36.69,0
37.00,36.69,0
36.00,36.69,0
36.00,36.67,0
34.00,36.61,0
36.00,36.52,0
33.00,36.39,0
38.00,36.24,0
34.00,36.12,0
37.00,36.01,0
35.00,35.92,0
38.00,35.86,0
35.00,35.84,0
37.00,35.83,0
35.00,35.84,0
38.00,35.85,0
36.00,35.89,0
37.00,35.95,0
36.00,36.02,0
35.00,36.07,0
36.00,36.08,0
36.00,36.09,0
35.00,36.08,0
37.00,36.06,0
36.00,36.05,0
37.00,36.06,0
36.00,36.08,0
37.00,36.11,0
36.00,36.15,0
35.00,36.17,0
37.00,36.17,0
35.00,36.17,0
37.00,36.16,0
35.00,36.15,0
36.00,36.13,0
34.00,36.08,0
37.00,36.02,0
34.00,35.96,0
36.00,35.88,0
33.00,35.79,0
37.00,35.69,0
35.00,35.60,0
37.00,35.55,0
35.00,35.52,0
38.00,35.53,0
35.00,35.57,0
38.00,35.62,0
36.00,35.71,0
38.00,35.81,0
36.00,35.93,0
39.00,36.06,0
36.00,36.21,0
36.00,36.35,0
36.00,36.43,0
36.00,36.49,0
36.00,36.51,0
36.00,36.51,0
36.00,36.50,0
35.00,36.46,0
36.00,36.40,0
35.00,36.32,0
37.00,36.25,0
36.00,36.19,0
37.00,36.16,0
34.00,36.13,0
37.00,36.08,0
34.00,36.03,0
37.00,35.97,0
35.00,35.92,0
38.00,35.89,0
34.00,35.88,0
38.00,35.88,0
36.00,35.90,0
37.00,35.94,0
36.00,35.99,0
38.00,36.06,0
36.00,36.14,0
37.00,36.22,0
35.00,36.28,0
38.00,36.33,0
36.00,36.38,0
35.00,36.41,0
36.00,36.40,0
36.00,36.38,0
36.00,36.35,0
36.00,36.31,0
36.00,36.27,0
35.00,36.23,0
36.00,36.17,0
34.00,36.09,0
37.00,36.01,0
35.00,35.93,0
36.00,35.87,0
34.00,35.80,0
38.00,35.74,0
35.00,35.71,0
37.00,35.71,0
34.00,35.71,0
39.00,35.71,0
37.00,35.77,0
38.00,35.88,0
37.00,36.02,0
36.00,36.15,0
36.00,36.26,0
37.00,36.34,0
37.00,36.41,0
37.00,36.49,0
36.00,36.56,0
35.00,36.59,0
38.00,36.60,0
35.00,36.60,0
36.00,36.58,0
36.00,36.54,0
36.00,36.49,0
34.00,36.42,0
39.00,36.34,0
35.00,36.30,0
36.00,36.26,0
34.00,36.20,0
37.00,36.13,0
34.00,36.05,0
37.00,35.97,0
34.00,35.89,0
37.00,35.82,0
35.00,35.77,0
36.00,35.73,0
36.00,35.69,0
37.00,35.69,0
37.00,35.72,0
39.00,35.80,0
36.00,35.93,0
37.00,36.06,0
38.00,36.19,0
36.00,36.33,0
37.00,36.44,0
38.00,36.55,0
37.00,36.66,0
35.00,36.75,0
38.00,36.80,0
35.00,36.83,0
36.00,36.82,0
35.00,36.78,0
38.00,36.71,0
35.00,36.66,0
37.00,36.60,0
34.00,36.53,0
37.00,36.45,0
33.00,36.34,0
36.00,36.21,0
33.00,36.05,0
36.00,35.88,0
34.00,35.71,0
37.00,35.57,0
34.00,35.46,0
36.00,35.36,0
35.00,35.29,0
38.00,35.26,0
36.00,35.29,0
37.00,35.35,0
38.00,35.46,0
39.00,35.63,0
38.00,35.85,0
36.00,36.08,0
39.00,36.29,0
36.00,36.49,0
37.00,36.66,0
37.00,36.80,0
40.00,36.93,0
35.00,37.07,0
38.00,37.17,0
35.00,37.22,0
36.00,37.22,0
36.00,37.17,0
42.00,37.15,0
34.00,37.17,0
36.00,37.17,0
35.00,37.10,0
39.00,37.03,0
33.00,36.95,0
39.00,36.86,0
36.00,36.79,0
37.00,36.74,0
34.00,36.68,0
38.00,36.60,0
35.00,36.53,0
36.00,36.46,0
39.00,36.41,0
35.00,36.40,0
36.00,36.38,0
35.00,36.34,0
36.00,36.28,0
38.00,36.24,0
39.00,36.25,0
35.00,36.32,0
36.00,36.36,0
36.00,36.37,0
37.00,36.38,0
35.00,36.38,0
37.00,36.37,0
35.00,36.35,0
38.00,36.33,0
38.00,36.34,0
43.00,36.45,0
35.00,36.64,0
38.00,36.83,0
34.00,36.94,0
39.00,37.01,0
33.00,37.04,0
38.00,37.02,0
34.00,36.96,0
36.00,36.86,0
34.00,36.73,0
36.00,36.57,0
36.00,36.41,0
41.00,36.32,0
38.00,36.34,0
42.00,36.47,0
39.00,36.70,0
38.00,36.96,0
38.00,37.20,0
41.00,37.44,0
39.00,37.69,0
37.00,37.93,0
39.00,38.11,0
35.00,38.23,0
39.00,38.28,0
38.00,38.30,0
38.00,38.31,0
37.00,38.30,0
41.00,38.30,0
37.00,38.31,0
39.00,38.33,0
36.00,38.33,0
41.00,38.31,0
32.00,38.28,0
39.00,38.17,0
32.00,38.00,0
36.00,37.77,0
35.00,37.49,0
37.00,37.22,0
34.00,36.96,0
37.00,36.72,0
34.00,36.50,0
37.00,36.30,0
37.00,36.14,0
38.00,36.06,0
40.00,36.07,0
34.00,36.14,0
42.00,36.24,0
37.00,36.40,0
42.00,36.62,0
38.00,36.90,0
36.00,37.16,0
34.00,37.32,0
39.00,37.39,0
35.00,37.42,0
38.00,37.42,0
36.00,37.40,0
39.00,37.38,0
35.00,37.36,0
41.00,37.35,0
35.00,37.36,0
38.00,37.37,0
32.00,37.32,0
34.00,37.17,0
32.00,36.92,0
40.00,36.65,0
32.00,36.42,0
37.00,36.21,0
34.00,36.01,0
37.00,35.84,0
33.00,35.69,0
40.00,35.58,0
37.00,35.56,0
41.00,35.65,0
44.00,35.89,0
39.00,36.27,0
41.00,36.71,0
37.00,37.14,0
40.00,37.52,0
38.00,37.85,0
40.00,38.13,0
36.00,38.36,0
44.00,38.56,0
38.00,38.77,0
39.00,38.97,0
36.00,39.08,0
39.00,39.12,0
39.00,39.12,0
41.00,39.13,0
38.00,39.16,0
42.00,39.20,0
34.00,39.22,0
34.00,39.14,0
32.00,38.88,0
38.00,38.53,0
35.00,38.16,0
40.00,37.85,0
32.00,37.58,0
39.00,37.31,0
34.00,37.06,0
33.00,36.80,0
35.00,36.51,0
46.00,36.31,0
41.00,36.34,0
48.00,36.62,0
39.00,37.08,0
39.00,37.56,0
46.00,38.04,0
38.00,38.54,0
41.00,38.99,0
43.00,39.40,0
37.00,39.75,0
42.00,40.03,0
38.00,40.23,0
36.00,40.32,0
39.00,40.29,0
35.00,40.16,0
38.00,39.96,0
44.00,39.76,0
38.00,39.65,0
36.00,39.55,0
36.00,39.36,0
32.00,39.08,0
33.00,38.67,0
32.00,38.16,0
38.00,37.62,0
32.00,37.13,0
39.00,36.69,0
39.00,36.38,0
38.00,36.22,0
35.00,36.14,0
47.00,36.16,0
35.00,36.34,0
52.00,36.67,0
41.00,37.20,0
45.00,37.85,0
53.00,38.62,0
40.00,39.50,0
58.00,40.44,0
39.00,41.44,0
53.00,42.39,0
32.00,43.17,0
40.00,43.63,0
32.00,43.73,0
36.00,43.52,0
34.00,43.05,0
42.00,42.48,0
57.00,42.09,0
42.00,42.04,0
44.00,42.13,0
34.00,42.17,0
33.00,42.00,0
31.00,41.56,0
32.00,40.91,0
35.00,40.13,0
32.00,39.32,0
40.00,38.55,0
34.00,37.90,0
39.00,37.36,0
34.00,36.93,0
43.00,36.62,0
47.00,36.56,0
41.00,36.77,0
44.00,37.14,0
36.00,37.57,0
38.00,37.92,0
39.00,38.18,0
48.00,38.47,0
34.00,38.82,0
46.00,39.14,0
35.00,39.42,0
38.00,39.60,0
37.00,39.65,0
38.00,39.62,0
36.00,39.52,0
41.00,39.38,0
37.00,39.26,0
45.00,39.19,0
32.00,39.15,0
32.00,39.00,0
32.00,38.65,0
39.00,38.23,0
31.00,37.80,0
39.00,37.39,0
32.00,37.00,0
42.00,36.69,0
33.00,36.46,0
40.00,36.31,0
38.00,36.25,0
43.00,36.31,0
39.00,36.51,0
43.00,36.81,0
38.00,37.17,0
40.00,37.52,0
42.00,37.88,0
34.00,38.20,0
48.00,38.49,0
35.00,38.80,0
40.00,39.06,0
42.00,39.26,0
34.00,39.42,0
32.00,39.41,0
38.00,39.23,0
31.00,38.94,0
44.00,38.62,0
33.00,38.36,0
45.00,38.17,0
33.00,38.06,0
40.00,37.96,0
30.00,37.82,0
44.00,37.65,0
31.00,37.50,0
42.00,37.38,0
33.00,37.27,0
39.00,37.17,0
32.00,37.05,0
43.00,36.94,0
34.00,36.89,0
44.00,36.91,0
40.00,37.05,0
39.00,37.28,0
35.00,37.48,0
36.00,37.60,0
42.00,37.67,0
45.00,37.85,0
41.00,38.17,0
43.00,38.55,0
36.00,38.91,0
43.00,39.20,0
38.00,39.46,0
33.00,39.60,0
34.00,39.54,0
35.00,39.31,0
48.00,39.09,0
36.00,39.01,0
41.00,38.99,0
35.00,38.95,0
40.00,38.88,0
31.00,38.75,0
40.00,38.54,0
32.00,38.29,0
39.00,38.02,0
32.00,37.73,0
36.00,37.40,0
31.00,37.04,0
46.00,36.73,0
33.00,36.57,0
41.00,36.50,0
38.00,36.51,0
40.00,36.60,0
39.00,36.76,0
34.00,36.92,0
52.00,37.14,0
36.00,37.51,0
52.00,38.01,0
44.00,38.65,0
41.00,39.36,0
36.00,39.94,0
36.00,40.28,0
41.00,40.45,0
36.00,40.51,0
37.00,40.46,0
41.00,40.32,0
43.00,40.23,0
43.00,40.23,0
47.00,40.36,0
40.00,40.58,0
35.00,40.75,0
41.00,40.78,0
32.00,40.69,0
43.00,40.50,0
32.00,40.25,0
46.00,40.00,0
37.00,39.81,0
40.00,39.68,0
38.00,39.55,0
39.00,39.42,0
32.00,39.25,0
49.00,39.07,0
49.00,39.13,0
53.00,39.53,0
39.00,40.13,0
47.00,40.74,0
55.00,41.40,0
38.00,42.15,0
44.00,42.77,0
38.00,43.19,0
45.00,43.44,0
43.00,43.60,0
38.00,43.69,0
35.00,43.58,0
41.00,43.28,0
34.00,42.88,0
45.00,42.42,0
39.00,42.02,0
43.00,41.70,0
44.00,41.47,0
36.00,41.31,0
40.00,41.11,0
44.00,40.92,0
33.00,40.76,0
37.00,40.50,0
32.00,40.11,0
42.00,39.67,0
34.00,39.27,0
42.00,38.92,0
34.00,38.62,0
42.00,38.38,0
49.00,38.30,0
40.00,38.47,0
44.00,38.75,0
37.00,39.05,0
39.00,39.28,0
38.00,39.43,0
43.00,39.54,0
36.00,39.64,0
44.00,39.71,0
33.00,39.76,0
39.00,39.71,0
34.00,39.56,0
37.00,39.33,0
33.00,39.02,0
44.00,38.70,0
39.00,38.51,0
40.00,38.43,0
33.00,38.36,0
41.00,38.24,0
31.00,38.10,0
37.00,37.89,0
31.00,37.60,0
37.00,37.26,0
30.00,36.89,0
38.00,36.50,0
33.00,36.15,0
35.00,35.83,0
34.00,35.54,0
42.00,35.34,0
36.00,35.30,0
40.00,35.37,0
40.00,35.54,0
35.00,35.78,0
34.00,35.97,0
36.00,36.07,0
40.00,36.16,0
32.00,36.26,0
40.00,36.33,0
33.00,36.37,0
36.00,36.38,0
36.00,36.35,0
37.00,36.32,0
33.00,36.28,0
38.00,36.22,0
35.00,36.16,0
39.00,36.14,0
34.00,36.14,0
38.00,36.14,0
32.00,36.13,0
41.00,36.10,0
32.00,36.10,0
38.00,36.08,0
33.00,36.04,0
37.00,35.99,0
33.00,35.91,0
39.00,35.84,0
32.00,35.78,0
40.00,35.74,0
36.00,35.75,0
37.00,35.80,0
35.00,35.86,0
36.00,35.90,0
36.00,35.92,0
35.00,35.94,0
38.00,35.95,0
35.00,35.98,0
38.00,36.01,0
33.00,36.04,0
37.00,36.04,0
34.00,36.01,0
38.00,35.98,0
35.00,35.96,0
36.00,35.95,0
32.00,35.91,0
36.00,35.81,0
33.00,35.68,0
39.00,35.57,0
33.00,35.50,0
38.00,35.45,0
35.00,35.44,0
37.00,35.45,0
32.00,35.46,0
41.00,35.46,0
34.00,35.52,0
37.00,35.59,0
35.00,35.65,0
38.00,35.72,0
34.00,35.79,0
38.00,35.85,0
35.00,35.90,0
38.00,35.97,0
36.00,36.04,0
36.00,36.11,0
39.00,36.19,0
36.00,36.29,0
38.00,36.40,0
35.00,36.49,0
38.00,36.56,0
34.00,36.61,0
37.00,36.61,0
35.00,36.59,0
37.00,36.55,0
34.00,36.50,0
39.00,36.44,0
33.00,36.39,0
39.00,36.34,0
34.00,36.29,0
38.00,36.26,0
33.00,36.22,0
38.00,36.16,0
32.00,36.09,0
39.00,36.01,0
32.00,35.93,0
38.00,35.84,0
34.00,35.77,0
39.00,35.73,0
35.00,35.73,0
38.00,35.77,0
36.00,35.83,0
38.00,35.91,0
35.00,36.00,0
37.00,36.08,0
35.00,36.14,0
36.00,36.17,0
38.00,36.19,0
36.00,36.24,0
38.00,36.30,0
37.00,36.38,0
36.00,36.46,0
35.00,36.50,0
37.00,36.51,0
34.00,36.49,0
37.00,36.45,0
35.00,36.39,0
37.00,36.33,0
34.00,36.27,0
38.00,36.20,0
33.00,36.14,0
37.00,36.06,0
34.00,35.97,0
38.00,35.90,0
34.00,35.85,0
38.00,35.81,0
33.00,35.79,0
40.00,35.77,0
34.00,35.79,0
38.00,35.83,0
36.00,35.88,0
39.00,35.97,0
34.00,36.07,0
37.00,36.14,0
36.00,36.19,0
36.00,36.23,0
36.00,36.25,0
37.00,36.27,0
37.00,36.30,0
36.00,36.34,0
38.00,36.38,0
36.00,36.43,0
37.00,36.48,0
35.00,36.51,0
38.00,36.53,0
34.00,36.53,0
38.00,36.51,0
34.00,36.48,0
38.00,36.44,0
34.00,36.40,0
37.00,36.35,0
36.00,36.29,0
38.00,36.27,0
34.00,36.26,0
40.00,36.26,0
33.00,36.27,0
39.00,36.28,0
35.00,36.30,0
38.00,36.33,0
34.00,36.34,0
40.00,36.36,0
36.00,36.41,0
39.00,36.50,0
36.00,36.60,0
36.00,36.67,0
36.00,36.71,0
38.00,36.73,0
36.00,36.76,0
35.00,36.76,0
36.00,36.72,0
35.00,36.65,0
37.00,36.57,0
36.00,36.49,0
37.00,36.44,0
34.00,36.38,0
41.00,36.34,0
33.00,36.34,0
39.00,36.35,0
35.00,36.36,0
37.00,36.37,0
33.00,36.35,0
39.00,36.30,0
33.00,36.26,0
39.00,36.22,0
33.00,36.18,0
42.00,36.17,0
31.00,36.19,0
39.00,36.19,0
32.00,36.16,0
40.00,36.12,0
34.00,36.11,0
39.00,36.12,0
35.00,36.15,0
38.00,36.19,0
34.00,36.22,0
38.00,36.24,0
35.00,36.25,0
36.00,36.26,0
37.00,36.25,0
35.00,36.24,0
36.00,36.22,0
33.00,36.17,0
37.00,36.08,0
34.00,35.98,0
39.00,35.91,0
33.00,35.87,0
38.00,35.83,0
33.00,35.79,0
39.00,35.76,0
34.00,35.75,0
37.00,35.76,0
33.00,35.74,0
41.00,35.74,0
33.00,35.78,0
40.00,35.84,0
34.00,35.92,0
41.00,36.02,0
32.00,36.13,0
40.00,36.22,0
34.00,36.30,0
37.00,36.35,0
33.00,36.36,0
41.00,36.35,0
34.00,36.38,0
39.00,36.42,0
36.00,36.47,0
40.00,36.55,0
36.00,36.66,0
38.00,36.77,0
37.00,36.87,0
35.00,36.94,0
37.00,36.96,0
33.00,36.93,0
38.00,36.85,0
35.00,36.77,0
39.00,36.70,0
35.00,36.66,0
38.00,36.63,0
36.00,36.61,0
43.00,36.65,0
32.00,36.75,0
39.00,36.81,0
33.00,36.82,0
40.00,36.81,0
32.00,36.79,0
39.00,36.73,0
32.00,36.65,0
38.00,36.54,0
31.00,36.40,0
41.00,36.25,0
34.00,36.16,0
39.00,36.12,0
36.00,36.11,0
38.00,36.15,0
38.00,36.22,0
37.00,36.32,0
37.00,36.43,0
35.00,36.52,0
38.00,36.58,0
34.00,36.61,0
38.00,36.61,0
34.00,36.60,0
39.00,36.57,0
36.00,36.57,0
39.00,36.60,0
32.00,36.61,0
37.00,36.57,0
32.00,36.48,0
41.00,36.37,0
32.00,36.29,0
39.00,36.22,0
32.00,36.15,0
38.00,36.06,0
31.00,35.95,0
39.00,35.83,0
31.00,35.70,0
39.00,35.59,0
32.00,35.49,0
39.00,35.42,0
34.00,35.38,0
38.00,35.38,0
36.00,35.42,0
37.00,35.49,0
35.00,35.57,0
36.00,35.64,0
33.00,35.67,0
39.00,35.67,0
36.00,35.72,0
34.00,35.77,0
36.00,35.78,0
35.00,35.77,0
36.00,35.76,0
35.00,35.74,0
36.00,35.71,0
33.00,35.67,0
37.00,35.61,0
33.00,35.54,0
36.00,35.47,0
33.00,35.38,0
36.00,35.28,0
33.00,35.18,0
36.00,35.08,0
33.00,34.99,0
36.00,34.90,0
33.00,34.82,0
36.00,34.75,0
34.00,34.69,0
37.00,34.67,0
34.00,34.68,0
36.00,34.71,0
34.00,34.74,0
37.00,34.78,0
35.00,34.84,0
36.00,34.92,0
35.00,35.00,0
36.00,35.07,0
36.00,35.15,0
36.00,35.24,0
36.00,35.34,0
36.00,35.43,0
36.00,35.52,0
36.00,35.60,0
35.00,35.67,0
36.00,35.72,0
35.00,35.74,0
36.00,35.76,0
35.00,35.76,0
36.00,35.75,0
35.00,35.74,0
37.00,35.73,0
35.00,35.73,0
37.00,35.74,0
35.00,35.76,0
36.00,35.77,0
36.00,35.78,0
36.00,35.79,0
36.00,35.81,0
36.00,35.83,0
36.00,35.85,0
36.00,35.87,0
36.00,35.89,0
36.00,35.91,0
36.00,35.93,0
36.00,35.94,0
37.00,35.96,0
36.00,36.00,0
37.00,36.04,0
35.00,36.08,0
37.00,36.11,0
36.00,36.13,0
37.00,36.16,0
35.00,36.19,0
37.00,36.21,0
35.00,36.21,0
37.00,36.21,0
35.00,36.20,0
36.00,36.17,0
35.00,36.13,0
37.00,36.09,0
35.00,36.06,0
36.00,36.02,0
35.00,35.97,0
37.00,35.93,0
35.00,35.90,0
36.00,35.88,0
36.00,35.85,0
37.00,35.84,0
36.00,35.86,0
36.00,35.89,0
36.00,35.91,0
36.00,35.93,0
36.00,35.95,0
35.00,35.96,0
36.00,35.95,0
36.00,35.93,0
36.00,35.92,0
35.00,35.91,0
38.00,35.91,0
35.00,35.92,0
37.00,35.94,0
35.00,35.96,0
37.00,35.98,0
35.00,35.99,0
37.00,36.00,0
35.00,36.01,0
37.00,36.01,0
35.00,36.02,0
37.00,36.02,0
35.00,36.02,0
37.00,36.02,0
35.00,36.02,0
37.00,36.02,0
35.00,36.02,0
36.00,36.01,0
35.00,35.98,0
35.00,35.94,0
36.00,35.88,0
36.00,35.84,0
35.00,35.80,0
35.00,35.75,0
36.00,35.70,0
36.00,35.66,0
36.00,35.64,0
36.00,35.64,0
37.00,35.66,0
36.00,35.70,0
37.00,35.76,0
35.00,35.82,0
37.00,35.87,0
35.00,35.92,0
37.00,35.95,0
35.00,35.98,0
37.00,36.01,0
35.00,36.02,0
37.00,36.03,0
36.00,36.05,0
36.00,36.07,0
35.00,36.07,0
37.00,36.07,0
35.00,36.06,0
37.00,36.05,0
35.00,36.04,0
36.00,36.03,0
35.00,36.00,0
36.00,35.96,0
36.00,35.92,0
36.00,35.90,0
36.00,35.88,0
35.00,35.87,0
36.00,35.84,0
36.00,35.82,0
36.00,35.81,0
36.00,35.81,0
36.00,35.81,0
35.00,35.81,0
37.00,35.81,0
35.00,35.82,0
37.00,35.83,0
36.00,35.85,0
37.00,35.89,0
35.00,35.93,0
37.00,35.96,0
35.00,35.99,0
37.00,36.01,0
35.00,36.02,0
37.00,36.04,0
35.00,36.04,0
38.00,36.05,0
35.00,36.08,0
37.00,36.10,0
35.00,36.12,0
36.00,36.12,0
35.00,36.09,0
36.00,36.06,0
36.00,36.02,0
36.00,35.99,0
36.00,35.97,0
36.00,35.95,0
36.00,35.94,0
36.00,35.94,0
36.00,35.94,0
36.00,35.94,0
36.00,35.94,0
36.00,35.94,0
36.00,35.95,0
35.00,35.94,0
37.00,35.94,0
35.00,35.93,0
36.00,35.92,0
35.00,35.90,0
37.00,35.88,0
35.00,35.87,0
37.00,35.86,0
35.00,35.86,0
36.00,35.86,0
35.00,35.85,0
37.00,35.83,0
35.00,35.83,0
36.00,35.82,0
35.00,35.81,0
37.00,35.79,0
35.00,35.79,0
37.00,35.79,0
35.00,35.80,0
36.00,35.81,0
36.00,35.81,0
36.00,35.82,0
36.00,35.83,0
36.00,35.85,0
36.00,35.86,0
36.00,35.88,0
36.00,35.90,0
35.00,35.90,0
36.00,35.90,0
35.00,35.88,0
37.00,35.86,0
35.00,35.85,0
37.00,35.85,0
35.00,35.85,0
37.00,35.86,0
34.00,35.86,0
37.00,35.85,0
35.00,35.84,0
37.00,35.84,0
35.00,35.84,0
37.00,35.85,0
36.00,35.87,0
36.00,35.89,0
35.00,35.91,0
37.00,35.92,0
35.00,35.92,0
36.00,35.92,0
36.00,35.92,0
35.00,35.91,0
36.00,35.89,0
36.00,35.87,0
36.00,35.86,0
35.00,35.84,0
36.00,35.82,0
35.00,35.80,0
36.00,35.77,0
35.00,35.74,0
36.00,35.70,0
35.00,35.67,0
37.00,35.65,0
35.00,35.65,0
37.00,35.66,0
35.00,35.67,0
36.00,35.69,0
35.00,35.70,0
36.00,35.69,0
36.00,35.69,0
37.00,35.71,0
35.00,35.75,0
36.00,35.77,0
35.00,35.78,0
37.00,35.79,0
35.00,35.80,0
36.00,35.81,0
36.00,35.81,0
35.00,35.81,0
36.00,35.80,0
36.00,35.79,0
36.00,35.79,0
36.00,35.80,0
36.00,35.81,0
36.00,35.83,0
36.00,35.84,0
35.00,35.85,0
36.00,35.85,0
35.00,35.84,0
37.00,35.82,0
35.00,35.82,0
36.00,35.81,0
35.00,35.80,0
37.00,35.78,0
35.00,35.78,0
37.00,35.79,0
35.00,35.80,0
37.00,35.81,0
35.00,35.83,0
37.00,35.85,0
35.00,35.87,0
37.00,35.89,0
35.00,35.91,0
38.00,35.93,0
35.00,35.97,0
37.00,36.01,0
36.00,36.04,0
36.00,36.08,0
36.00,36.10,0
35.00,36.11,0
36.00,36.09,0
36.00,36.07,0
36.00,36.05,0
36.00,36.03,0
36.00,36.02,0
36.00,36.01,0
36.00,36.00,0
35.00,35.98,0
36.00,35.96,0
34.00,35.91,0
36.00,35.85,0
35.00,35.78,0
36.00,35.72,0
35.00,35.67,0
36.00,35.62,0
35.00,35.58,0
37.00,35.56,0
35.00,35.55,0
37.00,35.56,0
35.00,35.59,0
37.00,35.62,0
35.00,35.66,0
36.00,35.69,0
35.00,35.71,0
36.00,35.71,0
36.00,35.72,0
36.00,35.73,0
36.00,35.75,0
35.00,35.77,0
36.00,35.77,0
35.00,35.76,0
36.00,35.75,0
36.00,35.74,0
36.00,35.74,0
36.00,35.75,0
36.00,35.76,0
35.00,35.77,0
37.00,35.78,0
35.00,35.79,0
36.00,35.80,0
35.00,35.80,0
37.00,35.80,0
35.00,35.80,0
36.00,35.80,0
35.00,35.79,0
37.00,35.78,0
35.00,35.78,0
36.00,35.78,0
35.00,35.77,0
36.00,35.76,0
35.00,35.74,0
37.00,35.72,0
35.00,35.72,0
36.00,35.72,0
35.00,35.71,0
36.00,35.70,0
36.00,35.69,0
35.00,35.68,0
36.00,35.67,0
37.00,35.68,0
36.00,35.71,0
36.00,35.75,0
36.00,35.79,0
36.00,35.83,0
36.00,35.86,0
35.00,35.88,0
36.00,35.89,0
36.00,35.88,0
36.00,35.89,0
35.00,35.88,0
36.00,35.87,0
35.00,35.85,0
36.00,35.82,0
35.00,35.79,0
37.00,35.76,0
36.00,35.76,0
36.00,35.77,0
36.00,35.79,0
36.00,35.81,0
35.00,35.82,0
36.00,35.82,0
35.00,35.81,0
37.00,35.80,0
36.00,35.81,0
36.00,35.83,0
36.00,35.85,0
36.00,35.87,0
36.00,35.89,0
36.00,35.91,0
37.00,35.93,0
36.00,35.97,0
37.00,36.02,0
36.00,36.07,0
36.00,36.11,0
35.00,36.14,0
36.00,36.13,0
36.00,36.12,0
37.00,36.11,0
35.00,36.11,0
36.00,36.10,0
35.00,36.07,0
37.00,36.03,0
36.00,36.02,0
36.00,36.01,0
35.00,36.00,0
36.00,35.97,0
35.00,35.94,0
36.00,35.89,0
36.00,35.86,0
36.00,35.84,0
36.00,35.82,0
36.00,35.82,0
36.00,35.82,0
36.00,35.83,0
35.00,35.84,0
36.00,35.83,0
36.00,35.82,0
36.00,35.82,0
37.00,35.83,0
35.00,35.86,0
35.00,35.86,0
35.00,35.84,0
36.00,35.80,0
35.00,35.76,0
36.00,35.73,0
35.00,35.69,0
36.00,35.66,0
36.00,35.63,0
36.00,35.63,0
36.00,35.64,0
36.00,35.66,0
35.00,35.67,0
36.00,35.68,0
36.00,35.69,0
36.00,35.70,0
36.00,35.73,0
36.00,35.75,0
36.00,35.78,0
36.00,35.81,0
36.00,35.84,0
36.00,35.86,0
37.00,35.90,0
36.00,35.94,0
36.00,35.99,0
36.00,36.02,0
36.00,36.05,0
36.00,36.06,0
36.00,36.07,0
35.00,36.07,0
37.00,36.06,0
35.00,36.05,0
36.00,36.03,0
36.00,36.01,0
36.00,35.99,0
36.00,35.98,0
36.00,35.97,0
35.00,35.95,0
36.00,35.93,0
36.00,35.90,0
36.00,35.89,0
36.00,35.88,0
36.00,35.87,0
36.00,35.88,0
37.00,35.89,0
36.00,35.92,0
36.00,35.96,0
36.00,35.98,0
35.00,36.00,0
36.00,35.99,0
35.00,35.97,0
37.00,35.95,0
36.00,35.94,0
36.00,35.94,0
35.00,35.94,0
37.00,35.93,0
36.00,35.94,0
36.00,35.95,0
35.00,35.95,0
37.00,35.95,0
35.00,35.95,0
37.00,35.95,0
35.00,35.95,0
36.00,35.95,0
35.00,35.93,0
37.00,35.91,0
36.00,35.90,0
36.00,35.91,0
35.00,35.91,0
37.00,35.91,0
36.00,35.92,0
36.00,35.93,0
36.00,35.95,0
36.00,35.96,0
36.00,35.97,0
36.00,35.98,0
36.00,35.99,0
36.00,36.00,0
36.00,36.00,0
37.00,36.01,0
37.00,36.05,0
36.00,36.10,0
36.00,36.14,0
35.00,36.16,0
36.00,36.15,0
35.00,36.12,0
37.00,36.09,0
36.00,36.07,0
36.00,36.06,0
35.00,36.05,0
37.00,36.02,0
34.00,36.00,0
37.00,35.96,0
36.00,35.93,0
37.00,35.93,0
35.00,35.94,0
37.00,35.95,0
35.00,35.96,0
37.00,35.97,0
35.00,35.97,0
36.00,35.97,0
36.00,35.96,0
37.00,35.97,0
36.00,35.99,0
36.00,36.01,0
36.00,36.03,0
36.00,36.04,0
37.00,36.06,0
36.00,36.08,0
36.00,36.11,0
36.00,36.13,0
36.00,36.13,0
36.00,36.14,0
37.00,36.14,0
35.00,36.15,0
36.00,36.14,0
36.00,36.12,0
37.00,36.11,0
34.00,36.10,0
37.00,36.07,0
34.00,36.03,0
37.00,35.98,0
34.00,35.93,0
37.00,35.88,0
35.00,35.83,0
37.00,35.80,0
35.00,35.79,0
38.00,35.79,0
36.00,35.82,0
36.00,35.87,0
36.00,35.91,0
37.00,35.96,0
36.00,36.01,0
36.00,36.05,0
36.00,36.09,0
36.00,36.11,0
37.00,36.13,0
36.00,36.16,0
37.00,36.19,0
34.00,36.21,0
37.00,36.20,0
35.00,36.18,0
37.00,36.16,0
35.00,36.13,0
37.00,36.11,0
34.00,36.08,0
38.00,36.05,0
36.00,36.04,0
38.00,36.07,0
34.00,36.10,0
38.00,36.12,0
34.00,36.13,0
37.00,36.13,0
35.00,36.11,0
37.00,36.10,0
35.00,36.08,0
37.00,36.07,0
35.00,36.06,0
37.00,36.05,0
35.00,36.04,0
37.00,36.03,0
36.00,36.03,0
36.00,36.03,0
36.00,36.04,0
35.00,36.03,0
37.00,36.02,0
35.00,36.01,0
36.00,35.99,0
35.00,35.96,0
36.00,35.92,0
34.00,35.87,0
38.00,35.82,0
35.00,35.80,0
37.00,35.80,0
34.00,35.79,0
37.00,35.78,0
35.00,35.77,0
37.00,35.77,0
34.00,35.77,0
37.00,35.76,0
34.00,35.74,0
38.00,35.73,0
34.00,35.73,0
37.00,35.73,0
34.00,35.72,0
38.00,35.72,0
37.00,35.75,0
37.00,35.82,0
36.00,35.91,0
36.00,35.99,0
36.00,36.04,0
37.00,36.10,0
37.00,36.16,0
36.00,36.22,0
37.00,36.28,0
36.00,36.33,0
36.00,36.37,0
35.00,36.38,0
35.00,36.35,0
34.00,36.27,0
37.00,36.17,0
35.00,36.08,0
37.00,36.01,0
35.00,35.95,0
36.00,35.91,0
35.00,35.86,0
37.00,35.81,0
35.00,35.79,0
38.00,35.79,0
34.00,35.80,0
37.00,35.81,0
34.00,35.80,0
38.00,35.80,0
33.00,35.79,0
37.00,35.77,0
34.00,35.74,0
37.00,35.70,0
35.00,35.68,0
37.00,35.67,0
36.00,35.68,0
36.00,35.71,0
36.00,35.75,0
38.00,35.79,0
36.00,35.87,0
36.00,35.95,0
37.00,36.02,0
36.00,36.09,0
38.00,36.16,0
35.00,36.24,0
37.00,36.30,0
35.00,36.33,0
38.00,36.36,0
34.00,36.37,0
38.00,36.37,0
34.00,36.36,0
38.00,36.33,0
34.00,36.31,0
38.00,36.28,0
34.00,36.24,0
38.00,36.21,0
35.00,36.19,0
38.00,36.18,0
34.00,36.18,0
38.00,36.17,0
35.00,36.16,0
37.00,36.16,0
34.00,36.15,0
37.00,36.12,0
36.00,36.09,0
36.00,36.07,0
35.00,36.05,0
37.00,36.02,0
37.00,36.02,0
35.00,36.03,0
36.00,36.03,0
35.00,36.01,0
36.00,35.98,0
35.00,35.94,0
37.00,35.91,0
35.00,35.88,0
38.00,35.88,0
34.00,35.88,0
36.00,35.88,0
35.00,35.85,0
38.00,35.84,0
34.00,35.84,0
38.00,35.85,0
34.00,35.86,0
37.00,35.86,0
34.00,35.85,0
37.00,35.83,0
33.00,35.80,0
38.00,35.76,0
33.00,35.72,0
38.00,35.68,0
34.00,35.65,0
37.00,35.63,0
34.00,35.62,0
37.00,35.60,0
34.00,35.58,0
36.00,35.56,0
35.00,35.53,0
37.00,35.52,0
35.00,35.52,0
37.00,35.54,0
37.00,35.59,0
35.00,35.66,0
37.00,35.72,0
35.00,35.77,0
36.00,35.81,0
35.00,35.84,0
36.00,35.84,0
35.00,35.83,0
37.00,35.83,0
35.00,35.83,0
36.00,35.82,0
35.00,35.81,0
36.00,35.79,0
35.00,35.77,0
36.00,35.74,0
36.00,35.72,0
36.00,35.71,0
35.00,35.71,0
36.00,35.70,0
35.00,35.68,0
36.00,35.67,0
35.00,35.65,0
36.00,35.63,0
35.00,35.61,0
36.00,35.59,0
35.00,35.58,0
36.00,35.56,0
35.00,35.55,0
37.00,35.55,0
35.00,35.56,0
36.00,35.57,0
35.00,35.58,0
36.00,35.59,0
35.00,35.59,0
36.00,35.58,0
35.00,35.58,0
36.00,35.57,0
35.00,35.57,0
36.00,35.56,0
35.00,35.55,0
37.00,35.55,0
35.00,35.57,0
36.00,35.58,0
35.00,35.60,0
37.00,35.61,0
35.00,35.63,0
36.00,35.65,0
36.00,35.67,0
36.00,35.70,0
36.00,35.73,0
35.00,35.75,0
35.00,35.75,0
36.00,35.74,0
36.00,35.72,0
36.00,35.72,0
36.00,35.73,0
36.00,35.75,0
36.00,35.77,0
36.00,35.79,0
36.00,35.82,0
35.00,35.83,0
36.00,35.83,0
35.00,35.82,0
37.00,35.81,0
35.00,35.81,0
37.00,35.82,0
35.00,35.83,0
37.00,35.84,0
35.00,35.86,0
38.00,35.88,0
35.00,35.92,0
37.00,35.96,0
35.00,35.99,0
36.00,36.01,0
35.00,36.01,0
36.00,35.99,0
35.00,35.95,0
36.00,35.92,0
36.00,35.88,0
36.00,35.86,0
36.00,35.84,0
36.00,35.84,0
36.00,35.84,0
36.00,35.85,0
36.00,35.86,0
36.00,35.87,0
37.00,35.89,0
36.00,35.93,0
36.00,35.97,0
35.00,35.99,0
37.00,36.00,0
35.00,36.01,0
36.00,36.00,0
35.00,35.98,0
36.00,35.95,0
35.00,35.92,0
37.00,35.88,0
35.00,35.86,0
37.00,35.85,0
35.00,35.84,0
36.00,35.84,0
35.00,35.82,0
36.00,35.80,0
35.00,35.77,0
36.00,35.74,0
35.00,35.71,0
37.00,35.69,0
35.00,35.68,0
36.00,35.68,0
36.00,35.68,0
36.00,35.69,0
36.00,35.71,0
35.00,35.72,0
36.00,35.73,0
36.00,35.73,0
35.00,35.74,0
36.00,35.73,0
36.00,35.73,0
36.00,35.73,0
36.00,35.75,0
35.00,35.76,0
36.00,35.76,0
35.00,35.75,0
36.00,35.73,0
35.00,35.72,0
37.00,35.70,0
35.00,35.70,0
37.00,35.71,0
35.00,35.73,0
36.00,35.74,0
35.00,35.74,0
37.00,35.75,0
35.00,35.76,0
36.00,35.76,0
35.00,35.76,0
37.00,35.76,0
35.00,35.76,0
37.00,35.78,0
35.00,35.79,0
36.00,35.80,0
36.00,35.81,0
35.00,35.81,0
36.00,35.81,0
37.00,35.81,0
36.00,35.83,0
36.00,35.86,0
36.00,35.89,0
36.00,35.91,0
36.00,35.94,0
35.00,35.95,0
36.00,35.94,0
35.00,35.92,0
36.00,35.89,0
35.00,35.86,0
36.00,35.82,0
35.00,35.78,0
37.00,35.75,0
35.00,35.73,0
37.00,35.73,0
35.00,35.74,0
37.00,35.75,0
35.00,35.77,0
36.00,35.78,0
35.00,35.78,0
36.00,35.77,0
35.00,35.76,0
37.00,35.75,0
35.00,35.75,0
37.00,35.75,0
35.00,35.77,0
36.00,35.78,0
36.00,35.78,0
36.00,35.80,0
36.00,35.81,0
35.00,35.82,0
36.00,35.82,0
36.00,35.81,0
36.00,35.82,0
35.00,35.82,0
36.00,35.81,0
35.00,35.79,0
36.00,35.76,0
35.00,35.74,0
37.00,35.72,0
36.00,35.72,0
37.00,35.75,0
35.00,35.79,0
37.00,35.82,0
35.00,35.86,0
37.00,35.89,0
35.00,35.91,0
37.00,35.94,0
35.00,35.96,0
36.00,35.96,0
35.00,35.95,0
37.00,35.94,0
35.00,35.93,0
37.00,35.93,0
35.00,35.93,0
37.00,35.93,0
35.00,35.93,0
36.00,35.93,0
35.00,35.91,0
35.00,35.88,0
36.00,35.83,0
36.00,35.79,0
36.00,35.77,0
36.00,35.76,0
36.00,35.76,0
35.00,35.76,0
35.00,35.75,0
35.00,35.71,0
36.00,35.66,0
35.00,35.63,0
36.00,35.59,0
34.00,35.56,0
37.00,35.52,0
35.00,35.50,0
37.00,35.50,0
35.00,35.52,0
36.00,35.54,0
35.00,35.55,0
37.00,35.57,0
36.00,35.60,0
37.00,35.66,0
35.00,35.72,0
36.00,35.77,0
35.00,35.80,0
37.00,35.82,0
35.00,35.84,0
37.00,35.86,0
36.00,35.89,0
37.00,35.93,0
36.00,35.98,0
36.00,36.03,0
36.00,36.07,0
36.00,36.09,0
36.00,36.11,0
36.00,36.11,0
36.00,36.12,0
36.00,36.11,0
36.00,36.11,0
36.00,36.10,0
37.00,36.10,0
34.00,36.10,0
36.00,36.07,0
35.00,36.02,0
37.00,35.97,0
35.00,35.93,0
36.00,35.90,0
35.00,35.86,0
37.00,35.83,0
35.00,35.81,0
36.00,35.79,0
35.00,35.77,0
36.00,35.75,0
34.00,35.71,0
36.00,35.66,0
35.00,35.61,0
37.00,35.57,0
35.00,35.56,0
36.00,35.56,0
35.00,35.55,0
36.00,35.55,0
36.00,35.55,0
36.00,35.57,0
36.00,35.59,0
36.00,35.63,0
36.00,35.67,0
36.00,35.71,0
36.00,35.75,0
35.00,35.78,0
36.00,35.79,0
35.00,35.79,0
36.00,35.78,0
35.00,35.77,0
37.00,35.76,0
35.00,35.75,0
37.00,35.76,0
34.00,35.77,0
36.00,35.75,0
35.00,35.73,0
36.00,35.70,0
35.00,35.67,0
36.00,35.64,0
35.00,35.62,0
35.00,35.59,0
35.00,35.54,0
37.00,35.51,0
35.00,35.50,0
37.00,35.51,0
35.00,35.53,0
36.00,35.56,0
36.00,35.58,0
36.00,35.62,0
36.00,35.65,0
35.00,35.69,0
36.00,35.70,0
36.00,35.72,0
36.00,35.74,0
35.00,35.76,0
36.00,35.76,0
36.00,35.76,0
36.00,35.77,0
35.00,35.78,0
37.00,35.78,0
35.00,35.79,0
37.00,35.81,0
35.00,35.83,0
36.00,35.84,0
35.00,35.83,0
37.00,35.83,0
35.00,35.83,0
37.00,35.84,0
35.00,35.85,0
36.00,35.85,0
35.00,35.85,0
37.00,35.84,0
35.00,35.83,0
37.00,35.84,0
35.00,35.85,0
37.00,35.86,0
35.00,35.87,0
36.00,35.88,0
36.00,35.88,0
36.00,35.88,0
36.00,35.89,0
36.00,35.90,0
36.00,35.91,0
36.00,35.92,0
36.00,35.93,0
35.00,35.93,0
36.00,35.92,0
36.00,35.91,0
37.00,35.91,0
35.00,35.92,0
36.00,35.92,0
35.00,35.91,0
36.00,35.89,0
35.00,35.86,0
36.00,35.82,0
35.00,35.79,0
36.00,35.75,0
35.00,35.71,0
37.00,35.68,0
35.00,35.68,0
37.00,35.68,0
35.00,35.69,0
36.00,35.70,0
35.00,35.71,0
36.00,35.70,0
36.00,35.70,0
37.00,35.72,0
35.00,35.75,0
36.00,35.77,0
36.00,35.79,0
36.00,35.81,0
36.00,35.83,0
35.00,35.84,0
36.00,35.84,0
36.00,35.84,0
36.00,35.84,0
36.00,35.85,0
36.00,35.86,0
36.00,35.87,0
36.00,35.88,0
36.00,35.90,0
36.00,35.91,0
35.00,35.92,0
36.00,35.91,0
34.00,35.88,0
37.00,35.84,0
35.00,35.80,0
36.00,35.77,0
35.00,35.74,0
36.00,35.71,0
35.00,35.68,0
36.00,35.65,0
36.00,35.63,0
36.00,35.63,0
35.00,35.63,0
36.00,35.63,0
35.00,35.62,0
37.00,35.62,0
34.00,35.63,0
36.00,35.62,0
35.00,35.60,0
36.00,35.58,0
36.00,35.57,0
35.00,35.57,0
36.00,35.57,0
36.00,35.57,0
36.00,35.59,0
35.00,35.61,0
36.00,35.62,0
36.00,35.63,0
36.00,35.65,0
35.00,35.67,0
37.00,35.69,0
36.00,35.72,0
37.00,35.77,0
35.00,35.83,0
36.00,35.86,0
35.00,35.88,0
37.00,35.89,0
35.00,35.90,0
37.00,35.91,0
35.00,35.92,0
37.00,35.93,0
35.00,35.94,0
37.00,35.95,0
35.00,35.96,0
36.00,35.96,0
35.00,35.95,0
37.00,35.93,0
35.00,35.92,0
35.00,35.90,0
35.00,35.85,0
36.00,35.79,0
36.00,35.75,0
35.00,35.72,0
36.00,35.68,0
36.00,35.66,0
36.00,35.66,0
36.00,35.66,0
36.00,35.68,0
35.00,35.69,0
36.00,35.70,0
35.00,35.70,0
37.00,35.70,0
35.00,35.71,0
36.00,35.71,0
35.00,35.71,0
36.00,35.71,0
35.00,35.69,0
36.00,35.68,0
35.00,35.66,0
36.00,35.64,0
35.00,35.62,0
36.00,35.60,0
35.00,35.59,0
37.00,35.58,0
35.00,35.59,0
36.00,35.60,0
35.00,35.60,0
37.00,35.61,0
35.00,35.63,0
35.00,35.64,0
35.00,35.63,0
36.00,35.61,0
36.00,35.59,0
36.00,35.60,0
36.00,35.61,0
35.00,35.63,0
36.00,35.64,0
35.00,35.64,0
36.00,35.64,0
36.00,35.64,0
37.00,35.66,0
36.00,35.70,0
36.00,35.76,0
35.00,35.79,0
36.00,35.81,0
35.00,35.82,0
36.00,35.81,0
35.00,35.80,0
36.00,35.77,0
36.00,35.76,0
36.00,35.75,0
35.00,35.75,0
36.00,35.74,0
35.00,35.72,0
36.00,35.70,0
35.00,35.68,0
36.00,35.66,0
35.00,35.63,0
36.00,35.61,0
36.00,35.60,0
35.00,35.60,0
38.00,35.61,0
35.00,35.65,0
36.00,35.69,0
36.00,35.72,0
36.00,35.75,0
35.00,35.78,0
36.00,35.79,0
35.00,35.79,0
36.00,35.78,0
36.00,35.77,0
36.00,35.77,0
36.00,35.78,0
36.00,35.79,0
35.00,35.80,0
36.00,35.80,0
36.00,35.79,0
36.00,35.80,0
35.00,35.80,0
36.00,35.79,0
35.00,35.77,0
36.00,35.75,0
36.00,35.74,0
36.00,35.73,0
35.00,35.73,0
36.00,35.72,0
36.00,35.71,0
35.00,35.71,0
36.00,35.70,0
35.00,35.69,0
35.00,35.66,0
36.00,35.63,0
36.00,35.61,0
35.00,35.60,0
36.00,35.59,0
35.00,35.57,0
36.00,35.56,0
35.00,35.55,0
36.00,35.54,0
35.00,35.53,0
36.00,35.53,0
36.00,35.53,0
36.00,35.54,0
35.00,35.56,0
36.00,35.58,0
35.00,35.58,0
37.00,35.59,0
36.00,35.63,0
36.00,35.67,0
36.00,35.71,0
36.00,35.76,0
36.00,35.80,0
36.00,35.83,0
35.00,35.86,0
36.00,35.87,0
36.00,35.87,0
35.00,35.87,0
36.00,35.85,0
36.00,35.84,0
36.00,35.83,0
36.00,35.84,0
36.00,35.84,0
35.00,35.84,0
37.00,35.84,0
35.00,35.85,0
36.00,35.85,0
35.00,35.83,0
36.00,35.81,0
35.00,35.79,0
37.00,35.77,0
35.00,35.76,0
37.00,35.76,0
35.00,35.77,0
36.00,35.78,0
35.00,35.77,0
36.00,35.76,0
35.00,35.74,0
36.00,35.72,0
36.00,35.71,0
36.00,35.70,0
36.00,35.71,0
36.00,35.73,0
35.00,35.74,0
36.00,35.74,0
36.00,35.74,0
36.00,35.75,0
36.00,35.77,0
35.00,35.78,0
38.00,35.80,0
35.00,35.83,0
37.00,35.87,0
35.00,35.91,0
36.00,35.93,0
35.00,35.93,0
37.00,35.93,0
35.00,35.93,0
37.00,35.93,0
35.00,35.93,0
37.00,35.94,0
35.00,35.94,0
36.00,35.94,0
35.00,35.92,0
36.00,35.90,0
35.00,35.86,0
36.00,35.83,0
35.00,35.79,0
36.00,35.75,0
36.00,35.72,0
36.00,35.71,0
35.00,35.70,0
35.00,35.68,0
35.00,35.64,0
36.00,35.60,0
36.00,35.57,0
36.00,35.56,0
36.00,35.57,0
35.00,35.59,0
36.00,35.59,0
35.00,35.60,0
37.00,35.60,0
35.00,35.62,0
36.00,35.64,0
35.00,35.65,0
36.00,35.65,0
35.00,35.65,0
37.00,35.65,0
35.00,35.66,0
37.00,35.68,0
35.00,35.71,0
36.00,35.73,0
35.00,35.74,0
36.00,35.74,0
34.00,35.72,0
37.00,35.69,0
35.00,35.67,0
35.00,35.65,0
36.00,35.62,0
36.00,35.60,0
35.00,35.60,0
36.00,35.59,0
36.00,35.58,0
36.00,35.60,0
36.00,35.62,0
36.00,35.65,0
36.00,35.68,0
35.00,35.71,0
36.00,35.73,0
35.00,35.73,0
36.00,35.73,0
35.00,35.71,0
36.00,35.70,0
35.00,35.68,0
37.00,35.67,0
35.00,35.67,0
37.00,35.68,0
35.00,35.70,0
37.00,35.73,0
35.00,35.76,0
37.00,35.79,0
35.00,35.81,0
37.00,35.84,0
36.00,35.88,0
36.00,35.92,0
36.00,35.95,0
36.00,35.98,0
36.00,36.00,0
36.00,36.01,0
36.00,36.02,0
37.00,36.04,0
35.00,36.06,0
36.00,36.06,0
36.00,36.06,0
35.00,36.04,0
36.00,36.01,0
36.00,35.98,0
36.00,35.96,0
36.00,35.94,0
36.00,35.93,0
34.00,35.91,0
37.00,35.87,0
34.00,35.83,0
37.00,35.79,0
35.00,35.75,0
37.00,35.73,0
35.00,35.73,0
37.00,35.74,0
35.00,35.75,0
37.00,35.77,0
35.00,35.79,0
38.00,35.82,0
35.00,35.87,0
36.00,35.91,0
35.00,35.92,0
36.00,35.92,0
36.00,35.92,0
35.00,35.90,0
36.00,35.88,0
36.00,35.86,0
36.00,35.85,0
36.00,35.85,0
37.00,35.86,0
35.00,35.88,0
35.00,35.88,0
37.00,35.87,0
36.00,35.88,0
36.00,35.89,0
36.00,35.91,0
37.00,35.93,0
37.00,35.98,0
34.00,36.02,0
37.00,36.03,0
34.00,36.03,0
37.00,36.01,0
35.00,35.98,0
36.00,35.96,0
35.00,35.92,0
37.00,35.89,0
34.00,35.86,0
37.00,35.82,0
35.00,35.80,0
36.00,35.77,0
34.00,35.74,0
37.00,35.70,0
35.00,35.67,0
36.00,35.64,0
36.00,35.63,0
36.00,35.64,0
36.00,35.65,0
36.00,35.67,0
35.00,35.69,0
36.00,35.70,0
37.00,35.72,0
36.00,35.76,0
36.00,35.80,0
36.00,35.84,0
36.00,35.88,0
35.00,35.90,0
36.00,35.91,0
34.00,35.89,0
37.00,35.85,0
34.00,35.81,0
37.00,35.77,0
35.00,35.74,0
36.00,35.72,0
35.00,35.69,0
37.00,35.68,0
35.00,35.68,0
38.00,35.69,0
35.00,35.73,0
37.00,35.78,0
36.00,35.83,0
36.00,35.88,0
35.00,35.92,0
37.00,35.94,0
35.00,35.96,0
36.00,35.97,0
36.00,35.97,0
37.00,35.97,0
36.00,36.00,0
35.00,36.01,0
36.00,36.01,0
35.00,35.99,0
37.00,35.97,0
35.00,35.95,0
36.00,35.93,0
36.00,35.91,0
37.00,35.91,0
34.00,35.91,0
37.00,35.89,0
34.00,35.87,0
36.00,35.83,0
35.00,35.78,0
37.00,35.75,0
34.00,35.72,0
37.00,35.69,0
35.00,35.67,0
36.00,35.66,0
35.00,35.64,0
37.00,35.63,0
35.00,35.64,0
37.00,35.66,0
36.00,35.69,0
36.00,35.73,0
35.00,35.77,0
37.00,35.79,0
35.00,35.82,0
37.00,35.84,0
34.00,35.86,0
36.00,35.85,0
36.00,35.83,0