360.00,247.44,1
91.00,255.32,1
218.00,259.12,1
166.00,259.08,1
57.00,255.47,1
192.00,248.12,1
241.00,239.94,1
83.00,232.05,1
59.00,222.22,1
421.00,212.54,1
364.00,208.65,1
62.00,208.83,1
249.00,208.15,1
133.00,206.49,1
191.00,204.23,1
115.00,200.96,1
197.00,196.93,1
137.00,192.70,1
437.00,190.63,1
197.00,192.73,1
68.00,195.38,1
67.00,194.22,1
235.00,190.54,1
291.00,188.28,1
156.00,188.39,1
134.00,188.33,1
308.00,188.11,1
51.00,188.34,1
298.00,188.15,1
78.00,187.77,1
331.00,187.76,1
319.00,190.30,1
91.00,194.72,1
62.00,196.31,1
89.00,193.53,1
76.00,187.65,1
294.00,181.39,1
52.00,176.56,1
674.00,175.92,1
383.00,184.57,1
219.00,198.73,1
55.00,210.15,1
136.00,215.68,1
216.00,217.22,1
117.00,216.86,1
88.00,213.81,1
210.00,208.56,1
58.00,202.34,1
107.00,194.48,1
50.00,184.70,1
50.00,173.27,1
366.00,163.11,1
170.00,157.89,1
71.00,155.12,1
238.00,152.43,1
186.00,151.42,1
314.00,153.29,1
471.00,160.31,1
114.00,171.70,1
110.00,181.37,1
107.00,186.30,1
94.00,187.34,1
122.00,185.38,1
187.00,182.09,1
169.00,179.07,1
63.00,175.70,1
35.00,170.06,1
74.00,161.84,1
42.00,152.09,1
413.00,144.38,1
50.00,141.37,1
52.00,139.09,1
253.00,136.12,1
72.00,134.58,1
354.00,135.18,1
95.00,138.40,1
128.00,141.84,1
183.00,144.15,1
58.00,145.71,1
71.00,145.12,1
413.00,144.95,1
76.00,148.07,1
49.00,150.63,1
60.00,149.48,1
78.00,145.69,1
76.00,140.41,1
214.00,135.41,1
164.00,132.67,1
100.00,131.52,1
198.00,130.94,1
157.00,131.58,1
111.00,132.87,1
98.00,133.39,1
72.00,132.50,1
229.00,131.34,1
62.00,131.03,1
86.00,130.09,1
167.00,128.39,1
178.00,127.80,1
297.00,129.95,1
152.00,134.95,1
132.00,140.35,1
133.00,144.34,1
54.00,146.36,1
127.00,146.09,1
61.00,144.10,1
64.00,140.40,1
53.00,134.93,1
90.00,128.45,1
116.00,122.16,1
144.00,117.20,1
89.00,113.63,1
384.00,113.04,1
102.00,116.79,1
100.00,121.46,1
272.00,125.74,1
38.00,130.48,1
87.00,133.37,1
156.00,134.17,1
76.00,134.26,1
98.00,133.24,1
92.00,131.06,1
108.00,128.30,1
143.00,125.69,1
51.00,123.22,1
275.00,121.57,1
140.00,122.43,1
202.00,125.31,1
62.00,128.37,1
106.00,130.03,1
41.00,129.59,1
71.00,127.09,1
58.00,122.98,1
96.00,118.11,1
133.00,113.68,1
188.00,111.10,1
403.00,113.00,1
43.00,119.29,1
90.00,124.92,1
68.00,127.46,1
162.00,128.39,1
275.00,130.38,1
263.00,135.65,1
75.00,142.41,1
184.00,147.77,1
65.00,151.16,1
271.00,153.57,1
48.00,155.73,1
255.00,157.37,1
152.00,159.28,1
127.00,161.14,1
120.00,161.56,1
58.00,160.04,1
61.00,156.07,1
94.00,150.14,1
179.00,144.20,1
105.00,139.52,1
200.00,136.21,1
85.00,134.09,1
133.00,132.20,1
93.00,130.06,1
127.00,127.82,1
168.00,126.14,1
266.00,126.73,1
104.00,129.67,1
45.00,131.90,1
300.00,133.32,1
76.00,135.97,1
174.00,138.66,1
97.00,140.42,1
62.00,140.67,1
61.00,138.52,1
96.00,134.60,1
90.00,129.99,1
55.00,124.92,1
108.00,119.48,1
155.00,114.92,1
122.00,112.12,1
126.00,110.64,1
39.00,109.26,1
135.00,107.40,1
116.00,105.94,1
183.00,105.90,1
56.00,106.82,1
38.00,106.73,1
131.00,105.28,1
49.00,103.59,1
52.00,101.20,1
38.00,97.62,1
109.00,93.62,1
54.00,90.04,1
38.00,86.45,1
204.00,83.63,1
139.00,83.55,1
74.00,85.32,1
54.00,86.66,1
47.00,86.70,1
76.00,85.72,1
125.00,84.82,1
49.00,84.43,1
100.00,84.02,1
116.00,83.94,1
106.00,84.73,1
82.00,85.91,1
228.00,88.10,1
52.00,91.71,1
96.00,94.96,1
280.00,98.63,1
82.00,104.27,1
150.00,110.03,1
38.00,114.22,1
225.00,117.36,1
49.00,120.30,1
179.00,122.71,1
61.00,124.35,1
60.00,124.45,1
69.00,122.45,1
175.00,119.98,1
304.00,120.16,1
102.00,123.66,1
121.00,127.43,1
167.00,130.30,1
111.00,132.84,1
67.00,134.16,1
108.00,133.65,1
274.00,133.44,1
116.00,135.25,1
73.00,136.94,1
98.00,136.67,1
66.00,134.69,1
223.00,132.48,1
291.00,133.07,1
278.00,138.06,1
446.00,148.00,1
160.00,161.66,1
256.00,175.14,1
93.00,185.90,1
81.00,192.25,1
148.00,193.99,1
91.00,192.76,1
107.00,189.06,1
116.00,183.46,1
72.00,176.54,1
380.00,170.74,1
423.00,171.05,1
132.00,176.89,1
161.00,182.49,1
173.00,185.89,1
49.00,186.92,1
44.00,184.12,1
83.00,177.72,1
91.00,169.43,1
81.00,160.38,1
122.00,151.30,1
141.00,143.24,1
162.00,137.06,1
63.00,132.20,1
46.00,126.90,1
108.00,120.82,1
158.00,115.69,1
251.00,113.56,1
202.00,115.35,1
69.00,118.88,1
39.00,120.75,1
259.00,121.53,1
39.00,123.03,1
142.00,124.06,1
56.00,123.86,1
36.00,121.99,1
199.00,119.22,1
37.00,117.08,1
132.00,114.92,1
68.00,112.53,1
42.00,109.54,1
132.00,105.98,1
130.00,103.39,1
106.00,102.13,1
126.00,101.67,1
138.00,102.08,1
88.00,103.07,1
136.00,104.14,1
130.00,105.56,1
86.00,107.14,1
44.00,107.65,1
63.00,106.41,1
37.00,103.67,1
74.00,99.88,1
96.00,96.03,1
476.00,96.06,1
61.00,102.13,1
247.00,110.39,1
313.00,120.20,1
100.00,131.74,1
203.00,142.07,1
239.00,151.38,1
264.00,161.26,1
261.00,171.95,1
186.00,182.43,1
99.00,190.42,1
64.00,193.87,1
130.00,193.01,1
62.00,189.18,1
215.00,183.89,1
105.00,178.71,1
327.00,175.09,1
175.00,174.27,1
58.00,173.97,1
78.00,171.03,1
44.00,165.24,1
170.00,158.13,1
88.00,151.39,1
260.00,146.28,1
67.00,143.12,1
286.00,141.64,1
213.00,142.89,1
44.00,145.37,1
47.00,145.29,1
102.00,142.40,1
44.00,137.92,1
49.00,131.91,1
92.00,124.92,1
36.00,117.70,1
64.00,110.20,1
59.00,102.69,1
48.00,95.49,1
146.00,89.36,1
229.00,86.45,1
38.00,86.72,1
212.00,88.34,1
170.00,91.90,1
40.00,96.48,1
86.00,99.53,1
177.00,101.77,1
171.00,105.17,1
88.00,109.31,1
143.00,112.89,1
192.00,116.56,1
38.00,120.18,1
182.00,122.67,1
166.00,125.20,1
124.00,128.28,1
72.00,130.39,1
38.00,130.17,1
69.00,127.49,1
125.00,123.71,1
45.00,119.75,1
50.00,114.97,1
53.00,109.15,1
70.00,102.98,1
39.00,96.79,1
150.00,91.35,1
68.00,87.56,1
59.00,84.65,1
69.00,81.74,1
95.00,79.24,1
49.00,77.27,1
39.00,75.13,1
66.00,72.61,1
36.00,70.01,1
86.00,67.57,1
54.00,65.64,1
38.00,63.93,1
58.00,62.06,1
80.00,60.53,1
54.00,59.61,1
56.00,58.97,1
170.00,59.30,1
43.00,61.23,1
160.00,64.12,1
52.00,67.63,1
88.00,70.98,1
173.00,74.50,1
69.00,78.87,1
70.00,82.73,1
38.00,84.96,1
48.00,85.44,1
108.00,84.99,1
48.00,84.40,1
151.00,84.11,1
98.00,84.81,1
120.00,86.42,1
75.00,88.20,1
41.00,89.21,1
106.00,89.18,1
60.00,88.80,1
120.00,88.43,1
103.00,88.57,1
80.00,89.10,1
42.00,89.08,1
57.00,87.93,1
86.00,86.15,1
44.00,84.21,1
67.00,81.94,1
42.00,79.32,1
156.00,77.24,1
52.00,76.45,1
36.00,75.78,1
69.00,74.35,1
108.00,73.15,1
50.00,72.58,1
92.00,72.23,1
141.00,72.67,1
192.00,75.29,1
94.00,79.91,1
54.00,84.37,1
86.00,87.34,1
110.00,89.49,1
99.00,91.51,1
208.00,94.29,1
122.00,98.56,1
291.00,104.70,1
78.00,112.37,1
63.00,118.71,1
79.00,121.90,1
104.00,122.98,1
48.00,122.51,1
68.00,120.30,1
66.00,116.71,1
81.00,112.44,1
99.00,108.18,1
42.00,104.02,1
38.00,99.25,1
108.00,94.20,1
99.00,90.17,1
40.00,86.99,1
175.00,84.63,1
82.00,83.95,1
146.00,84.68,1
115.00,86.46,1
121.00,89.07,1
39.00,91.38,1
53.00,92.19,1
60.00,91.43,1
95.00,90.04,1
160.00,89.40,1
61.00,89.89,1
88.00,90.36,1
74.00,90.29,1
141.00,90.38,1
64.00,90.93,1
40.00,90.90,1
52.00,89.50,1
44.00,87.02,1
69.00,83.99,1
49.00,80.82,1
86.00,77.82,1
82.00,75.48,1
64.00,73.80,1
157.00,73.13,1
86.00,74.04,1
36.00,75.31,1
150.00,76.33,1
40.00,77.70,1
92.00,78.82,1
129.00,79.99,1
50.00,81.55,1
108.00,82.82,1
48.00,83.64,1
68.00,83.74,1
92.00,83.33,1
46.00,82.73,1
144.00,82.24,1
64.00,82.44,1
95.00,82.90,1
50.00,83.01,1
67.00,82.52,1
124.00,81.97,1
66.00,81.99,1
78.00,82.05,1
77.00,81.86,1
68.00,81.48,1
151.00,81.51,1
73.00,82.51,1
90.00,83.74,1
48.00,84.39,1
248.00,85.68,1
48.00,88.76,1
45.00,91.38,1
95.00,92.27,1
116.00,92.80,1
58.00,93.31,1
46.00,92.91,1
37.00,91.08,1
109.00,88.56,1
64.00,86.35,1
81.00,84.45,1
55.00,82.54,1
96.00,80.72,1
218.00,80.53,1
85.00,82.85,1
36.00,85.37,1
38.00,86.07,1
246.00,86.72,1
92.00,89.50,1
92.00,92.98,1
83.00,95.51,1
74.00,97.02,1
84.00,97.56,1
192.00,98.33,1
86.00,100.26,1
75.00,102.03,1
80.00,102.62,1
39.00,101.92,1
51.00,99.74,1
160.00,97.28,1
193.00,96.88,1
55.00,98.33,1
168.00,100.08,1
48.00,101.73,1
84.00,102.49,1
214.00,103.23,1
255.00,106.71,1
50.00,112.25,1
157.00,116.98,1
104.00,120.58,1
99.00,123.16,1
46.00,123.93,1
244.00,124.01,1
162.00,125.75,1
44.00,127.97,1
54.00,127.94,1
86.00,125.66,1
58.00,122.09,1
49.00,117.43,1
67.00,111.85,1
47.00,105.79,1
127.00,100.08,1
93.00,95.68,1
68.00,92.34,1
248.00,90.68,1
37.00,91.38,1
148.00,92.77,1
42.00,93.86,1
79.00,94.16,1
190.00,94.49,1
40.00,95.75,1
61.00,96.28,1
83.00,95.52,1
127.00,94.71,1
63.00,94.26,1
246.00,94.94,1
184.00,98.45,1
159.00,104.26,1
109.00,110.27,1
114.00,115.25,1
160.00,119.33,1
118.00,123.05,1
72.00,125.68,1
110.00,126.58,1
76.00,126.14,1
38.00,124.10,1
50.00,120.10,1
34.00,114.50,1
57.00,107.91,1
67.00,101.09,1
130.00,95.22,1
146.00,91.52,1
336.00,91.95,1
142.00,97.20,1
78.00,103.75,1
51.00,108.19,1
49.00,109.83,1
190.00,110.24,1
123.00,111.48,1
86.00,113.06,1
85.00,113.65,1
150.00,113.70,1
111.00,114.08,1
148.00,114.90,1
48.00,115.49,1
149.00,115.35,1
154.00,115.57,1
61.00,116.19,1
70.00,115.68,1
60.00,113.61,1
119.00,110.84,1
36.00,107.82,1
67.00,104.09,1
116.00,100.17,1
59.00,96.85,1
137.00,94.19,1
203.00,93.49,1
46.00,94.73,1
137.00,96.11,1
86.00,97.34,1
55.00,98.06,1
233.00,98.91,1
51.00,101.01,1
96.00,102.83,1
99.00,103.64,1
84.00,103.94,1
136.00,104.07,1
216.00,105.44,1
81.00,108.39,1
105.00,111.04,1
60.00,112.29,1
85.00,112.09,1
90.00,110.87,1
92.00,109.23,1
41.00,106.98,1
41.00,103.49,1
138.00,99.57,1
47.00,96.32,1
37.00,92.88,1
257.00,90.32,1
100.00,90.77,1
240.00,93.87,1
60.00,98.41,1
114.00,102.53,1
111.00,105.56,1
300.00,109.64,1
92.00,115.75,1
106.00,121.44,1
52.00,124.68,1
164.00,126.10,1
68.00,126.71,1
40.00,125.75,1
67.00,122.63,1
44.00,118.01,1
44.00,112.20,1
95.00,105.95,1
292.00,102.06,1
47.00,101.77,1
134.00,102.49,1
161.00,103.59,1
50.00,105.20,1
45.00,105.47,1
35.00,103.61,1
143.00,100.90,1
241.00,100.15,1
84.00,102.15,1
51.00,104.10,1
59.00,104.16,1
174.00,103.59,1
46.00,103.47,1
42.00,102.51,1
160.00,100.78,1
133.00,100.23,1
86.00,100.74,1
52.00,100.74,1
145.00,100.18,1
61.00,99.77,1
380.00,101.52,1
134.00,107.40,1
113.00,114.66,1
123.00,120.38,1
103.00,124.55,1
75.00,126.94,1
43.00,126.98,1
137.00,125.28,1
77.00,123.09,1
127.00,120.81,1
51.00,118.25,1
230.00,116.19,1
146.00,116.23,1
196.00,118.37,1
93.00,121.30,1
39.00,122.99,1
112.00,122.55,1
210.00,122.08,1
144.00,123.29,1
46.00,124.63,1
86.00,124.19,1
35.00,121.80,1
70.00,117.84,1
79.00,113.02,1
152.00,108.76,1
49.00,105.50,1
98.00,102.42,1
69.00,99.28,1
184.00,97.09,1
90.00,96.58,1
72.00,96.60,1
215.00,97.14,1
38.00,98.81,1
78.00,99.86,1
86.00,99.65,1
64.00,98.80,1
95.00,97.44,1
55.00,95.73,1
53.00,93.39,1
65.00,90.40,1
126.00,87.69,1
100.00,86.18,1
112.00,85.80,1
104.00,86.22,1
177.00,87.81,1
77.00,90.54,1
37.00,92.67,1
52.00,92.86,1
141.00,92.27,1
96.00,92.33,1
86.00,92.79,1
175.00,93.74,1
211.00,96.71,1
136.00,101.88,1
241.00,108.42,1
60.00,115.42,1
46.00,120.27,1
80.00,121.91,1
67.00,121.38,1
158.00,120.03,1
124.00,119.22,1
216.00,119.82,1
99.00,121.73,1
254.00,124.68,1
99.00,128.64,1
99.00,131.95,1
57.00,133.00,1
108.00,132.05,1
41.00,129.55,1
82.00,125.58,1
45.00,120.48,1
128.00,115.10,1
46.00,110.06,1
88.00,105.14,1
129.00,100.83,1
117.00,98.05,1
191.00,97.27,1
145.00,98.78,1
178.00,102.11,1
170.00,106.84,1
213.00,112.95,1
162.00,120.12,1
89.00,126.77,1
66.00,130.98,1
135.00,132.77,1
58.00,132.99,1
38.00,131.15,1
194.00,128.12,1
73.00,125.71,1
126.00,123.57,1
185.00,122.07,1
63.00,121.52,1
35.00,119.93,1
87.00,116.56,1
60.00,112.38,1
62.00,107.69,1
162.00,103.44,1
84.00,100.67,1
72.00,98.56,1
52.00,96.01,1
227.00,94.23,1
120.00,94.97,1
182.00,97.74,1
36.00,100.92,1
52.00,102.52,1
49.00,101.91,1
51.00,99.72,1
68.00,96.58,1
57.00,93.02,1
40.00,89.06,1
55.00,84.69,1
185.00,81.34,1
216.00,81.43,1
69.00,84.47,1
40.00,87.24,1
108.00,88.58,1
50.00,89.19,1
89.00,89.16,1
216.00,89.86,1
71.00,92.32,1
154.00,95.36,1
255.00,99.79,1
75.00,105.94,1
53.00,110.90,1
185.00,114.02,1
269.00,118.35,1
71.00,124.31,1
51.00,128.53,1
171.00,130.33,1
48.00,131.02,1
46.00,129.79,1
69.00,126.29,1
140.00,122.13,1
158.00,119.14,1
44.00,117.06,1
109.00,114.54,1
142.00,112.18,1
110.00,110.84,1
42.00,109.50,1
39.00,106.77,1
211.00,103.91,1
76.00,102.73,1
169.00,102.83,1
86.00,103.65,1
47.00,104.06,1
147.00,103.63,1
179.00,104.18,1
130.00,106.43,1
60.00,108.74,1
120.00,109.95,1
227.00,111.60,1
42.00,114.26,1
90.00,115.82,1
36.00,115.29,1
43.00,112.76,1
88.00,108.86,1
90.00,104.83,1
43.00,100.87,1
103.00,96.83,1
39.00,92.93,1
82.00,89.07,1
44.00,85.22,1
40.00,81.20,1
48.00,76.89,1
109.00,73.09,1
66.00,70.54,1
194.00,69.88,1
99.00,71.64,1
70.00,74.43,1
39.00,76.39,1
90.00,77.31,1
248.00,79.33,1
189.00,84.68,1
166.00,92.50,1
84.00,100.40,1
80.00,106.51,1
50.00,110.05,1
60.00,111.05,1
53.00,109.95,1
66.00,107.38,1
62.00,103.91,1
58.00,99.88,1
128.00,96.05,1
41.00,92.91,1
95.00,89.96,1
40.00,86.99,1
89.00,84.04,1
76.00,81.45,1
76.00,79.41,1
102.00,77.96,1
116.00,77.57,1
77.00,78.10,1
84.00,78.84,1
98.00,79.64,1
54.00,80.37,1
45.00,80.35,1
58.00,79.35,1
73.00,77.88,1
119.00,76.87,1
64.00,76.66,1
113.00,76.95,1
60.00,77.52,1
116.00,78.27,1
41.00,79.01,1
109.00,79.49,1
56.00,79.84,1
69.00,79.85,1
83.00,79.51,1
35.00,78.85,1
104.00,77.86,1
63.00,77.07,1
37.00,76.12,1
67.00,74.57,1
35.00,72.62,1
52.00,70.30,1
62.00,67.87,1
135.00,66.36,1
121.00,66.77,1
41.00,68.34,1
123.00,69.97,1
126.00,72.31,1
43.00,75.16,1
127.00,77.64,1
87.00,80.13,1
37.00,82.17,1
186.00,83.87,1
60.00,86.27,1
70.00,88.34,1
98.00,89.46,1
53.00,89.98,1
98.00,89.90,1
82.00,89.60,1
127.00,89.62,1
92.00,90.22,1
84.00,90.96,1
106.00,91.54,1
41.00,91.73,1
78.00,91.04,1
39.00,89.46,1
95.00,87.37,1
41.00,85.12,1
41.00,82.40,1
63.00,79.14,1
49.00,75.83,1
47.00,72.53,1
138.00,69.95,1
43.00,68.70,1
142.00,68.51,1
132.00,69.90,1
108.00,72.91,1
98.00,76.47,1
68.00,79.72,1
99.00,82.31,1
138.00,84.90,1
197.00,88.81,1
94.00,94.01,1
168.00,99.43,1
216.00,105.61,1
148.00,113.01,1
66.00,119.67,1
99.00,123.90,1
80.00,125.83,1
132.00,126.38,1
79.00,126.11,1
91.00,124.86,1
42.00,122.29,1
76.00,118.35,1
71.00,113.62,1
193.00,109.67,1
45.00,107.20,1
46.00,104.49,1
44.00,100.46,1
207.00,96.90,1
63.00,95.31,1
56.00,94.17,1
62.00,92.15,1
36.00,89.34,1
45.00,85.72,1
130.00,82.25,1
73.00,80.04,1
110.00,78.89,1
51.00,78.26,1
134.00,78.05,1
51.00,78.37,1
127.00,79.02,1
73.00,80.04,1
56.00,80.88,1
36.00,80.66,1
39.00,79.21,1
188.00,77.99,1
71.00,78.51,1
64.00,79.57,1
60.00,79.88,1
55.00,79.45,1
47.00,78.28,1
96.00,76.84,1
38.00,75.49,1
72.00,73.98,1
75.00,72.51,1
39.00,71.16,1
36.00,69.34,1
74.00,67.20,1
60.00,65.37,1
106.00,64.30,1
72.00,64.21,1
110.00,65.01,1
76.00,66.51,1
47.00,68.00,1
67.00,68.85,1
56.00,69.18,1
71.00,69.20,1
61.00,69.07,1
117.00,69.25,1
56.00,69.99,1
43.00,70.49,1
58.00,70.20,1
67.00,69.52,1
50.00,68.70,1
124.00,68.21,1
36.00,68.35,1
127.00,68.86,1
155.00,70.65,1
226.00,75.16,1
36.00,81.46,1
87.00,86.73,1
47.00,89.99,1
153.00,92.25,1
112.00,94.76,1
88.00,97.39,1
95.00,99.32,1
43.00,100.16,1
36.00,99.29,1
112.00,97.22,1
83.00,95.27,1
73.00,93.54,1
238.00,92.99,1
129.00,95.14,1
232.00,99.66,1
51.00,105.12,1
87.00,109.28,1
80.00,111.34,1
61.00,111.77,1
88.00,110.77,1
228.00,110.19,1
83.00,111.29,1
132.00,112.80,1
80.00,113.74,1
57.00,113.58,1
115.00,112.24,1
77.00,110.51,1
92.00,108.53,1
136.00,106.72,1
75.00,105.44,1
308.00,105.91,1
87.00,109.19,1
100.00,112.89,1
40.00,114.66,1
114.00,114.66,1
61.00,113.58,1
58.00,111.44,1
102.00,108.43,1
111.00,105.63,1
82.00,103.37,1
94.00,101.29,1
189.00,100.15,1
101.00,100.73,1
88.00,101.80,1
55.00,101.99,1
85.00,101.09,1
90.00,99.67,1
175.00,98.93,1
146.00,99.94,1
53.00,101.70,1
165.00,103.12,1
238.00,105.93,1
78.00,110.51,1
193.00,115.18,1
118.00,119.73,1
38.00,123.09,1
120.00,124.16,1
102.00,124.00,1
53.00,122.91,1
68.00,120.26,1
136.00,116.96,1
140.00,114.55,1
97.00,113.19,1
89.00,111.90,1
44.00,109.87,1
67.00,106.70,1
67.00,102.78,1
36.00,98.35,1
66.00,93.42,1
43.00,88.33,1
79.00,83.44,1
128.00,79.70,1
77.00,77.63,1
82.00,76.50,1
90.00,75.85,1
169.00,76.43,1
149.00,79.13,1
329.00,85.16,1
191.00,95.22,1
154.00,106.85,1
68.00,116.85,1
78.00,123.60,1
96.00,127.28,1
154.00,129.37,1
277.00,132.32,1
50.00,136.47,1
80.00,138.88,1
136.00,138.96,1
156.00,138.62,1
142.00,138.65,1
78.00,138.37,1
217.00,137.84,1
60.00,137.60,1
157.00,136.95,1
42.00,135.37,1
106.00,132.55,1
152.00,129.38,1
59.00,126.58,1
92.00,123.25,1
149.00,119.88,1
54.00,117.03,1
172.00,114.54,1
80.00,112.81,1
82.00,111.19,1
55.00,108.75,1
36.00,105.19,1
114.00,100.97,1
124.00,97.64,1
254.00,96.98,1
56.00,98.94,1
76.00,100.81,1
37.00,100.93,1
68.00,99.48,1
99.00,97.33,1
101.00,95.51,1
202.00,95.13,1
70.00,96.47,1
36.00,97.41,1
139.00,97.24,1
111.00,97.40,1
168.00,98.69,1
55.00,100.56,1
40.00,101.28,1
107.00,100.46,1
55.00,99.06,1
63.00,97.04,1
90.00,94.52,1
93.00,92.26,1
144.00,90.97,1
72.00,90.73,1
111.00,90.85,1
73.00,90.97,1
53.00,90.61,1
51.00,89.24,1
70.00,87.11,1
71.00,84.77,1
51.00,82.36,1
67.00,79.79,1
106.00,77.61,1
98.00,76.50,1
145.00,76.84,1
34.00,78.05,1
41.00,78.47,1
35.00,77.44,1
42.00,75.36,1
81.00,72.93,1
60.00,70.86,1
51.00,69.02,1
42.00,67.02,1
125.00,65.44,1
97.00,65.29,1
138.00,66.81,1
43.00,69.19,1
51.00,70.99,1
111.00,72.11,1
102.00,73.68,1
86.00,75.76,1
196.00,78.73,1
64.00,82.88,1
127.00,87.03,1
60.00,90.42,1
211.00,93.79,1
87.00,97.96,1
63.00,101.58,1
66.00,103.28,1
89.00,103.49,1
94.00,103.01,1
210.00,103.27,1
151.00,105.53,1
141.00,109.18,1
59.00,112.40,1
42.00,113.61,1
68.00,112.52,1
47.00,109.81,1
60.00,105.95,1
58.00,101.37,1
35.00,96.27,1
47.00,90.66,1
87.00,85.17,1
108.00,80.92,1
70.00,78.09,1
75.00,76.04,1
42.00,74.12,1
128.00,72.59,1
98.00,72.31,1
64.00,72.92,1
122.00,73.86,1
82.00,75.36,1
66.00,76.91,1
47.00,77.71,1
126.00,78.11,1
111.00,79.23,1
37.00,80.65,1
189.00,82.15,1
193.00,85.63,1
209.00,91.94,1
58.00,99.21,1
38.00,104.45,1
79.00,106.71,1
260.00,108.68,1
74.00,112.15,1
124.00,115.47,1
59.00,117.33,1
139.00,118.01,1
183.00,118.93,1
56.00,120.33,1
107.00,120.74,1
154.00,120.56,1
47.00,120.25,1
72.00,118.70,1
61.00,115.68,1
129.00,112.21,1
60.00,109.00,1
138.00,106.16,1
66.00,103.81,1
46.00,101.21,1
80.00,97.86,1
186.00,95.32,1
62.00,94.50,1
96.00,94.12,1
74.00,93.42,1
71.00,92.40,1
60.00,90.85,1
196.00,89.86,1
78.00,90.53,1
89.00,91.69,1
37.00,91.96,1
90.00,91.21,1
91.00,90.17,1
150.00,89.88,1
121.00,90.94,1
155.00,93.27,1
150.00,96.76,1
67.00,100.52,1
59.00,102.90,1
39.00,103.15,1
171.00,102.49,1
210.00,103.49,1
74.00,106.34,1
324.00,110.62,1
49.00,116.61,1
79.00,121.45,1
174.00,124.25,1
68.00,126.36,1
77.00,126.98,1
40.00,125.43,1
210.00,123.15,1
67.00,121.70,1
42.00,119.77,1
39.00,115.90,1
254.00,112.22,1
153.00,111.51,1
242.00,113.88,1
88.00,117.91,1
98.00,121.35,1
128.00,123.33,1
65.00,124.23,1
60.00,123.44,1
126.00,121.32,1
137.00,119.40,1
193.00,118.90,1
38.00,119.24,1
61.00,118.29,1
132.00,116.07,1
43.00,113.57,1
103.00,110.58,1
58.00,107.18,1
116.00,103.81,1
106.00,101.10,1
36.00,98.70,1
66.00,95.63,1
51.00,91.94,1
102.00,88.33,1
48.00,85.16,1
245.00,83.62,1
97.00,84.92,1
57.00,87.23,1
186.00,89.39,1
115.00,92.56,1
61.00,95.87,1
177.00,98.64,1
183.00,102.42,1
92.00,107.17,1
95.00,111.05,1
38.00,112.96,1
46.00,112.46,1
68.00,109.98,1
147.00,107.18,1
132.00,105.59,1
94.00,105.08,1
121.00,104.86,1
42.00,104.35,1
98.00,103.01,1
88.00,101.27,1
94.00,99.65,1
153.00,98.67,1
62.00,98.48,1
91.00,98.12,1
87.00,97.33,1
161.00,97.04,1
432.00,100.55,1
73.00,108.97,1
51.00,116.96,1
47.00,120.99,1
51.00,121.69,1
119.00,120.37,1
504.00,121.93,1
126.00,129.49,1
307.00,139.78,1
72.00,149.70,1
164.00,157.36,1
66.00,161.81,1
109.00,163.17,1
50.00,161.54,1
114.00,157.61,1
132.00,152.79,1
124.00,148.23,1
170.00,144.40,1
86.00,141.27,1
56.00,137.52,1
113.00,132.67,1
47.00,127.31,1
182.00,122.24,1
39.00,118.07,1
53.00,113.58,1
100.00,108.42,1
127.00,104.06,1
63.00,100.75,1
319.00,99.65,1
70.00,101.92,1
136.00,105.22,1
238.00,109.04,1
70.00,113.99,1
68.00,117.66,1
85.00,118.95,1
98.00,118.78,1
59.00,117.50,1
208.00,116.15,1
40.00,115.55,1
49.00,114.05,1
61.00,110.77,1
125.00,107.05,1
66.00,103.79,1
99.00,100.83,1
69.00,97.99,1
110.00,95.46,1
112.00,93.70,1
67.00,92.58,1
120.00,91.70,1
95.00,91.33,1
56.00,91.06,1
93.00,90.31,1
110.00,89.67,1
236.00,90.78,1
73.00,94.05,1
112.00,97.51,1
40.00,99.69,1
327.00,102.35,1
145.00,107.89,1
146.00,114.89,1
76.00,120.64,1
97.00,124.28,1
122.00,126.16,1
94.00,127.01,1
45.00,126.39,1
40.00,123.56,1
126.00,119.39,1
40.00,115.01,1
167.00,110.96,1
71.00,107.90,1
49.00,104.96,1
42.00,100.98,1
45.00,96.08,1
155.00,91.54,1
164.00,89.39,1
82.00,89.48,1
135.00,90.43,1
59.00,91.56,1
81.00,92.15,1
61.00,91.88,1
158.00,91.62,1
201.00,93.18,1
46.00,96.31,1
47.00,98.30,1
130.00,98.79,1
42.00,98.78,1
46.00,97.65,1
207.00,96.37,1
102.00,96.87,1
79.00,98.11,1
117.00,98.92,1
60.00,99.35,1
95.00,99.14,1
69.00,98.33,1
90.00,97.13,1
299.00,97.53,1
38.00,100.66,1
388.00,106.02,1
131.00,114.42,1
164.00,123.78,1
113.00,131.52,1
84.00,136.98,1
59.00,139.38,1
73.00,138.88,1
49.00,136.01,1
224.00,132.60,1
64.00,130.27,1
77.00,127.74,1
84.00,124.08,1
119.00,120.20,1
99.00,116.76,1
256.00,115.03,1
208.00,116.72,1
141.00,120.88,1
81.00,124.77,1
44.00,126.44,1
120.00,125.91,1
72.00,124.29,1
36.00,121.42,1
35.00,116.72,1
62.00,110.69,1
144.00,104.95,1
62.00,100.53,1
62.00,96.58,1
76.00,92.54,1
86.00,88.89,1
182.00,86.73,1
127.00,86.99,1
168.00,89.29,1
149.00,93.16,1
83.00,97.55,1
58.00,100.74,1
76.00,102.10,1
161.00,102.82,1
135.00,104.38,1
227.00,107.56,1
142.00,112.48,1
109.00,117.62,1
189.00,122.17,1
78.00,126.27,1
63.00,128.57,1
111.00,128.67,1
245.00,128.87,1
148.00,130.95,1
146.00,133.90,1
55.00,135.79,1
127.00,135.90,1
279.00,136.34,1
66.00,138.41,1
132.00,139.88,1
37.00,139.40,1
138.00,137.26,1
272.00,135.93,1
38.00,136.39,1
86.00,135.80,1
64.00,133.12,1
46.00,128.82,1
68.00,123.11,1
51.00,116.62,1
258.00,111.37,1
38.00,108.68,1
92.00,106.57,1
125.00,104.31,1
39.00,102.30,1
181.00,100.56,1
55.00,99.68,1
120.00,99.12,1
89.00,98.58,1
156.00,98.67,1
63.00,99.31,1
70.00,99.42,1
93.00,98.65,1
207.00,98.64,1
61.00,100.06,1
483.00,104.58,1
38.00,113.39,1
94.00,121.73,1
77.00,126.52,1
283.00,130.37,1
114.00,135.24,1
127.00,139.74,1
208.00,143.30,1
106.00,146.64,1
87.00,148.50,1
76.00,147.96,1
166.00,146.00,1
37.00,143.34,1
320.00,141.22,1
66.00,141.06,1
117.00,140.99,1
76.00,139.37,1
168.00,137.13,1
159.00,135.62,1
193.00,135.62,1
40.00,135.97,1
72.00,134.60,1
113.00,131.53,1
47.00,127.69,1
74.00,122.88,1
94.00,117.53,1
43.00,112.10,1
39.00,106.07,1
68.00,99.53,1
148.00,93.94,1
84.00,90.29,1
37.00,87.45,1
104.00,84.56,1
112.00,82.53,1
144.00,82.15,1
235.00,84.42,1
39.00,88.75,1
127.00,92.75,1
81.00,95.80,1
63.00,97.87,1
92.00,98.68,1
74.00,98.68,1
157.00,98.70,1
38.00,98.97,1
53.00,98.27,1
46.00,96.04,1
61.00,92.87,1
43.00,89.14,1
69.00,85.12,1
74.00,81.37,1
88.00,78.35,1
53.00,75.97,1
110.00,74.17,1
127.00,73.65,1
107.00,74.74,1
108.00,76.81,1
98.00,79.33,1
101.00,81.97,1
42.00,84.09,1
91.00,85.21,1
109.00,85.99,1
39.00,86.62,1
60.00,86.27,1
64.00,85.00,1
68.00,83.33,1
60.00,81.45,1
46.00,79.26,1
127.00,77.29,1
41.00,76.05,1
78.00,74.97,1
62.00,73.81,1
327.00,74.86,1
40.00,79.43,1
127.00,84.69,1
72.00,88.91,1
166.00,92.79,1
230.00,97.92,1
180.00,105.26,1
128.00,113.29,1
86.00,119.96,1
72.00,124.12,1
91.00,125.81,1
128.00,126.08,1
143.00,126.17,1
118.00,126.46,1
87.00,126.35,1
190.00,126.07,1
63.00,126.08,1
73.00,125.13,1
40.00,122.31,1
73.00,117.98,1
78.00,112.96,1
42.00,107.65,1
66.00,101.92,1
121.00,96.63,1
66.00,92.51,1
90.00,89.16,1
54.00,86.15,1
122.00,83.66,1
66.00,82.01,1
47.00,80.53,1
81.00,78.74,1
64.00,77.03,1
84.00,75.60,1
70.00,74.52,1
38.00,73.40,1
72.00,71.92,1
54.00,70.37,1
43.00,68.70,1
118.00,67.30,1
71.00,66.90,1
123.00,67.55,1
158.00,69.76,1
71.00,73.37,1
50.00,76.57,1
74.00,78.49,1
94.00,79.76,1
63.00,80.78,1
79.00,81.35,1
95.00,81.70,1
88.00,82.22,1
55.00,82.60,1
123.00,82.80,1
92.00,83.46,1
67.00,84.30,1
160.00,85.34,1
66.00,87.06,1
140.00,89.06,1
46.00,90.87,1
36.00,91.46,1
51.00,90.26,1
78.00,88.14,1
106.00,86.20,1
97.00,85.08,1
176.00,85.36,1
92.00,87.22,1
167.00,90.10,1
190.00,94.42,1
69.00,99.69,1
65.00,103.64,1
56.00,105.31,1
51.00,104.96,1
71.00,103.10,1
175.00,101.33,1
43.00,100.47,1
52.00,99.08,1
108.00,96.85,1
77.00,94.80,1
156.00,93.57,1
102.00,93.61,1
89.00,94.26,1
59.00,94.44,1
105.00,94.03,1
51.00,93.26,1
85.00,91.99,1
135.00,90.93,1
74.00,90.67,1
73.00,90.42,1
127.00,90.11,1
331.00,92.33,1
179.00,99.06,1
233.00,108.54,1
166.00,118.86,1
39.00,127.76,1
144.00,133.48,1
77.00,136.74,1
90.00,137.88,1
68.00,136.85,1
46.00,133.76,1
37.00,128.59,1
110.00,122.29,1
38.00,115.88,1
48.00,109.10,1
154.00,102.72,1
43.00,97.78,1
238.00,94.76,1
86.00,94.35,1
71.00,94.90,1
101.00,94.89,1
75.00,94.63,1
63.00,93.89,1
168.00,93.27,1
198.00,94.65,1
107.00,98.14,1
40.00,101.28,1
92.00,102.63,1
103.00,102.96,1
139.00,103.42,1
305.00,106.01,1
109.00,111.59,1
42.00,116.82,1
110.00,119.44,1
59.00,120.12,1
166.00,119.91,1
306.00,121.55,1
103.00,126.07,1
169.00,130.98,1
178.00,135.50,1
97.00,139.59,1
96.00,141.94,1
130.00,142.49,1
66.00,141.68,1
210.00,140.27,1
45.00,138.95,1
189.00,137.40,1
157.00,136.47,1
134.00,136.53,1
187.00,137.11,1
63.00,137.74,1
41.00,136.56,1
209.00,134.08,1
103.00,132.41,1
121.00,131.19,1
56.00,129.24,1
104.00,126.26,1
140.00,123.15,1
47.00,120.29,1
266.00,118.26,1
57.00,118.08,1
126.00,118.22,1
85.00,117.68,1
65.00,116.36,1
61.00,113.79,1
145.00,110.80,1
164.00,109.13,1
72.00,108.77,1
83.00,108.13,1
61.00,106.55,1
48.00,103.89,1
46.00,100.11,1
59.00,95.56,1
92.00,91.06,1
65.00,87.17,1
157.00,84.47,1
46.00,83.15,1
75.00,82.07,1
47.00,80.54,1
108.00,79.01,1
76.00,78.04,1
86.00,77.58,1
113.00,77.66,1
276.00,80.00,1
72.00,85.25,1
165.00,91.25,1
205.00,97.82,1
72.00,104.94,1
53.00,110.21,1
258.00,114.17,1
112.00,119.06,1
82.00,123.49,1
278.00,127.36,1
228.00,133.29,1
169.00,140.85,1
51.00,147.04,1
38.00,149.44,1
60.00,147.83,1
220.00,144.84,1
154.00,143.20,1
40.00,141.91,1
370.00,141.23,1
75.00,143.11,1
311.00,146.72,1
200.00,152.03,1
67.00,157.46,1
52.00,159.54,1
38.00,157.58,1
266.00,154.15,1
160.00,152.49,1
127.00,152.09,1
97.00,150.97,1
47.00,148.17,1
105.00,143.55,1
65.00,137.96,1
102.00,131.93,1
83.00,125.90,1
75.00,119.99,1
209.00,115.18,1
230.00,113.72,1
260.00,116.57,1
117.00,122.07,1
66.00,126.84,1
167.00,129.70,1
206.00,132.60,1
118.00,136.18,1
39.00,138.35,1
120.00,138.03,1
340.00,138.33,1
65.00,141.18,1
133.00,143.66,1
44.00,143.88,1
67.00,141.63,1
47.00,137.07,1
53.00,130.85,1
152.00,124.30,1
176.00,119.61,1
126.00,117.32,1
111.00,116.16,1
80.00,114.98,1
174.00,113.96,1
118.00,113.94,1
111.00,114.46,1
38.00,114.20,1
73.00,112.35,1
40.00,109.07,1
66.00,104.77,1
55.00,99.92,1
92.00,95.14,1
111.00,91.25,1
54.00,88.32,1
41.00,85.33,1
172.00,82.78,1
55.00,81.75,1
99.00,81.42,1
64.00,81.10,1
58.00,80.53,1
211.00,80.68,1
132.00,83.17,1
230.00,88.15,1
86.00,94.64,1
53.00,100.20,1
42.00,103.02,1
70.00,103.47,1
172.00,103.32,1
166.00,104.59,1
69.00,106.83,1
67.00,108.06,1
110.00,108.00,1
63.00,107.28,1
40.00,105.44,1
182.00,103.24,1
88.00,102.22,1
69.00,101.60,1
105.00,100.51,1
67.00,99.21,1
48.00,97.30,1
112.00,94.91,1
47.00,92.59,1
44.00,89.83,1
165.00,87.25,1
127.00,86.55,1
45.00,87.00,1
42.00,86.59,1
80.00,85.15,1
257.00,85.03,1
80.00,87.74,1
239.00,92.32,1
157.00,98.64,1
39.00,105.10,1
42.00,108.81,1
56.00,109.50,1
138.00,108.81,1
35.00,107.72,1
66.00,105.58,1
54.00,102.29,1
164.00,99.20,1
174.00,98.15,1
42.00,98.70,1
89.00,98.71,1
68.00,97.84,1
57.00,96.27,1
44.00,93.74,1
138.00,91.06,1
45.00,89.03,1
75.00,87.04,1
204.00,85.96,1
62.00,86.80,1
38.00,87.60,1
90.00,87.19,1
66.00,86.35,1
69.00,85.25,1
130.00,84.36,1
111.00,84.54,1
79.00,85.44,1
52.00,85.95,1
50.00,85.43,1
54.00,83.90,1
81.00,81.93,1
67.00,80.07,1
53.00,78.22,1
62.00,76.17,1
70.00,74.13,1
46.00,72.18,1
117.00,70.62,1
54.00,69.86,1
121.00,69.84,1
76.00,70.60,1
54.00,71.54,1
71.00,72.00,1
166.00,72.96,1
64.00,75.16,1
71.00,77.36,1
60.00,78.67,1
151.00,79.90,1
68.00,81.74,1
36.00,83.10,1
60.00,83.03,1
44.00,81.88,1
118.00,80.50,1
66.00,79.65,1
35.00,78.73,1
39.00,76.87,1
51.00,74.26,1
139.00,72.14,1
88.00,71.60,1
70.00,72.00,1
50.00,72.22,1
42.00,71.75,1
65.00,70.65,1
38.00,69.22,1
163.00,68.36,1
141.00,69.63,1
91.00,72.74,1
66.00,75.91,1
87.00,78.38,1
110.00,80.55,1
48.00,82.47,1
65.00,83.44,1
84.00,83.58,1
64.00,83.38,1
235.00,84.17,1
50.00,86.80,1
59.00,89.18,1
37.00,89.73,1
166.00,89.66,1
60.00,90.18,1
52.00,90.40,1
179.00,90.41,1
43.00,91.17,1
82.00,91.59,1
249.00,92.66,1
128.00,96.25,1
71.00,100.57,1
128.00,103.83,1
119.00,106.55,1
38.00,108.44,1
128.00,108.96,1
104.00,109.03,1
163.00,109.62,1
53.00,110.43,1
107.00,110.51,1
70.00,109.69,1
81.00,108.14,1
177.00,106.77,1
139.00,106.96,1
150.00,108.58,1
39.00,110.17,1
65.00,110.16,1
74.00,108.49,1
49.00,105.80,1
46.00,102.06,1
83.00,97.70,1
36.00,93.20,1
85.00,88.69,1
49.00,84.43,1
122.00,80.92,1
176.00,79.46,1
67.00,80.21,1
94.00,81.47,1
162.00,83.18,1
127.00,86.24,1
112.00,90.10,1
56.00,93.42,1
71.00,95.29,1
45.00,95.56,1
127.00,94.99,1
181.00,95.39,1
111.00,97.53,1
54.00,99.71,1
110.00,100.79,1
73.00,101.14,1
75.00,100.80,1
94.00,99.84,1
85.00,98.68,1
36.00,97.00,1
155.00,95.10,1
68.00,93.93,1
167.00,93.73,1
57.00,94.28,1
42.00,94.24,1
96.00,93.04,1
103.00,91.84,1
80.00,91.04,1
144.00,90.79,1
162.00,92.00,1
148.00,94.99,1
46.00,98.28,1
49.00,99.91,1
145.00,100.23,1
141.00,101.13,1
34.00,102.28,1
75.00,102.12,1
70.00,100.72,1
97.00,98.89,1
110.00,97.32,1
100.00,96.36,1
85.00,95.71,1
46.00,94.66,1
66.00,92.73,1
112.00,90.60,1
48.00,88.77,1
48.00,86.56,1
61.00,83.70,1
138.00,81.30,1
196.00,81.20,1
44.00,83.21,1
59.00,84.82,1
65.00,85.11,1
135.00,85.20,1
102.00,86.06,1
98.00,87.48,1
130.00,89.22,1
56.00,91.01,1
120.00,92.35,1
136.00,93.90,1
218.00,97.00,1
39.00,101.19,1
69.00,104.05,1
124.00,105.26,1
74.00,105.93,1
127.00,106.24,1
63.00,106.19,1
87.00,105.45,1
92.00,104.12,1
153.00,103.17,1
277.00,104.62,1
95.00,108.91,1
187.00,113.97,1
54.00,118.37,1
108.00,121.12,1
77.00,122.07,1
85.00,121.59,1
130.00,120.33,1
58.00,118.71,1
56.00,116.04,1
94.00,112.34,1
168.00,109.22,1
229.00,108.71,1
97.00,110.70,1
44.00,112.42,1
52.00,111.95,1
129.00,110.17,1
36.00,108.04,1
87.00,105.20,1
70.00,101.88,1
57.00,98.33,1
36.00,94.18,1
73.00,89.58,1
169.00,86.03,1
91.00,84.65,1
180.00,85.21,1
126.00,87.57,1
42.00,90.39,1
73.00,91.89,1
71.00,92.13,1
42.00,91.39,1
128.00,90.14,1
40.00,89.00,1
133.00,88.02,1
231.00,88.81,1
112.00,92.33,1
39.00,96.04,1
88.00,97.98,1
46.00,98.36,1
127.00,97.94,1
82.00,97.54,1
113.00,97.36,1
48.00,96.94,1
57.00,95.61,1
37.00,93.07,1
73.00,89.75,1
51.00,86.20,1
40.00,82.42,1
42.00,78.24,1
56.00,73.98,1
77.00,70.20,1
87.00,67.47,1
58.00,65.73,1
44.00,64.27,1
146.00,63.46,1
144.00,64.71,1
159.00,68.45,1
43.00,73.23,1
46.00,76.84,1
69.00,78.73,1
74.00,79.68,1
38.00,79.88,1
93.00,79.39,1
46.00,78.63,1
75.00,77.59,1
191.00,77.43,1
189.00,80.14,1
127.00,85.31,1
101.00,90.91,1
106.00,95.75,1
140.00,100.01,1
46.00,103.51,1
127.00,105.70,1
97.00,107.15,1
38.00,107.67,1
85.00,106.61,1
39.00,104.32,1
60.00,100.98,1
86.00,97.12,1
176.00,94.35,1
154.00,94.02,1
91.00,95.42,1
129.00,97.18,1
80.00,98.84,1
181.00,100.73,1
38.00,102.80,1
58.00,103.58,1
99.00,102.83,1
119.00,101.96,1
79.00,101.36,1
102.00,100.68,1
45.00,99.55,1
45.00,97.35,1
39.00,93.89,1
159.00,90.48,1
80.00,88.51,1
46.00,87.10,1
69.00,85.14,1
99.00,83.17,1
130.00,82.21,1
58.00,82.22,1
66.00,82.08,1
38.00,81.14,1
64.00,79.45,1
40.00,77.23,1
110.00,75.09,1
62.00,73.64,1
56.00,72.50,1
75.00,71.30,1
154.00,71.01,1
83.00,72.29,1
101.00,74.36,1
121.00,76.84,1
38.00,79.33,1
66.00,80.77,1
40.00,80.93,1
53.00,80.00,1
154.00,79.13,1
76.00,79.47,1
120.00,80.63,1
67.00,82.01,1
47.00,82.84,1
123.00,83.07,1
49.00,83.33,1
61.00,83.11,1
82.00,82.27,1
49.00,81.18,1
53.00,79.58,1
78.00,77.67,1
109.00,76.27,1
78.00,75.80,1
38.00,75.43,1
36.00,74.23,1
94.00,72.54,1
42.00,71.06,1
91.00,69.81,1
59.00,68.89,1
36.00,67.93,1
59.00,66.53,1
58.00,65.01,1
70.00,63.73,1
74.00,62.91,1
114.00,62.94,1
54.00,63.83,1
157.00,65.54,1
89.00,68.46,1
47.00,71.58,1
72.00,73.69,1
114.00,75.37,1
35.00,76.94,1
103.00,77.95,1
58.00,78.62,1
77.00,78.97,1
57.00,78.84,1
78.00,78.36,1
78.00,77.81,1
77.00,77.39,1
44.00,76.79,1
68.00,75.72,1
56.00,74.34,1
60.00,72.82,1
51.00,71.14,1
83.00,69.53,1
52.00,68.23,1
50.00,66.95,1
36.00,65.31,1
52.00,63.33,1
58.00,61.38,1
64.00,59.78,1
145.00,59.32,1
44.00,60.31,1
122.00,62.01,1
49.00,64.04,1
62.00,65.80,1
80.00,67.04,1
58.00,68.09,1
45.00,68.62,1
111.00,68.89,1
112.00,69.96,1
55.00,71.69,1
61.00,72.97,1
132.00,74.08,1
65.00,75.71,1
76.00,77.23,1
89.00,78.37,1
66.00,79.28,1
69.00,79.75,1
60.00,79.65,1
77.00,79.14,1
104.00,78.77,1
58.00,78.72,1
63.00,78.42,1
124.00,78.15,1
57.00,78.41,1
83.00,78.66,1
68.00,78.66,1
81.00,78.54,1
39.00,78.07,1
36.00,76.74,1
76.00,74.73,1
110.00,73.20,1
127.00,73.10,1
82.00,74.29,1
54.00,75.59,1
44.00,76.01,1
59.00,75.48,1
66.00,74.47,1
58.00,73.29,1
70.00,72.06,1
112.00,71.30,1
70.00,71.39,1
61.00,71.68,1
95.00,71.90,1
70.00,72.35,1
46.00,72.62,1
43.00,72.12,1
64.00,70.96,1
39.00,69.47,1
93.00,67.98,1
133.00,67.57,1
136.00,69.14,1
143.00,72.59,1
84.00,77.01,1
84.00,81.10,1
57.00,84.08,1
79.00,85.83,1
41.00,86.45,1
84.00,86.08,1
38.00,84.99,1
66.00,83.21,1
60.00,81.01,1
57.00,78.66,1
85.00,76.41,1
36.00,74.35,1
60.00,72.12,1
112.00,70.26,1
49.00,69.28,1
80.00,68.64,1
43.00,67.97,1
52.00,67.01,1
42.00,65.62,1
73.00,64.12,1
42.00,62.76,1
107.00,61.83,1
58.00,61.69,1
88.00,62.11,1
50.00,62.73,1
125.00,63.71,1
98.00,65.65,1
106.00,68.49,1
91.00,71.70,1
65.00,74.69,1
39.00,76.64,1
208.00,78.49,1
115.00,82.01,1
81.00,86.28,1
33.00,89.22,1
52.00,90.14,1
39.00,89.30,1
64.00,87.30,1
48.00,84.66,1
36.00,81.47,1
125.00,78.37,1
39.00,76.11,1
72.00,74.15,1
224.00,73.59,1
75.00,75.66,1
59.00,78.30,1
39.00,79.64,1
82.00,79.82,1
58.00,79.47,1
88.00,78.94,1
65.00,78.40,1
38.00,77.51,1
59.00,75.93,1
76.00,74.12,1
79.00,72.70,1
49.00,71.55,1
58.00,70.25,1
69.00,68.87,1
102.00,68.01,1
38.00,67.69,1
76.00,67.30,1
59.00,66.84,1
127.00,66.94,1
105.00,68.26,1
218.00,71.59,1
70.00,76.84,1
66.00,81.80,1
132.00,85.62,1
140.00,89.58,1
35.00,93.33,1
43.00,95.19,1
248.00,96.50,1
112.00,99.72,1
113.00,103.71,1
84.00,106.80,1
94.00,108.71,1
131.00,109.90,1
231.00,112.02,1
175.00,116.30,1
137.00,121.66,1
120.00,126.41,1
100.00,129.77,1
81.00,131.33,1
53.00,130.76,1
138.00,128.66,1
139.00,126.68,1
111.00,125.34,1
114.00,124.10,1
122.00,122.87,1
246.00,122.88,1
53.00,124.36,1
39.00,124.59,1
52.00,122.14,1
48.00,117.78,1
153.00,113.05,1
199.00,110.31,1
142.00,110.33,1
83.00,111.38,1
113.00,111.97,1
135.00,112.39,1
65.00,112.70,1
83.00,112.08,1
44.00,110.19,1
62.00,107.01,1
131.00,103.53,1
102.00,100.99,1
74.00,99.10,1
50.00,96.86,1
52.00,93.83,1
237.00,91.67,1
81.00,92.01,1
70.00,93.10,1
95.00,93.46,1
143.00,93.98,1
107.00,95.30,1
77.00,96.75,1
84.00,97.50,1
72.00,97.47,1
66.00,96.66,1
96.00,95.31,1
60.00,93.76,1
130.00,92.35,1
78.00,91.51,1
164.00,91.58,1
55.00,92.41,1
39.00,92.57,1
158.00,92.02,1
36.00,91.80,1
53.00,90.92,1
86.00,89.13,1
83.00,87.36,1
59.00,85.70,1
55.00,83.71,1
65.00,81.37,1
51.00,78.84,1
161.00,77.02,1
88.00,76.91,1
54.00,77.53,1
74.00,77.66,1
115.00,77.82,1
53.00,78.31,1
63.00,78.44,1
115.00,78.38,1
41.00,78.50,1
39.00,77.94,1
141.00,77.08,1
85.00,77.25,1
62.00,77.91,1
110.00,78.48,1
47.00,79.04,1
59.00,79.01,1
53.00,78.17,1
239.00,78.29,1
114.00,81.14,1
213.00,86.26,1
90.00,92.51,1
135.00,98.58,1
54.00,103.35,1
158.00,106.87,1
91.00,109.82,1
103.00,112.10,1
39.00,112.89,1
41.00,111.57,1
74.00,108.46,1
102.00,104.93,1
114.00,102.01,1
54.00,99.59,1
79.00,96.95,1
58.00,93.98,1
127.00,91.27,1
58.00,89.25,1
98.00,87.59,1
133.00,86.63,1
65.00,86.59,1
119.00,86.85,1
127.00,87.74,1
65.00,89.13,1
43.00,89.73,1
78.00,89.11,1
58.00,87.81,1
57.00,85.99,1
150.00,84.43,1
54.00,83.85,1
68.00,83.34,1
48.00,82.16,1
58.00,80.37,1
57.00,78.17,1
40.00,75.67,1
90.00,73.14,1
66.00,71.16,1
36.00,69.44,1
36.00,67.26,1
47.00,64.66,1
102.00,62.46,1
69.00,61.38,1
74.00,61.13,1
34.00,60.99,1
103.00,60.89,1
67.00,61.34,1
89.00,62.36,1
129.00,64.17,1
39.00,66.62,1
39.00,68.31,1
70.00,68.88,1
128.00,69.57,1
191.00,72.06,1
63.00,76.30,1
125.00,80.66,1
157.00,85.20,1
56.00,89.92,1
116.00,93.72,1
164.00,97.24,1
196.00,102.01,1
56.00,107.33,1
230.00,112.27,1
114.00,117.53,1
170.00,122.84,1
49.00,126.96,1
192.00,129.70,1
137.00,132.20,1
45.00,133.95,1
90.00,133.45,1
76.00,131.16,1
137.00,128.19,1
183.00,126.11,1
134.00,125.61,1
98.00,125.63,1
76.00,124.84,1
74.00,122.78,1
78.00,119.64,1
68.00,115.78,1
64.00,111.30,1
82.00,106.52,1
54.00,101.69,1
57.00,96.70,1
106.00,91.97,1
83.00,88.25,1
53.00,85.20,1
102.00,82.46,1
127.00,80.83,1
39.00,80.19,1
73.00,79.35,1
58.00,78.09,1
36.00,76.40,1
47.00,74.05,1
90.00,71.63,1
68.00,69.85,1
78.00,68.71,1
84.00,68.11,1
39.00,67.76,1
56.00,67.06,1
187.00,67.10,1
67.00,69.03,1
148.00,72.10,1
103.00,75.90,1
124.00,80.24,1
193.00,85.39,1
181.00,92.21,1
45.00,99.32,1
49.00,104.08,1
92.00,106.21,1
122.00,107.25,1
131.00,108.36,1
136.00,109.92,1
114.00,111.75,1
39.00,112.77,1
102.00,112.25,1
83.00,110.83,1
142.00,109.48,1
97.00,108.67,1
81.00,107.90,1
63.00,106.40,1
171.00,104.87,1
220.00,105.41,1
153.00,108.67,1
128.00,112.98,1
114.00,116.83,1
200.00,120.50,1
117.00,124.53,1
154.00,128.33,1
134.00,131.60,1
58.00,133.69,1
65.00,133.46,1
66.00,130.94,1
151.00,127.55,1
87.00,124.53,1
93.00,121.56,1
81.00,118.21,1
214.00,115.64,1
36.00,114.36,1
114.00,112.91,1
102.00,111.11,1
64.00,109.22,1
319.00,108.72,1
39.00,110.89,1
121.00,113.15,1
295.00,115.90,1
213.00,121.82,1
80.00,128.93,1
145.00,134.34,1
105.00,137.93,1
40.00,139.37,1
119.00,138.35,1
52.00,135.71,1
96.00,131.85,1
56.00,127.02,1
61.00,121.37,1
118.00,115.50,1
118.00,110.65,1
98.00,107.05,1
118.00,104.35,1
50.00,102.03,1
94.00,99.46,1
38.00,96.50,1
133.00,93.56,1
75.00,91.37,1
42.00,89.37,1
55.00,86.67,1
172.00,84.43,1
84.00,83.95,1
64.00,84.15,1
88.00,84.00,1
194.00,84.71,1
213.00,88.16,1
56.00,93.44,1
377.00,100.19,1
257.00,110.83,1
193.00,124.22,1
39.00,135.94,1
44.00,142.92,1
81.00,145.19,1
38.00,144.14,1
108.00,140.75,1
106.00,136.50,1
150.00,132.64,1
88.00,129.40,1
134.00,126.46,1
51.00,123.42,1
143.00,120.16,1
52.00,116.92,1
204.00,114.32,1
59.00,112.87,1
190.00,112.26,1
271.00,113.96,1
144.00,118.75,1
80.00,123.74,1
243.00,127.97,1
35.00,131.92,1
119.00,134.12,1
148.00,134.82,1
275.00,136.60,1
36.00,139.52,1
309.00,142.55,1
292.00,147.95,1
46.00,154.95,1
162.00,159.65,1
107.00,161.89,1
42.00,161.69,1
50.00,158.17,1
68.00,151.99,1
258.00,145.94,1
196.00,143.00,1
180.00,142.88,1
212.00,144.40,1
38.00,146.09,1
36.00,145.21,1
244.00,142.66,1
56.00,140.79,1
127.00,138.71,1
170.00,136.50,1
347.00,137.04,1
149.00,141.33,1
75.00,145.86,1
141.00,148.13,1
241.00,149.89,1
107.00,152.32,1
52.00,153.32,1
130.00,151.82,1
165.00,149.60,1
51.00,147.18,1
315.00,145.29,1
115.00,145.64,1
262.00,147.75,1
124.00,150.78,1
75.00,152.93,1
134.00,152.84,1
67.00,151.12,1
259.00,149.16,1
49.00,148.00,1
151.00,146.42,1
36.00,143.57,1
81.00,139.15,1
188.00,134.38,1
39.00,130.41,1
78.00,125.92,1
114.00,120.90,1
133.00,116.72,1
134.00,113.94,1
189.00,112.94,1
203.00,114.37,1
57.00,117.07,1
222.00,119.71,1
85.00,122.61,1
40.00,124.33,1
173.00,124.30,1
74.00,123.97,1
99.00,123.09,1
99.00,121.40,1
181.00,120.06,1
273.00,121.14,1
152.00,125.27,1
97.00,129.84,1
39.00,132.20,1
144.00,132.23,1
554.00,135.16,1
116.00,144.19,1
54.00,153.25,1
67.00,157.43,1
148.00,158.15,1
86.00,157.19,1
58.00,154.35,1
82.00,149.42,1
63.00,143.09,1
47.00,135.62,1
86.00,127.45,1
111.00,119.76,1
150.00,113.75,1
186.00,110.37,1
86.00,109.18,1
139.00,108.79,1
175.00,109.36,1
36.00,110.52,1
52.00,110.20,1
147.00,108.68,1
55.00,107.24,1
96.00,105.51,1
148.00,103.98,1
78.00,103.26,1
199.00,103.46,1
50.00,104.55,1
49.00,104.79,1
89.00,103.48,1
103.00,101.78,1
117.00,100.53,1
79.00,99.70,1
327.00,100.75,1
164.00,105.65,1
77.00,111.94,1
111.00,116.55,1
147.00,119.89,1
44.00,122.18,1
114.00,122.73,1
133.00,122.45,1
90.00,122.07,1
44.00,120.69,1
218.00,118.91,1
102.00,118.45,1
98.00,118.49,1
127.00,118.11,1
64.00,117.35,1
184.00,116.52,1
104.00,116.47,1
85.00,116.52,1
48.00,115.35,1
162.00,113.49,1
82.00,112.07,1
256.00,112.11,1
74.00,113.97,1
111.00,115.87,1
71.00,116.52,1
208.00,116.97,1
75.00,118.09,1
44.00,118.36,1
126.00,117.02,1
46.00,114.96,1
38.00,111.70,1
63.00,107.06,1
97.00,102.15,1
71.00,97.75,1
82.00,93.82,1
124.00,90.71,1
96.00,88.87,1
65.00,87.68,1
73.00,86.34,1
84.00,84.91,1
73.00,83.61,1
57.00,82.22,1
77.00,80.63,1
88.00,79.23,1
162.00,78.97,1
165.00,80.97,1
131.00,84.96,1
65.00,89.25,1
88.00,92.43,1
49.00,94.19,1
79.00,94.60,1
100.00,94.32,1
78.00,93.93,1
61.00,93.15,1
178.00,92.60,1
118.00,93.55,1
49.00,95.01,1
99.00,95.58,1
237.00,96.86,1
119.00,100.35,1
86.00,104.32,1
40.00,106.62,1
53.00,106.63,1
49.00,104.74,1
76.00,101.69,1
44.00,98.05,1
256.00,95.51,1
37.00,95.33,1
160.00,96.11,1
52.00,96.90,1
59.00,96.97,1
158.00,96.52,1
70.00,96.67,1
38.00,96.36,1
51.00,94.55,1
105.00,92.06,1
66.00,89.83,1
117.00,88.09,1
214.00,88.11,1
64.00,90.27,1
56.00,92.21,1
223.00,93.93,1
93.00,97.07,1
176.00,101.09,1
151.00,105.74,1
180.00,111.23,1
74.00,116.57,1
96.00,120.28,1
42.00,121.66,1
84.00,120.84,1
228.00,119.84,1
79.00,120.24,1
71.00,120.35,1
132.00,119.36,1
81.00,118.10,1
58.00,116.14,1
143.00,113.61,1
90.00,111.52,1
83.00,109.60,1
96.00,107.42,1
42.00,104.83,1
84.00,101.57,1
39.00,97.78,1
112.00,93.94,1
66.00,90.63,1
95.00,87.92,1
89.00,85.81,1
224.00,85.48,1
82.00,87.56,1
110.00,90.35,1
92.00,92.74,1
154.00,95.20,1
68.00,97.79,1
58.00,99.39,1
59.00,99.32,1
89.00,98.17,1
214.00,97.78,1
62.00,99.02,1
172.00,100.92,1
47.00,102.77,1
76.00,103.60,1
202.00,104.12,1
116.00,106.01,1
60.00,108.02,1
158.00,109.23,1
242.00,111.66,1
45.00,115.50,1
146.00,118.54,1
74.00,120.32,1
64.00,120.66,1
118.00,119.57,1
46.00,117.64,1
117.00,114.99,1
210.00,113.23,1
117.00,113.57,1
38.00,114.06,1
81.00,112.93,1
103.00,110.81,1
72.00,108.51,1
127.00,106.27,1
62.00,104.25,1
152.00,102.61,1
53.00,101.43,1
37.00,99.60,1
101.00,96.80,1
80.00,94.11,1
86.00,91.82,1
69.00,89.70,1
117.00,87.94,1
35.00,86.49,1
94.00,84.84,1
64.00,83.16,1
34.00,81.25,1
90.00,78.94,1
75.00,76.96,1
46.00,75.28,1
123.00,73.91,1
46.00,73.22,1
102.00,72.90,1
115.00,73.27,1
62.00,74.39,1
56.00,75.22,1
181.00,76.30,1
46.00,78.45,1
122.00,80.74,1
39.00,82.54,1
100.00,83.65,1
126.00,84.74,1
41.00,86.02,1
43.00,86.22,1
114.00,85.52,1
180.00,85.89,1
138.00,88.44,1
186.00,92.77,1
78.00,97.85,1
146.00,102.51,1
113.00,106.66,1
128.00,110.41,1
51.00,113.08,1
42.00,113.60,1
310.00,113.92,1
146.00,117.12,1
38.00,120.98,1
204.00,123.44,1
127.00,125.96,1
48.00,127.90,1
226.00,128.85,1
78.00,130.09,1
75.00,130.52,1
161.00,129.74,1
176.00,129.60,1
76.00,130.08,1
88.00,129.57,1
150.00,128.21,1
98.00,126.96,1
57.00,125.13,1
255.00,123.47,1
48.00,123.21,1
285.00,124.21,1
88.00,126.69,1
138.00,129.35,1
79.00,130.75,1
144.00,131.12,1
81.00,130.75,1
89.00,129.42,1
41.00,126.59,1
38.00,121.94,1
70.00,115.92,1
170.00,110.40,1
95.00,106.73,1
172.00,104.82,1
77.00,104.17,1
186.00,104.48,1
104.00,105.84,1
70.00,107.21,1
96.00,107.51,1
43.00,106.70,1
127.00,105.10,1
304.00,105.39,1
94.00,108.99,1
63.00,112.71,1
127.00,114.67,1
57.00,115.45,1
119.00,115.21,1
157.00,114.96,1
153.00,115.81,1
94.00,117.24,1
141.00,118.44,1
83.00,119.22,1
200.00,120.07,1
78.00,121.38,1
38.00,121.61,1
88.00,119.76,1
46.00,116.55,1
96.00,112.54,1
46.00,108.11,1
135.00,103.85,1
108.00,100.67,1
175.00,99.30,1
105.00,99.61,1
61.00,100.25,1
118.00,100.26,1
95.00,100.20,1
59.00,99.86,1
36.00,98.35,1
162.00,96.37,1
58.00,95.13,1
50.00,93.75,1
108.00,91.80,1
52.00,89.91,1
54.00,87.69,1
154.00,85.70,1
102.00,85.18,1
118.00,85.91,1
54.00,86.87,1
66.00,87.13,1
83.00,86.67,1
172.00,86.80,1
53.00,88.00,1
44.00,88.66,1
61.00,87.90,1
76.00,86.40,1
129.00,85.23,1
177.00,85.75,1
194.00,88.97,1
130.00,94.22,1
34.00,99.13,1
135.00,102.31,1
91.00,104.61,1
68.00,106.09,1
112.00,106.49,1
140.00,106.84,1
169.00,108.22,1
79.00,110.30,1
237.00,112.90,1
53.00,116.16,1
90.00,118.37,1
92.00,118.81,1
155.00,118.76,1
46.00,118.50,1
201.00,118.08,1
87.00,118.28,1
38.00,117.93,1
222.00,116.94,1
128.00,117.36,1
45.00,118.12,1
304.00,119.11,1
357.00,124.32,1
354.00,135.69,1
63.00,149.19,1
122.00,159.50,1
146.00,165.77,1
143.00,169.66,1
84.00,171.28,1
50.00,169.83,1
126.00,165.65,1
70.00,160.07,1
60.00,153.22,1
80.00,145.15,1
220.00,137.85,1
80.00,132.71,1
67.00,128.11,1
139.00,123.29,1
269.00,120.63,1
167.00,121.65,1
265.00,125.59,1
49.00,130.60,1
194.00,134.70,1
62.00,137.48,1
58.00,138.15,1
210.00,137.29,1
155.00,137.33,1
531.00,141.49,1
88.00,150.76,1
130.00,159.75,1
119.00,165.15,1
133.00,167.92,1
76.00,168.29,1
50.00,165.75,1
44.00,160.13,1
127.00,152.76,1
226.00,146.44,1
67.00,142.14,1
146.00,138.36,1
176.00,135.34,1
102.00,133.52,1
227.00,132.74,1
65.00,132.90,1
140.00,132.74,1
90.00,131.82,1
176.00,130.86,1
63.00,129.97,1
90.00,128.24,1
45.00,125.05,1
243.00,121.98,1
54.00,120.45,1
55.00,118.66,1
229.00,116.63,1
93.00,116.24,1
68.00,116.09,1
97.00,114.84,1
340.00,115.07,1
63.00,118.38,1
69.00,121.41,1
63.00,121.86,1
104.00,120.64,1
78.00,118.61,1
136.00,116.41,1
173.00,115.22,1
55.00,114.95,1
68.00,113.83,1
103.00,111.65,1
128.00,109.62,1
59.00,107.91,1
159.00,106.39,1
88.00,105.56,1
88.00,104.94,1
97.00,103.99,1
67.00,102.71,1
123.00,101.26,1
51.00,99.82,1
36.00,97.58,1
87.00,94.38,1
47.00,90.95,1
95.00,87.61,1
95.00,84.92,1
203.00,84.13,1
75.00,85.51,1
94.00,87.42,1
174.00,89.60,1
89.00,92.69,1
99.00,95.70,1
117.00,98.16,1
46.00,99.92,1
44.00,100.03,1
137.00,99.03,1
108.00,98.52,1
137.00,98.94,1
44.00,99.50,1
60.00,98.99,1
237.00,98.65,1
140.00,100.74,1
138.00,104.40,1
96.00,107.96,1
38.00,110.14,1
59.00,110.05,1
94.00,108.42,1
156.00,106.92,1
42.00,105.95,1
48.00,104.10,1
46.00,100.76,1
72.00,96.63,1
178.00,93.34,1
190.00,92.87,1
138.00,95.21,1
127.00,98.74,1
132.00,102.49,1
71.00,105.77,1
44.00,107.40,1
140.00,107.56,1
84.00,107.50,1
176.00,107.91,1
69.00,108.83,1
177.00,109.99,1
73.00,111.34,1
72.00,111.94,1
197.00,112.12,1
80.00,113.09,1
185.00,114.56,1
94.00,116.40,1
144.00,118.22,1
115.00,119.81,1
109.00,121.04,1
229.00,122.63,1
68.00,125.04,1
181.00,127.25,1
55.00,128.72,1
109.00,128.88,1
106.00,127.87,1
127.00,126.57,1
220.00,126.20,1
106.00,127.31,1
172.00,128.93,1
165.00,130.99,1
71.00,132.97,1
96.00,133.41,1
130.00,132.56,1
128.00,131.54,1
70.00,130.18,1
160.00,128.37,1
75.00,126.60,1
119.00,124.61,1
79.00,122.20,1
100.00,119.45,1
86.00,116.43,1
71.00,113.12,1
61.00,109.26,1
76.00,104.93,1
58.00,100.41,1
88.00,95.97,1
283.00,93.69,1
98.00,95.06,1
106.00,97.82,1
38.00,99.55,1
103.00,99.94,1
144.00,100.13,1
70.00,100.79,1
116.00,101.25,1
102.00,101.60,1
60.00,101.65,1
295.00,102.59,1
196.00,106.92,1
42.00,112.72,1
147.00,116.92,1
122.00,120.03,1
86.00,122.36,1
64.00,123.03,1
44.00,121.61,1
177.00,119.24,1
49.00,117.18,1
132.00,115.11,1
78.00,112.96,1
55.00,110.42,1
111.00,107.31,1
114.00,104.63,1
128.00,102.99,1
50.00,101.81,1
130.00,100.51,1
71.00,99.35,1
117.00,98.40,1
173.00,98.38,1
275.00,101.22,1
80.00,106.71,1
197.00,112.59,1
77.00,117.89,1
70.00,121.49,1
63.00,122.52,1
211.00,122.62,1
61.00,123.15,1
127.00,123.28,1
38.00,122.22,1
121.00,120.04,1
216.00,118.51,1
109.00,118.91,1
72.00,119.47,1
178.00,119.50,1
55.00,119.57,1
89.00,118.78,1
47.00,116.55,1
62.00,113.02,1
68.00,108.57,1
63.00,103.74,1
38.00,98.55,1
83.00,93.18,1
194.00,89.31,1
53.00,87.74,1
47.00,86.50,1
121.00,84.92,1
228.00,85.19,1
218.00,89.17,1
80.00,95.40,1
185.00,101.64,1
68.00,107.30,1
96.00,111.51,1
62.00,113.65,1
91.00,114.09,1
35.00,112.95,1
50.00,110.08,1
72.00,105.97,1
123.00,101.97,1
36.00,98.48,1
180.00,95.67,1
102.00,94.49,1
186.00,95.18,1
141.00,97.63,1
119.00,101.13,1
35.00,103.87,1
61.00,104.55,1
87.00,103.62,1
162.00,102.78,1
144.00,103.33,1
140.00,105.21,1
133.00,107.76,1
50.00,109.91,1
36.00,110.13,1
67.00,108.22,1
49.00,104.98,1
70.00,100.98,1
60.00,96.67,1
39.00,92.08,1
142.00,87.86,1
90.00,85.17,1
66.00,83.52,1
147.00,82.57,1
125.00,83.11,1
84.00,84.76,1
66.00,86.18,1
84.00,86.88,1
59.00,86.97,1
59.00,86.31,1
80.00,85.07,1
60.00,83.62,1
56.00,81.86,1
107.00,80.13,1
97.00,79.19,1
137.00,79.50,1
133.00,81.27,1
120.00,84.25,1
81.00,87.49,1
134.00,90.50,1
67.00,93.24,1
192.00,96.04,1
127.00,99.78,1
55.00,103.46,1
37.00,105.10,1
72.00,104.50,1
54.00,102.53,1
63.00,99.65,1
218.00,97.46,1
36.00,97.00,1
86.00,96.55,1
214.00,96.50,1
132.00,98.63,1
65.00,101.48,1
83.00,103.14,1
164.00,104.26,1
102.00,105.91,1
101.00,107.53,1
41.00,108.05,1
67.00,106.94,1
34.00,104.28,1
36.00,100.19,1
60.00,95.14,1
44.00,89.80,1
120.00,84.98,1
99.00,81.69,1
66.00,79.66,1
88.00,78.12,1
78.00,77.02,1
44.00,76.01,1
101.00,74.94,1
56.00,74.14,1
43.00,73.20,1
58.00,71.71,1
213.00,71.28,1
168.00,74.01,1
79.00,78.81,1
73.00,83.15,1
139.00,86.71,1
76.00,90.08,1
54.00,92.50,1
107.00,93.69,1
99.00,94.53,1
157.00,95.86,1
120.00,98.12,1
66.00,100.43,1
107.00,101.82,1
49.00,102.22,1
99.00,101.64,1
130.00,100.96,1
104.00,100.93,1
138.00,101.51,1
126.00,102.79,1
59.00,104.07,1
39.00,103.95,1
91.00,102.27,1
69.00,100.01,1
79.00,97.51,1
45.00,94.64,1
40.00,91.04,1
47.00,86.69,1
105.00,82.49,1
174.00,80.15,1
134.00,80.63,1
40.00,82.33,1
38.00,82.97,1
64.00,82.19,1
129.00,81.31,1
39.00,80.94,1
170.00,81.11,1
53.00,82.12,1
38.00,82.77,1
76.00,82.22,1
141.00,81.82,1
52.00,82.21,1
42.00,82.16,1
36.00,80.80,1
138.00,79.17,1
298.00,80.40,1
38.00,85.06,1
54.00,89.33,1
115.00,91.77,1
41.00,93.27,1
231.00,94.86,1
51.00,97.52,1
111.00,99.98,1
60.00,101.30,1
46.00,101.24,1
59.00,99.58,1
121.00,97.38,1
166.00,96.34,1
75.00,96.75,1
50.00,96.88,1
66.00,95.77,1
219.00,95.08,1
94.00,96.38,1
71.00,98.13,1
48.00,98.54,1
113.00,97.90,1
118.00,97.43,1
123.00,97.75,1
88.00,98.50,1
50.00,98.70,1
82.00,97.81,1
110.00,96.58,1
74.00,95.55,1
45.00,94.11,1
78.00,91.90,1
111.00,89.76,1
62.00,88.16,1
210.00,87.71,1
127.00,89.52,1
85.00,92.49,1
47.00,94.51,1
64.00,94.93,1
152.00,94.81,1
63.00,95.16,1
71.00,95.16,1
68.00,94.28,1
284.00,94.55,1
40.00,97.25,1
54.00,99.54,1
56.00,99.66,1
185.00,99.35,1
36.00,99.65,1
175.00,100.16,1
77.00,101.06,1
148.00,102.35,1
80.00,103.69,1
60.00,104.32,1
97.00,103.80,1
166.00,103.44,1
201.00,104.97,1
61.00,107.87,1
50.00,109.59,1
44.00,108.97,1
124.00,107.05,1
38.00,104.77,1
98.00,102.04,1
56.00,98.98,1
74.00,95.73,1
81.00,92.44,1
36.00,89.13,1
135.00,86.05,1
190.00,84.96,1
49.00,85.99,1
203.00,87.99,1
103.00,91.23,1
49.00,94.47,1
93.00,96.23,1
168.00,97.72,1
63.00,99.68,1
75.00,100.93,1
60.00,100.79,1
76.00,99.59,1
154.00,98.42,1
140.00,98.60,1
65.00,99.61,1
105.00,100.17,1
127.00,100.61,1
44.00,100.95,1
74.00,100.26,1
42.00,98.34,1
57.00,95.41,1
223.00,93.16,1
263.00,94.77,1
79.00,99.73,1
47.00,104.07,1
290.00,107.75,1
127.00,113.24,1
113.00,119.09,1
40.00,122.84,1
210.00,124.94,1
339.00,129.04,1
94.00,136.04,1
52.00,141.65,1
110.00,143.76,1
87.00,143.55,1
75.00,141.61,1
181.00,138.91,1
130.00,136.95,1
140.00,135.73,1
87.00,134.43,1
44.00,131.94,1
119.00,128.10,1
52.00,123.71,1
79.00,118.78,1
159.00,114.16,1
47.00,110.54,1
68.00,106.79,1
64.00,102.44,1
104.00,98.22,1
73.00,94.63,1
55.00,91.29,1
44.00,87.60,1
93.00,83.85,1
158.00,81.43,1
71.00,80.87,1
41.00,80.58,1
212.00,80.72,1
82.00,82.68,1
54.00,84.99,1
60.00,86.01,1
55.00,85.83,1
80.00,84.91,1
148.00,84.40,1
40.00,84.67,1
84.00,84.66,1
65.00,84.09,1
38.00,82.97,1
88.00,81.25,1
52.00,79.46,1
254.00,79.17,1
307.00,83.49,1
91.00,92.00,1
61.00,99.97,1
127.00,105.54,1
388.00,112.11,1
57.00,121.35,1
76.00,129.13,1
158.00,133.79,1
273.00,138.41,1
70.00,143.73,1
339.00,149.26,1
66.00,155.24,1
192.00,160.14,1
148.00,163.51,1
205.00,166.40,1
42.00,168.05,1
142.00,167.29,1
55.00,164.32,1
93.00,159.46,1
83.00,153.17,1
56.00,145.90,1
72.00,137.76,1
64.00,129.20,1
84.00,120.75,1
38.00,112.57,1
104.00,104.81,1
93.00,98.25,1
40.00,92.75,1
52.00,87.36,1
68.00,82.12,1
42.00,77.33,1
47.00,72.77,1
53.00,68.47,1
48.00,64.59,1
78.00,61.39,1
45.00,58.98,1
71.00,57.18,1
94.00,56.25,1
127.00,56.87,1
63.00,58.86,1
131.00,61.61,1
40.00,64.68,1
56.00,67.08,1
96.00,68.74,1
71.00,70.36,1
162.00,72.57,1
114.00,76.06,1
57.00,79.90,1
48.00,82.46,1
85.00,83.64,1
37.00,83.87,1
201.00,84.24,1
39.00,85.70,1
72.00,86.88,1
194.00,88.01,1
57.00,90.23,1
194.00,93.09,1
123.00,96.88,1
36.00,100.49,1
169.00,102.92,1
118.00,105.44,1
116.00,108.17,1
125.00,110.60,1
70.00,112.39,1
36.00,112.52,1
58.00,110.54,1
223.00,108.49,1
236.00,109.46,1
51.00,112.75,1
92.00,115.08,1
206.00,116.69,1
53.00,118.66,1
455.00,122.61,1
278.00,131.82,1
301.00,145.34,1
70.00,158.65,1
66.00,167.68,1
90.00,171.40,1
242.00,172.59,1
86.00,173.24,1
85.00,172.12,1
245.00,169.71,1
330.00,169.80,1
70.00,172.30,1
127.00,173.44,1
39.00,171.51,1
129.00,167.13,1
174.00,162.17,1
64.00,157.51,1
93.00,152.02,1
67.00,145.43,1
50.00,137.88,1
176.00,130.42,1
61.00,124.26,1
58.00,118.41,1
141.00,112.67,1
435.00,111.01,1
211.00,116.26,1
167.00,124.91,1
91.00,132.60,1
181.00,138.44,1
168.00,143.43,1
87.00,147.47,1
337.00,151.28,1
109.00,156.37,1
115.00,160.61,1
48.00,161.65,1
76.00,159.50,1
187.00,155.78,1
64.00,152.06,1
92.00,147.53,1
110.00,142.19,1
168.00,137.39,1
133.00,134.00,1
58.00,131.06,1
56.00,127.01,1
373.00,124.22,1
74.00,125.26,1
113.00,127.16,1
72.00,127.45,1
68.00,126.14,1
208.00,124.40,1
162.00,124.33,1
58.00,125.04,1
288.00,126.12,1
140.00,129.18,1
40.00,132.27,1
134.00,133.17,1
176.00,133.45,1
374.00,136.40,1
72.00,142.36,1
180.00,147.96,1
107.00,151.76,1
595.00,157.79,1
180.00,169.33,1
105.00,181.27,1
54.00,187.99,1
207.00,190.34,1
58.00,190.18,1
328.00,189.15,1
179.00,189.51,1
206.00,190.89,1
65.00,191.03,1
88.00,188.31,1
367.00,185.04,1
195.00,184.85,1
235.00,186.81,1
518.00,191.91,1
308.00,202.49,1
217.00,215.08,1
110.00,224.58,1
81.00,228.60,1
87.00,227.06,1
45.00,220.83,1
132.00,211.33,1
64.00,200.19,1
296.00,189.70,1
50.00,181.29,1
495.00,176.30,1
276.00,177.51,1
452.00,185.00,1
336.00,197.10,1
201.00,210.74,1
82.00,220.92,1
63.00,224.87,1
219.00,223.92,1
131.00,221.02,1
200.00,217.14,1
96.00,212.19,1
236.00,206.58,1
410.00,203.59,1
342.00,206.18,1
298.00,212.83,1
328.00,221.33,1
174.00,229.80,1
94.00,234.98,1
784.00,240.62,1
362.00,253.76,1
85.00,268.56,1
718.00,281.26,1
500.00,298.34,1
147.00,316.92,1
298.00,329.56,1
248.00,336.50,1
211.00,338.92,1
51.00,335.50,1
77.00,325.05,1
274.00,310.32,1
258.00,296.14,1
114.00,283.05,1
192.00,269.33,1
368.00,257.15,1
88.00,247.81,1
318.00,239.64,1
64.00,232.01,1
103.00,223.08,1
173.00,212.57,1
288.00,203.64,1
323.00,199.00,1
93.00,197.40,1
274.00,196.14,1
115.00,194.94,1
345.00,194.59,1
340.00,197.42,1
44.00,201.88,1
220.00,203.96,1
325.00,205.47,1
49.00,207.43,1
296.00,208.00,1
140.00,208.00,1
147.00,207.11,1
330.00,205.90,1
124.00,205.88,1
208.00,205.56,1
102.00,203.82,1
605.00,204.16,1
99.00,209.36,1
417.00,216.47,1
282.00,224.78,1
332.00,234.53,1
289.00,244.40,1
644.00,256.68,1
127.00,271.69,1
75.00,282.14,1
268.00,285.28,1
58.00,283.72,1
158.00,277.60,1
410.00,270.26,1
117.00,264.81,1
260.00,259.38,1
181.00,253.43,1
113.00,246.58,1
303.00,239.09,1
93.00,232.20,1
203.00,225.00,1
168.00,217.61,1
368.00,212.30,1
501.00,212.86,1
262.00,219.83,1
153.00,227.61,1
145.00,231.88,1
279.00,233.39,1
79.00,233.28,1
112.00,230.03,1
338.00,225.24,1
139.00,221.82,1
228.00,218.86,1
93.00,215.07,1
35.00,208.76,1
268.00,200.62,1
296.00,194.98,1
89.00,192.13,1
92.00,188.28,1
345.00,184.24,1
294.00,183.99,1
40.00,185.77,1
316.00,186.68,1
225.00,188.63,1
288.00,192.60,1
112.00,196.80,1
164.00,199.06,1
119.00,198.81,1
252.00,197.45,1
60.00,195.53,1
392.00,193.93,1
115.00,194.24,1
333.00,195.95,1
94.00,198.01,1
212.00,199.10,1
193.00,199.21,1
786.00,204.21,1
508.00,220.07,1
77.00,240.42,1
178.00,254.86,1
87.00,261.69,1
171.00,262.52,1
219.00,259.85,1
77.00,254.87,1
158.00,247.04,1
176.00,237.60,1
50.00,227.14,1
479.00,217.93,1
110.00,212.94,1
322.00,210.58,1
240.00,210.05,1
388.00,212.55,1
110.00,216.78,1
75.00,218.47,1
172.00,216.07,1
254.00,212.63,1
95.00,209.40,1
36.00,203.98,1
265.00,196.63,1
111.00,190.14,1
84.00,183.63,1
143.00,176.09,1
142.00,168.76,1
55.00,161.59,1
50.00,153.27,1
65.00,143.68,1
134.00,134.23,1
201.00,127.04,1
156.00,123.09,1
251.00,122.34,1
118.00,124.19,1
86.00,126.23,1
147.00,127.22,1
106.00,127.77,1
174.00,128.38,1
106.00,129.22,1
105.00,129.64,1
109.00,129.18,1
51.00,127.65,1
42.00,124.34,1
61.00,119.32,1
210.00,114.65,1
209.00,113.03,1
105.00,114.15,1
213.00,116.45,1
71.00,119.33,1
117.00,121.47,1
228.00,123.48,1
336.00,128.47,1
277.00,137.79,1
232.00,149.61,1
91.00,160.52,1
306.00,169.45,1
38.00,176.76,1
115.00,180.59,1
43.00,180.06,1
190.00,176.89,1
98.00,172.94,1
257.00,169.53,1
192.00,168.01,1
155.00,167.88,1
40.00,166.71,1
67.00,162.79,1
200.00,157.52,1
325.00,154.86,1
62.00,155.24,1
94.00,154.88,1
274.00,153.82,1
78.00,153.87,1
44.00,152.73,1
58.00,148.64,1
87.00,142.66,1
137.00,136.43,1
73.00,130.78,1
130.00,125.56,1
105.00,121.07,1
192.00,118.06,1
42.00,116.25,1
160.00,114.64,1
69.00,113.19,1
42.00,111.16,1
73.00,107.80,1
80.00,103.90,1
81.00,100.09,1
173.00,97.33,1
167.00,96.96,1
58.00,98.15,1
71.00,98.73,1
46.00,97.93,1
163.00,96.78,1
63.00,96.30,1
254.00,97.26,1
381.00,102.67,1
227.00,113.64,1
84.00,125.86,1
204.00,135.93,1
60.00,143.65,1
280.00,149.76,1
115.00,155.54,1
65.00,159.53,1
53.00,159.73,1
142.00,157.16,1
107.00,153.66,1
92.00,149.62,1
78.00,144.63,1
80.00,138.76,1
304.00,134.19,1
182.00,133.53,1
233.00,136.08,1
164.00,140.24,1
96.00,144.20,1
183.00,146.89,1
143.00,149.07,1
119.00,150.66,1
57.00,150.50,1
63.00,147.85,1
135.00,143.55,1
84.00,138.98,1
131.00,134.50,1
86.00,130.21,1
237.00,127.12,1
110.00,126.11,1
172.00,126.39,1
171.00,127.60,1
86.00,129.26,1
110.00,129.99,1
209.00,130.51,1
103.00,131.80,1
70.00,132.44,1
216.00,132.33,1
61.00,132.53,1
197.00,132.72,1
117.00,133.21,1
431.00,136.32,1
86.00,143.00,1
52.00,148.76,1
74.00,150.39,1
175.00,149.75,1
39.00,148.14,1
338.00,146.91,1
90.00,147.77,1
116.00,148.78,1
348.00,150.17,1
280.00,155.28,1
256.00,163.69,1
61.00,171.72,1
137.00,176.40,1
74.00,177.50,1
136.00,175.96,1
78.00,172.45,1
35.00,166.78,1
273.00,160.42,1
43.00,155.46,1
259.00,151.66,1
102.00,149.24,1
137.00,147.43,1
188.00,145.84,1
52.00,144.48,1
52.00,141.50,1
103.00,136.70,1
65.00,131.19,1
350.00,127.51,1
291.00,129.21,1
56.00,134.42,1
90.00,138.01,1
64.00,138.62,1
100.00,137.13,1
103.00,134.49,1
203.00,132.25,1
160.00,131.70,1
192.00,132.84,1
68.00,134.38,1
69.00,134.38,1
128.00,132.68,1
52.00,130.10,1
70.00,126.33,1
149.00,122.09,1
51.00,118.30,1
68.00,114.14,1
244.00,110.77,1
82.00,109.84,1
174.00,110.32,1
44.00,110.96,1
190.00,111.51,1
37.00,112.06,1
283.00,113.29,1
219.00,117.31,1
143.00,123.64,1
484.00,132.55,1
82.00,144.80,1
74.00,155.29,1
86.00,160.73,1
111.00,162.51,1
52.00,161.43,1
181.00,158.54,1
323.00,157.19,1
164.00,159.20,1
167.00,162.22,1
40.00,163.59,1
80.00,161.89,1
108.00,157.80,1
131.00,153.00,1
214.00,149.12,1
82.00,146.55,1
131.00,143.95,1
90.00,140.79,1
105.00,137.16,1
115.00,133.29,1
69.00,129.27,1
46.00,124.40,1
357.00,120.87,1
122.00,121.51,1
112.00,123.90,1
85.00,125.18,1
119.00,125.30,1
163.00,125.27,1
73.00,125.39,1
63.00,124.39,1
142.00,122.32,1
172.00,121.00,1
48.00,120.43,1
68.00,118.78,1
37.00,115.42,1
140.00,111.36,1
68.00,107.77,1
47.00,104.15,1
196.00,100.91,1
110.00,99.66,1
243.00,100.87,1
142.00,104.61,1
48.00,108.76,1
82.00,110.95,1
226.00,112.56,1
87.00,115.20,1
70.00,117.28,1
41.00,117.20,1
80.00,115.16,1
233.00,113.39,1
129.00,113.85,1
63.00,115.02,1
98.00,115.03,1
346.00,116.23,1
142.00,121.05,1
364.00,128.94,1
332.00,140.62,1
105.00,154.19,1
101.00,164.69,1
277.00,172.05,1
88.00,178.09,1
85.00,181.21,1
119.00,180.68,1
69.00,177.55,1
191.00,172.99,1
87.00,168.24,1
259.00,164.23,1
119.00,161.75,1
128.00,159.68,1
49.00,156.33,1
122.00,151.46,1
127.00,146.23,1
151.00,141.77,1
149.00,138.48,1
59.00,135.60,1
64.00,131.65,1
71.00,126.42,1
127.00,121.01,1
84.00,116.28,1
134.00,112.39,1
186.00,110.18,1
127.00,110.09,1
125.00,111.06,1
156.00,112.52,1
137.00,114.65,1
448.00,119.77,1
110.00,129.17,1
113.00,138.50,1
177.00,145.24,1
52.00,149.86,1
66.00,151.25,1
119.00,149.83,1
258.00,148.43,1
50.00,148.13,1
216.00,147.74,1
248.00,148.60,1
72.00,150.83,1
96.00,151.56,1
57.00,149.76,1
151.00,146.41,1
97.00,142.79,1
50.00,138.57,1
39.00,132.74,1
76.00,125.56,1
64.00,118.06,1
132.00,111.23,1
134.00,106.20,1
92.00,102.93,1
200.00,101.32,1
124.00,101.84,1
67.00,103.13,1
122.00,103.84,1
92.00,104.28,1
59.00,104.17,1
40.00,102.70,1
71.00,99.91,1
52.00,96.41,1
36.00,92.29,1
55.00,87.58,1
178.00,83.78,1
38.00,81.85,1
181.00,81.28,1
60.00,81.98,1
246.00,84.33,1
64.00,88.42,1
160.00,93.04,1
91.00,97.40,1
77.00,100.96,1
35.00,102.62,1
195.00,103.31,1
145.00,105.14,1
80.00,107.73,1
58.00,109.14,1
262.00,110.39,1
58.00,112.99,1
52.00,114.78,1
264.00,115.87,1
93.00,118.45,1
37.00,120.53,1
275.00,121.77,1
66.00,124.08,1
108.00,126.00,1
122.00,126.62,1
72.00,126.41,1
86.00,124.96,1
47.00,122.13,1
115.00,118.39,1
38.00,114.22,1
174.00,110.29,1
44.00,107.21,1
221.00,105.33,1
110.00,105.35,1
162.00,106.86,1
194.00,109.67,1
231.00,114.66,1
212.00,121.84,1
105.00,129.56,1
64.00,135.14,1
44.00,137.20,1
170.00,136.88,1
50.00,135.69,1
158.00,133.84,1
62.00,131.54,1
183.00,129.28,1
93.00,127.60,1
79.00,125.81,1
211.00,124.10,1
55.00,123.30,1
86.00,121.98,1
50.00,119.23,1
59.00,115.19,1
150.00,110.94,1
39.00,107.34,1
69.00,103.50,1
231.00,100.54,1
255.00,101.47,1
106.00,105.86,1
139.00,110.71,1
44.00,114.28,1
88.00,115.80,1
48.00,115.33,1
185.00,114.22,1
422.00,116.53,1
127.00,124.08,1
202.00,132.96,1
140.00,140.86,1
113.00,147.12,1
165.00,151.39,1
218.00,155.10,1
84.00,158.45,1
71.00,159.54,1
178.00,158.41,1
404.00,159.21,1
44.00,163.09,1
106.00,165.58,1
228.00,165.97,1
127.00,166.48,1
132.00,166.44,1
282.00,166.46,1
75.00,167.35,1
116.00,167.01,1
59.00,164.25,1
36.00,158.94,1
270.00,152.98,1
81.00,148.82,1
109.00,145.22,1
83.00,140.82,1
122.00,136.10,1
44.00,131.06,1
78.00,125.29,1
118.00,119.39,1
43.00,113.90,1
173.00,109.09,1
137.00,106.18,1
65.00,104.69,1
75.00,102.92,1
79.00,100.60,1
75.00,98.06,1
54.00,95.22,1
53.00,91.88,1
226.00,89.49,1
195.00,90.49,1
152.00,94.64,1
184.00,100.29,1
190.00,107.14,1
127.00,114.53,1
109.00,120.92,1
323.00,127.31,1
83.00,134.91,1
148.00,141.49,1
154.00,146.22,1
51.00,149.17,1
141.00,149.75,1
96.00,148.77,1
182.00,147.37,1
56.00,145.69,1
107.00,142.91,1
85.00,139.00,1
224.00,135.58,1
136.00,134.01,1
143.00,133.68,1
200.00,134.15,1
91.00,135.33,1
60.00,135.39,1
51.00,133.13,1
120.00,129.32,1
292.00,126.97,1
106.00,127.70,1
122.00,129.22,1
278.00,131.29,1
45.00,134.52,1
132.00,136.65,1
43.00,136.67,1
125.00,135.00,1
121.00,132.68,1
69.00,130.13,1
106.00,126.89,1
56.00,123.01,1
60.00,118.29,1
51.00,112.65,1
60.00,106.46,1
162.00,100.98,1
81.00,97.34,1
68.00,94.59,1
66.00,91.72,1
127.00,89.20,1
210.00,88.76,1
37.00,90.31,1
60.00,91.34,1
69.00,90.95,1
92.00,90.05,1
108.00,89.36,1
59.00,88.92,1
38.00,87.83,1
56.00,85.67,1
155.00,83.71,1
87.00,83.22,1
55.00,83.27,1
234.00,84.13,1
55.00,86.79,1
118.00,89.76,1
193.00,93.06,1
190.00,98.23,1
43.00,104.01,1
63.00,107.77,1
109.00,109.33,1
154.00,110.50,1
74.00,111.80,1
95.00,112.36,1
76.00,111.88,1
274.00,112.11,1
201.00,115.38,1
52.00,120.09,1
99.00,123.04,1
34.00,123.56,1
38.00,121.52,1
83.00,117.54,1
233.00,114.24,1
143.00,113.73,1
98.00,114.68,1
40.00,114.74,1
66.00,113.01,1
52.00,109.79,1
103.00,105.97,1
90.00,102.45,1
123.00,99.74,1
53.00,97.59,1
87.00,95.35,1
112.00,93.30,1
98.00,92.03,1
43.00,90.93,1
46.00,88.97,1
67.00,86.21,1
90.00,83.49,1
55.00,81.15,1
56.00,78.82,1
84.00,76.51,1
43.00,74.43,1
96.00,72.58,1
96.00,71.53,1
117.00,71.72,1
158.00,73.54,1
75.00,76.71,1
122.00,80.13,1
69.00,83.29,1
42.00,85.43,1
78.00,86.13,1
94.00,86.23,1
90.00,86.39,1
124.00,86.96,1
365.00,90.34,1
87.00,97.74,1
120.00,105.59,1
67.00,111.28,1
45.00,114.40,1
45.00,114.63,1
61.00,112.59,1
96.00,109.49,1
35.00,105.87,1
80.00,101.64,1
105.00,97.55,1
79.00,94.27,1
56.00,91.29,1
43.00,87.93,1
160.00,84.97,1
40.00,83.25,1
52.00,81.61,1
40.00,79.17,1
129.00,76.86,1
94.00,75.80,1
55.00,75.58,1
128.00,75.66,1
152.00,77.06,1
157.00,80.48,1
92.00,85.04,1
170.00,89.93,1
166.00,95.64,1
200.00,102.64,1
57.00,109.72,1
96.00,114.85,1
71.00,117.58,1
121.00,118.73,1
118.00,119.24,1
112.00,119.55,1
75.00,119.29,1
94.00,118.06,1
36.00,115.69,1
150.00,112.67,1
36.00,109.73,1
105.00,106.56,1
43.00,103.03,1
109.00,99.41,1
43.00,95.89,1
152.00,92.91,1
61.00,90.95,1
130.00,89.80,1
84.00,89.31,1
98.00,89.25,1
201.00,90.25,1
140.00,93.32,1
119.00,97.52,1
150.00,101.86,1
56.00,105.72,1
80.00,107.98,1
46.00,108.26,1
69.00,106.88,1
65.00,104.34,1
39.00,100.91,1
96.00,96.93,1
273.00,94.88,1
80.00,96.19,1
288.00,99.97,1
51.00,105.38,1
35.00,109.52,1
104.00,110.89,1
43.00,110.62,1
276.00,110.62,1
136.00,113.00,1
42.00,115.96,1
141.00,117.35,1
69.00,117.77,1
45.00,116.86,1
149.00,114.84,1
97.00,113.14,1
81.00,111.62,1
70.00,109.48,1
125.00,107.09,1
109.00,105.28,1
61.00,103.77,1
164.00,102.45,1
41.00,101.62,1
43.00,100.01,1
53.00,96.95,1
98.00,93.46,1
40.00,90.11,1
165.00,87.42,1
47.00,85.94,1
50.00,84.52,1
145.00,83.06,1
42.00,82.37,1
280.00,83.33,1
146.00,87.52,1
176.00,94.01,1
45.00,100.33,1
141.00,105.17,1
47.00,108.45,1
152.00,110.56,1
73.00,112.01,1
56.00,112.32,1
142.00,111.55,1
69.00,110.65,1
38.00,108.93,1
71.00,105.81,1
76.00,102.05,1
88.00,98.39,1
286.00,96.81,1
63.00,98.40,1
96.00,100.57,1
166.00,102.37,1
129.00,104.96,1
67.00,107.53,1
87.00,108.81,1
139.00,109.32,1
106.00,109.99,1
41.00,110.11,1
65.00,108.65,1
82.00,106.04,1
42.00,102.78,1
36.00,98.58,1
59.00,93.56,1
153.00,89.19,1
38.00,86.26,1
59.00,83.56,1
98.00,80.85,1
61.00,78.73,1
61.00,76.84,1
65.00,74.91,1
84.00,73.24,1
72.00,72.07,1
61.00,71.19,1
55.00,70.22,1
85.00,69.28,1
73.00,68.74,1
89.00,68.70,1
37.00,68.79,1
48.00,68.32,1
172.00,68.22,1
93.00,69.93,1
39.00,72.20,1
72.00,73.56,1
124.00,74.69,1
80.00,76.39,1
70.00,78.08,1
110.00,79.52,1
188.00,81.93,1
183.00,86.60,1
42.00,92.24,1
100.00,96.51,1
78.00,99.20,1
59.00,100.56,1
72.00,100.47,1
79.00,99.41,1
77.00,97.84,1
101.00,96.17,1
123.00,95.05,1
39.00,94.25,1
167.00,93.57,1
203.00,94.73,1
48.00,97.60,1
75.00,99.66,1
91.00,100.30,1
127.00,100.65,1
220.00,102.28,1
99.00,105.66,1
39.00,108.51,1
123.00,109.55,1
329.00,111.80,1
97.00,117.09,1
108.00,122.45,1
206.00,126.77,1
45.00,130.53,1
55.00,131.94,1
40.00,130.24,1
109.00,126.66,1
180.00,123.36,1
187.00,122.21,1
58.00,122.35,1
91.00,121.66,1
40.00,119.43,1
46.00,115.55,1
65.00,110.38,1
85.00,104.97,1
42.00,99.67,1
69.00,94.31,1
53.00,89.05,1
147.00,84.77,1
48.00,82.00,1
60.00,79.68,1
58.00,77.15,1
43.00,74.49,1
60.00,71.69,1
66.00,69.09,1
137.00,67.55,1
105.00,67.84,1
116.00,69.65,1
38.00,71.83,1
92.00,73.45,1
47.00,74.47,1
80.00,74.98,1
45.00,74.98,1
53.00,74.33,1
63.00,73.16,1
39.00,71.65,1
103.00,70.14,1
91.00,69.46,1
70.00,69.58,1
124.00,70.31,1
38.00,71.49,1
141.00,72.85,1
70.00,74.69,1
48.00,76.34,1
76.00,77.07,1
50.00,77.14,1
97.00,76.89,1
40.00,76.51,1
51.00,75.57,1
161.00,74.85,1
92.00,75.68,1
53.00,77.09,1
121.00,78.25,1
76.00,79.62,1
65.00,80.81,1
71.00,81.33,1
123.00,81.77,1
147.00,83.24,1
58.00,85.53,1
74.00,87.23,1
52.00,87.77,1
62.00,87.26,1
65.00,85.98,1
54.00,84.19,1
93.00,82.25,1
138.00,81.18,1
117.00,81.69,1
112.00,83.39,1
85.00,85.45,1
123.00,87.54,1
106.00,89.85,1
45.00,91.77,1
40.00,92.13,1
82.00,91.06,1
40.00,89.24,1
62.00,86.75,1
75.00,83.97,1
64.00,81.36,1
97.00,79.16,1
62.00,77.53,1
84.00,76.24,1
160.00,75.98,1
46.00,76.97,1
100.00,78.10,1
107.00,79.28,1
49.00,80.57,1
105.00,81.44,1
99.00,82.37,1
82.00,83.55,1
55.00,84.30,1
127.00,84.72,1
63.00,85.32,1
107.00,85.93,1
66.00,86.39,1
36.00,86.15,1
75.00,84.87,1
62.00,83.13,1
44.00,81.08,1
46.00,78.45,1
46.00,75.35,1
38.00,71.96,1
58.00,68.49,1
92.00,65.62,1
109.00,64.17,1
55.00,63.98,1
53.00,63.97,1
46.00,63.55,1
65.00,62.87,1
39.00,62.05,1
55.00,61.00,1
44.00,59.79,1
70.00,58.65,1
62.00,57.87,1
46.00,57.36,1
96.00,57.14,1
74.00,57.66,1
40.00,58.50,1
118.00,59.45,1
50.00,60.91,1
67.00,62.36,1
38.00,63.24,1
55.00,63.45,1
54.00,63.19,1
72.00,62.84,1
42.00,62.48,1
41.00,61.77,1
70.00,60.79,1
126.00,60.58,1
38.00,61.39,1
53.00,62.09,1
71.00,62.34,1
57.00,62.55,1
91.00,62.92,1
148.00,64.33,1
62.00,66.99,1
59.00,69.54,1
64.00,71.18,1
215.00,73.40,1
64.00,77.26,1
176.00,81.94,1
74.00,86.85,1
44.00,90.74,1
37.00,92.35,1
107.00,92.36,1
79.00,92.04,1
35.00,91.23,1
38.00,89.12,1
83.00,86.18,1
39.00,83.10,1
81.00,80.01,1
63.00,77.19,1
112.00,75.14,1
43.00,73.84,1
57.00,72.51,1
59.00,70.89,1
121.00,69.76,1
65.00,69.63,1
86.00,70.02,1
65.00,70.50,1
122.00,71.33,1
37.00,72.46,1
87.00,73.26,1
80.00,73.85,1
39.00,74.22,1
63.00,73.87,1
122.00,73.54,1
42.00,73.74,1
50.00,73.57,1
45.00,72.54,1
80.00,71.18,1
106.00,70.37,1
90.00,70.59,1
50.00,71.21,1
131.00,71.97,1
99.00,73.58,1
83.00,75.76,1
81.00,77.78,1
81.00,79.44,1
107.00,80.96,1
60.00,82.38,1
54.00,83.06,1
39.00,82.53,1
42.00,80.82,1
42.00,78.21,1
99.00,75.50,1
70.00,73.52,1
119.00,72.54,1
86.00,72.67,1
50.00,73.19,1
55.00,73.15,1
62.00,72.53,1
41.00,71.48,1
86.00,70.21,1
113.00,69.62,1
53.00,69.89,1
78.00,70.24,1
64.00,70.44,1
41.00,70.30,1
91.00,69.83,1
40.00,69.34,1
52.00,68.51,1
51.00,67.22,1
36.00,65.59,1
202.00,64.87,1
86.00,66.57,1
70.00,69.33,1
41.00,71.34,1
38.00,72.06,1
86.00,71.90,1
66.00,71.68,1
106.00,71.83,1
119.00,72.85,1
81.00,74.73,1
61.00,76.52,1
65.00,77.56,1
92.00,78.12,1
68.00,78.58,1
56.00,78.68,1
54.00,78.09,1
42.00,76.76,1
126.00,75.39,1
77.00,74.93,1
114.00,75.36,1
66.00,76.26,1
98.00,77.27,1
43.00,78.01,1
119.00,78.49,1
38.00,78.89,1
65.00,78.74,1
81.00,78.07,1
210.00,78.59,1
111.00,81.46,1
47.00,84.92,1
212.00,88.19,1
46.00,92.04,1
83.00,95.12,1
99.00,96.88,1
76.00,97.96,1
55.00,98.06,1
70.00,97.03,1
58.00,95.13,1
40.00,92.41,1
150.00,89.66,1
157.00,88.72,1
79.00,89.56,1
96.00,90.63,1
46.00,91.08,1
60.00,90.45,1
68.00,88.90,1
57.00,86.87,1
78.00,84.60,1
111.00,82.76,1
62.00,81.62,1
95.00,80.78,1
51.00,79.98,1
40.00,78.68,1
96.00,76.96,1
40.00,75.36,1
73.00,73.70,1
42.00,71.89,1
121.00,70.44,1
66.00,69.91,1
50.00,69.70,1
243.00,70.62,1
44.00,73.81,1
257.00,78.66,1
98.00,85.17,1
132.00,92.16,1
141.00,98.58,1
72.00,104.22,1
64.00,107.93,1
156.00,110.11,1
69.00,111.81,1
50.00,112.22,1
112.00,111.15,1
51.00,109.34,1
91.00,106.87,1
82.00,104.05,1
77.00,101.22,1
102.00,98.51,1
124.00,96.54,1
64.00,95.28,1
36.00,93.54,1
130.00,91.31,1
78.00,89.70,1
70.00,88.44,1
43.00,86.72,1
43.00,84.18,1
55.00,80.99,1
77.00,77.79,1
49.00,74.91,1
58.00,72.17,1
47.00,69.46,1
50.00,66.77,1
115.00,64.68,1
39.00,63.61,1
62.00,62.80,1
49.00,61.86,1
175.00,61.87,1
90.00,63.90,1
166.00,67.64,1
43.00,72.09,1
109.00,76.07,1
50.00,79.15,1
97.00,81.41,1
48.00,82.83,1
90.00,83.51,1
174.00,84.59,1
66.00,86.81,1
48.00,88.54,1
203.00,89.95,1
318.00,94.48,1
117.00,102.67,1
517.00,114.35,1
89.00,129.71,1
60.00,143.34,1
218.00,152.49,1
36.00,158.80,1
47.00,161.13,1
150.00,159.87,1
272.00,158.75,1
43.00,158.76,1
52.00,156.92,1
52.00,151.97,1
119.00,145.44,1
43.00,138.42,1
100.00,131.03,1
104.00,123.95,1
140.00,118.17,1
146.00,114.26,1
109.00,111.99,1
50.00,109.98,1
165.00,107.90,1
78.00,106.55,1
113.00,105.59,1
75.00,104.50,1
107.00,103.27,1
41.00,101.65,1
125.00,99.66,1
57.00,97.73,1
34.00,95.28,1
102.00,92.14,1
39.00,89.00,1
84.00,85.85,1
74.00,82.94,1
79.00,80.56,1
36.00,78.30,1
80.00,75.90,1
56.00,73.65,1
46.00,71.47,1
78.00,69.32,1
53.00,67.51,1
145.00,66.62,1
62.00,67.08,1
59.00,67.93,1
79.00,68.47,1
64.00,68.94,1
73.00,69.33,1
63.00,69.59,1
40.00,69.47,1
54.00,68.69,1
67.00,67.60,1
37.00,66.40,1
46.00,64.82,1
37.00,62.86,1
72.00,60.87,1
44.00,59.21,1
99.00,58.14,1
45.00,57.78,1
59.00,57.64,1
98.00,57.79,1
36.00,58.40,1
72.00,58.94,1
74.00,59.50,1
41.00,60.11,1
82.00,60.56,1
55.00,61.04,1
43.00,61.34,1
42.00,61.05,1
127.00,60.91,1
54.00,61.69,1
65.00,62.72,1
41.00,63.29,1
71.00,63.43,1
55.00,63.40,1
82.00,63.46,1
49.00,63.62,1
43.00,63.48,1
108.00,63.29,1
41.00,63.53,1
75.00,63.80,1
60.00,63.98,1
169.00,65.03,1
35.00,67.27,1
65.00,69.26,1
36.00,70.14,1
88.00,70.34,1
115.00,70.87,1
61.00,72.08,1
46.00,72.95,1
126.00,73.51,1
61.00,74.48,1
45.00,75.18,1
119.00,75.45,1
48.00,75.90,1
70.00,76.09,1
39.00,75.59,1
41.00,74.27,1
68.00,72.37,1
43.00,70.35,1
72.00,68.35,1
47.00,66.51,1
70.00,64.86,1
126.00,64.06,1
62.00,64.52,1
42.00,65.16,1
41.00,65.02,1
54.00,64.23,1
156.00,64.03,1
59.00,65.30,1
76.00,66.99,1
45.00,68.19,1
73.00,68.81,1
45.00,68.95,1
35.00,68.42,1
119.00,67.69,1
168.00,68.55,1
136.00,71.84,1
66.00,76.15,1
55.00,79.58,1
68.00,81.57,1
66.00,82.51,1
56.00,82.60,1
45.00,81.78,1
54.00,80.11,1
59.00,77.95,1
72.00,75.74,1
67.00,73.80,1
52.00,72.01,1
46.00,70.05,1
89.00,68.18,1
39.00,66.67,1
149.00,65.95,1
97.00,66.80,1
112.00,69.02,1
112.00,72.01,1
35.00,74.97,1
39.00,76.56,1
76.00,76.81,1
89.00,76.77,1
80.00,76.96,1
81.00,77.29,1
106.00,77.86,1
238.00,80.11,1
225.00,85.82,1
45.00,93.43,1
55.00,99.18,1
100.00,102.36,1
151.00,104.75,1
184.00,107.94,1
107.00,111.98,1
39.00,114.95,1
127.00,115.99,1
90.00,116.12,1
206.00,116.61,1
72.00,117.88,1
127.00,118.90,1
44.00,118.79,1
52.00,116.96,1
97.00,113.72,1
345.00,112.38,1
76.00,114.80,1
142.00,118.13,1
236.00,121.69,1
103.00,126.28,1
102.00,130.09,1
138.00,132.36,1
222.00,134.67,1
41.00,137.13,1
188.00,138.54,1
120.00,139.46,1
74.00,139.69,1
154.00,138.73,1
71.00,137.16,1
211.00,135.62,1
48.00,134.43,1
40.00,131.95,1
129.00,127.82,1
270.00,125.17,1
175.00,126.00,1
60.00,128.07,1
55.00,128.31,1
339.00,128.45,1
226.00,132.26,1
434.00,140.98,1
168.00,153.34,1
131.00,165.11,1
290.00,174.56,1
83.00,182.53,1
68.00,186.87,1
233.00,187.75,1
72.00,187.20,1
488.00,187.74,1
376.00,193.78,1
178.00,203.74,1
245.00,212.64,1
84.00,218.57,1
106.00,220.08,1
159.00,217.69,1
143.00,213.34,1
224.00,208.49,1
130.00,203.87,1
264.00,199.80,1
482.00,199.60,1
280.00,205.39,1
517.00,215.93,1
120.00,228.71,1
78.00,237.76,1
46.00,239.41,1
419.00,237.58,1
215.00,237.44,1
261.00,238.65,1
95.00,238.55,1
113.00,235.25,1
81.00,228.27,1
250.00,219.71,1
89.00,211.47,1
355.00,204.69,1
192.00,200.95,1
254.00,199.70,1
190.00,199.51,1
134.00,199.11,1
743.00,202.22,1
393.00,214.58,1
209.00,231.28,1
192.00,244.59,1
185.00,253.05,1
196.00,257.40,1
416.00,260.38,1
146.00,263.75,1
387.00,266.63,1
379.00,270.78,1
197.00,276.07,1
338.00,280.15,1
320.00,283.84,1
56.00,285.82,1
126.00,282.46,1
383.00,276.28,1
82.00,270.49,1
669.00,267.20,1
127.00,268.70,1
95.00,269.37,1
272.00,265.81,1
81.00,260.27,1
199.00,252.66,1
40.00,242.79,1
471.00,233.46,1
179.00,228.33,1
60.00,224.22,1
227.00,218.02,1
145.00,211.54,1
147.00,205.11,1
94.00,197.84,1
86.00,189.26,1
280.00,180.99,1
372.00,177.15,1
370.00,179.95,1
42.00,185.70,1
214.00,189.46,1
179.00,191.41,1
308.00,193.83,1
210.00,197.57,1
230.00,201.80,1
129.00,204.94,1
184.00,206.10,1
260.00,206.42,1
150.00,206.90,1
375.00,208.17,1
184.00,211.21,1
62.00,213.19,1
360.00,213.15,1
170.00,213.95,1
363.00,216.27,1
383.00,221.52,1
468.00,231.40,1
90.00,242.93,1
142.00,250.16,1
141.00,251.58,1
206.00,249.53,1
118.00,245.21,1
93.00,238.22,1
164.00,228.89,1
102.00,218.51,1
145.00,207.63,1
59.00,196.20,1
249.00,185.23,1
65.00,175.92,1
246.00,168.19,1
369.00,164.48,1
58.00,164.86,1
140.00,164.86,1
132.00,163.28,1
132.00,161.10,1
70.00,157.97,1
169.00,154.01,1
270.00,151.52,1
284.00,152.82,1
119.00,156.72,1
42.00,159.15,1
41.00,157.73,1
45.00,152.77,1
52.00,145.43,1
57.00,136.71,1
41.00,127.23,1
49.00,117.36,1
388.00,110.34,1
88.00,108.95,1
385.00,112.13,1
101.00,118.79,1
144.00,125.98,1
164.00,131.85,1
120.00,136.84,1
297.00,141.92,1
280.00,149.28,1
238.00,159.00,1
145.00,168.59,1
109.00,175.56,1
302.00,180.55,1
76.00,184.89,1
44.00,186.19,1
80.00,183.01,1
802.00,182.85,1
330.00,193.41,1
268.00,209.40,1
73.00,222.39,1
264.00,230.46,1
320.00,236.59,1
628.00,246.12,1
187.00,259.86,1
259.00,272.13,1
232.00,280.20,1
143.00,284.16,1
65.00,282.60,1
46.00,274.70,1
102.00,261.65,1
160.00,246.49,1
48.00,230.67,1
122.00,214.13,1
183.00,198.41,1
210.00,185.67,1
83.00,175.53,1
352.00,168.06,1
233.00,165.27,1
135.00,165.56,1
171.00,165.88,1
293.00,167.00,1
228.00,170.46,1
61.00,174.16,1
69.00,174.66,1
368.00,173.96,1
49.00,174.73,1
233.00,175.31,1
86.00,174.93,1
245.00,174.22,1
71.00,173.27,1
138.00,171.15,1
367.00,169.78,1
89.00,171.08,1
90.00,171.67,1
105.00,169.50,1
172.00,166.15,1
102.00,162.67,1
63.00,158.25,1
137.00,152.66,1
63.00,146.68,1
61.00,139.95,1
52.00,132.16,1
128.00,124.28,1
231.00,118.64,1
226.00,117.18,1
90.00,118.61,1
150.00,120.38,1
385.00,124.16,1
62.00,131.08,1
467.00,140.09,1
310.00,153.17,1
91.00,167.83,1
59.00,177.94,1
138.00,182.55,1
99.00,183.56,1
116.00,181.96,1
82.00,178.14,1
273.00,173.89,1
143.00,171.31,1
40.00,168.62,1
176.00,164.27,1
60.00,159.27,1
44.00,153.01,1
445.00,148.11,1
386.00,150.43,1
35.00,157.62,1
106.00,162.51,1
43.00,163.23,1
438.00,163.60,1
142.00,167.28,1
75.00,171.14,1
386.00,174.01,1
79.00,178.10,1
142.00,180.99,1
639.00,185.50,1
68.00,195.17,1
212.00,204.22,1
42.00,208.73,1
90.00,208.42,1
127.00,204.13,1
212.00,198.72,1
268.00,194.82,1
156.00,192.90,1
337.00,192.65,1
68.00,193.53,1
86.00,192.40,1
43.00,187.50,1
43.00,179.29,1
294.00,170.62,1
179.00,165.08,1
208.00,162.53,1
63.00,160.66,1
295.00,159.13,1
184.00,159.63,1
181.00,161.73,1
172.00,163.90,1
90.00,165.22,1
115.00,164.60,1
137.00,162.45,1
318.00,161.29,1
108.00,162.40,1
135.00,163.41,1
75.00,162.51,1
118.00,159.75,1
52.00,155.35,1
250.00,150.77,1
44.00,147.24,1
105.00,143.35,1
215.00,139.53,1
75.00,137.06,1
77.00,134.30,1
274.00,131.92,1
73.00,131.53,1
86.00,131.06,1
229.00,130.29,1
68.00,130.46,1
53.00,129.72,1
66.00,126.82,1
169.00,123.36,1
61.00,120.49,1
58.00,117.21,1
293.00,114.72,1
156.00,115.70,1
88.00,118.35,1
118.00,120.18,1
72.00,120.86,1
150.00,120.78,1
73.00,120.40,1
133.00,119.68,1
138.00,119.11,1
86.00,118.84,1
41.00,117.59,1
99.00,114.95,1
111.00,112.03,1
165.00,110.13,1
252.00,110.80,1
105.00,114.06,1
108.00,117.49,1
123.00,119.86,1
51.00,121.05,1
62.00,120.31,1
36.00,117.48,1
92.00,113.30,1
76.00,108.83,1
98.00,104.65,1
132.00,101.36,1
42.00,98.84,1
221.00,97.28,1
93.00,97.66,1
50.00,98.50,1
41.00,97.81,1
136.00,96.25,1
78.00,95.11,1
186.00,95.06,1
63.00,96.13,1
36.00,96.64,1
190.00,96.51,1
73.00,97.28,1
49.00,97.83,1
127.00,97.47,1
97.00,97.29,1
52.00,97.01,1
78.00,95.90,1
158.00,94.91,1
78.00,94.92,1
52.00,94.82,1
104.00,93.95,1
53.00,92.77,1
146.00,91.76,1
72.00,91.40,1
157.00,91.81,1
50.00,92.69,1
123.00,93.43,1
80.00,94.02,1
230.00,95.60,1
50.00,98.56,1
57.00,100.74,1
172.00,101.84,1
71.00,103.22,1
295.00,105.90,1
157.00,111.21,1
41.00,116.97,1
72.00,120.04,1
139.00,121.08,1
120.00,121.75,1
98.00,122.17,1
37.00,121.36,1
79.00,118.78,1
93.00,115.26,1
58.00,111.43,1
45.00,106.92,1
79.00,101.83,1
76.00,96.88,1
48.00,92.23,1
66.00,87.60,1
78.00,83.33,1
116.00,80.12,1
38.00,77.92,1
54.00,75.70,1
104.00,73.57,1
79.00,72.35,1
99.00,72.00,1
42.00,72.01,1
67.00,71.69,1
104.00,71.40,1
218.00,72.91,1
226.00,77.99,1
69.00,85.35,1
95.00,91.92,1
99.00,96.83,1
164.00,101.14,1
71.00,105.19,1
175.00,108.77,1
61.00,111.87,1
71.00,113.58,1
44.00,113.16,1
42.00,110.74,1
77.00,106.93,1
168.00,103.51,1
60.00,101.41,1
86.00,99.55,1
37.00,97.06,1
51.00,93.70,1
62.00,89.69,1
36.00,85.42,1
72.00,81.06,1
62.00,77.06,1
45.00,73.46,1
44.00,69.92,1
185.00,67.54,1
52.00,67.37,1
61.00,67.91,1
130.00,68.59,1
85.00,70.19,1
38.00,71.88,1
53.00,72.56,1
196.00,73.48,1
40.00,75.78,1
368.00,80.36,1
89.00,88.30,1
72.00,96.55,1
66.00,102.09,1
139.00,105.76,1
95.00,108.67,1
150.00,111.25,1
74.00,113.42,1
86.00,114.47,1
74.00,114.14,1
52.00,112.49,1
95.00,109.76,1
72.00,106.66,1
124.00,103.77,1
34.00,101.07,1
83.00,97.93,1
206.00,95.67,1
111.00,95.81,1
123.00,97.34,1
56.00,98.69,1
107.00,99.28,1
122.00,99.68,1
66.00,100.14,1
40.00,99.59,1
74.00,97.68,1
135.00,95.66,1
110.00,94.75,1
102.00,94.70,1
80.00,94.79,1
118.00,94.87,1
119.00,95.39,1
39.00,95.89,1
87.00,95.44,1
110.00,94.60,1
143.00,94.57,1
77.00,95.34,1
104.00,96.08,1
382.00,99.00,1
49.00,105.60,1
44.00,111.46,1
127.00,114.39,1
244.00,117.32,1
81.00,121.43,1
68.00,124.45,1
112.00,125.33,1
84.00,124.96,1
88.00,123.55,1
71.00,121.12,1
149.00,118.41,1
152.00,116.74,1
82.00,116.05,1
312.00,116.88,1
142.00,120.71,1
100.00,125.40,1
75.00,128.25,1
155.00,129.51,1
71.00,129.95,1
74.00,129.05,1
149.00,127.13,1
71.00,125.13,1
103.00,122.73,1
48.00,119.53,1
58.00,115.25,1
74.00,110.17,1
110.00,105.27,1
142.00,101.66,1
223.00,100.64,1
81.00,102.05,1
146.00,104.15,1
72.00,105.98,1
101.00,107.09,1
66.00,107.19,1
189.00,107.21,1
81.00,108.02,1
78.00,108.62,1
119.00,108.42,1
91.00,108.04,1
240.00,108.67,1
66.00,110.84,1
246.00,113.94,1
41.00,117.49,1
46.00,119.38,1
118.00,118.94,1
45.00,117.36,1
105.00,114.85,1
256.00,113.37,1
72.00,114.24,1
127.00,115.48,1
127.00,116.35,1
141.00,117.48,1
168.00,119.23,1
146.00,121.77,1
54.00,123.93,1
77.00,124.19,1
60.00,122.50,1
199.00,120.43,1
87.00,119.39,1
39.00,118.05,1
84.00,115.19,1
46.00,111.27,1
72.00,106.66,1
72.00,101.81,1
86.00,97.24,1
69.00,93.14,1
183.00,90.32,1
78.00,89.46,1
136.00,89.79,1
88.00,90.68,1
56.00,91.41,1
130.00,91.66,1
137.00,92.57,1
224.00,95.43,1
60.00,99.79,1
64.00,103.18,1
49.00,104.29,1
102.00,103.85,1
158.00,103.49,1
138.00,104.40,1
100.00,106.07,1
96.00,107.41,1
61.00,107.79,1
48.00,106.70,1
164.00,104.98,1
45.00,103.69,1
182.00,102.89,1
50.00,102.68,1
92.00,102.21,1
82.00,101.08,1
98.00,99.80,1
83.00,98.51,1
77.00,97.08,1
64.00,95.27,1
102.00,93.28,1
104.00,91.76,1
104.00,91.00,1
68.00,90.56,1
220.00,91.04,1
62.00,93.14,1
39.00,94.82,1
74.00,94.72,1
124.00,94.07,1
88.00,93.86,1
114.00,94.03,1
227.00,95.54,1
66.00,98.79,1
136.00,102.08,1
60.00,104.49,1
97.00,105.78,1
67.00,105.91,1
100.00,105.25,1
64.00,104.00,1
106.00,102.36,1
81.00,100.68,1
94.00,99.06,1
171.00,98.21,1
72.00,98.52,1
125.00,99.14,1
79.00,99.65,1
84.00,99.77,1
38.00,98.90,1
152.00,97.55,1
44.00,96.48,1
158.00,95.77,1
180.00,96.57,1
114.00,99.22,1
138.00,102.46,1
93.00,105.53,1
104.00,107.91,1
54.00,109.08,1
130.00,109.16,1
72.00,108.81,1
47.00,107.58,1
84.00,105.15,1
61.00,102.10,1
45.00,98.47,1
97.00,94.49,1
35.00,90.60,1
81.00,86.69,1
43.00,82.83,1
83.00,79.22,1
52.00,76.02,1
75.00,73.23,1
79.00,71.02,1
38.00,69.23,1
86.00,67.58,1
85.00,66.53,1
54.00,66.10,1
80.00,65.84,1
36.00,65.54,1
60.00,64.89,1
71.00,64.13,1
114.00,64.05,1
123.00,65.38,1
50.00,67.63,1
59.00,69.43,1
61.00,70.39,1
82.00,70.97,1
41.00,71.26,1
135.00,71.60,1
82.00,72.74,1
83.00,74.36,1
104.00,76.04,1
278.00,79.52,1
65.00,85.54,1
86.00,91.39,1
108.00,95.65,1
98.00,99.04,1
36.00,101.12,1
55.00,101.23,1
63.00,99.67,1
50.00,97.08,1
100.00,94.07,1
106.00,91.62,1
35.00,89.59,1
66.00,87.09,1
180.00,85.18,1
83.00,85.15,1
84.00,85.87,1
86.00,86.37,1
212.00,87.78,1
58.00,90.67,1
134.00,93.69,1
36.00,95.87,1
35.00,96.33,1
116.00,95.34,1
110.00,94.54,1
204.00,95.28,1
68.00,97.55,1
58.00,99.34,1
61.00,99.44,1
98.00,98.52,1
80.00,97.34,1
98.00,96.17,1
44.00,94.74,1
135.00,93.17,1
42.00,91.84,1
48.00,90.00,1
64.00,87.28,1
68.00,84.34,1
80.00,81.63,1
277.00,81.07,1
68.00,83.81,1
141.00,87.73,1
184.00,92.22,1
126.00,97.85,1
84.00,103.20,1
170.00,107.68,1
119.00,112.02,1
83.00,115.67,1
55.00,117.42,1
63.00,116.97,1
90.00,114.99,1
72.00,112.29,1
192.00,110.05,1
55.00,108.93,1
160.00,108.30,1
47.00,107.73,1
68.00,106.39,1
81.00,104.02,1
38.00,100.99,1
184.00,98.16,1
235.00,98.09,1
54.00,100.67,1
176.00,103.60,1
150.00,107.01,1
101.00,110.85,1
102.00,113.85,1
123.00,115.89,1
52.00,116.92,1
95.00,116.48,1
52.00,114.71,1
81.00,111.89,1
68.00,108.36,1
65.00,104.42,1
101.00,100.44,1
44.00,96.67,1
113.00,93.09,1
72.00,90.13,1
78.00,87.67,1
132.00,85.87,1
60.00,85.00,1
64.00,84.14,1
128.00,83.31,1
65.00,83.11,1
83.00,83.03,1
41.00,82.47,1
71.00,81.26,1
61.00,79.67,1
121.00,78.43,1
156.00,78.69,1
64.00,80.40,1
38.00,81.70,1
65.00,81.68,1
112.00,81.28,1
182.00,82.21,1
54.00,84.59,1
57.00,86.47,1
126.00,87.46,1
36.00,88.17,1
185.00,88.96,1
94.00,90.77,1
55.00,92.68,1
177.00,94.22,1
70.00,96.23,1
39.00,97.51,1
69.00,97.05,1
89.00,95.68,1
86.00,94.23,1
71.00,92.76,1
133.00,91.56,1
133.00,91.52,1
162.00,93.12,1
55.00,95.50,1
232.00,98.33,1
89.00,102.26,1
149.00,106.51,1
63.00,109.93,1
89.00,111.90,1
89.00,112.40,1
181.00,112.76,1
67.00,113.60,1
75.00,113.69,1
44.00,112.15,1
38.00,108.91,1
64.00,104.34,1
86.00,99.49,1
264.00,96.65,1
56.00,96.84,1
50.00,97.30,1
82.00,96.41,1
62.00,94.82,1
42.00,92.52,1
138.00,90.07,1
78.00,88.51,1
85.00,87.54,1
71.00,86.54,1
94.00,85.57,1
155.00,85.45,1
81.00,86.55,1
82.00,87.82,1
40.00,88.24,1
113.00,87.90,1
43.00,87.28,1
190.00,87.15,1
84.00,88.36,1
171.00,90.77,1
80.00,93.78,1
64.00,96.24,1
109.00,97.52,1
74.00,98.21,1
45.00,97.99,1
152.00,97.17,1
166.00,97.60,1
52.00,99.13,1
134.00,100.36,1
236.00,102.58,1
50.00,106.30,1
56.00,108.85,1
67.00,109.06,1
44.00,107.52,1
44.00,104.42,1
68.00,100.25,1
87.00,95.97,1
184.00,93.09,1
81.00,92.27,1
54.00,91.90,1
102.00,90.98,1
64.00,89.93,1
141.00,89.23,1
158.00,89.93,1
40.00,91.60,1
70.00,92.38,1
164.00,92.76,1
93.00,94.04,1
166.00,96.20,1
115.00,99.13,1
112.00,102.27,1
168.00,105.48,1
88.00,108.86,1
100.00,111.50,1
67.00,112.75,1
110.00,112.80,1
112.00,112.41,1
110.00,112.06,1
43.00,111.19,1
78.00,109.11,1
60.00,106.03,1
95.00,102.61,1
132.00,99.77,1
43.00,97.64,1
78.00,95.24,1
127.00,92.96,1
86.00,91.63,1
50.00,90.47,1
100.00,88.95,1
62.00,87.43,1
136.00,86.37,1
50.00,85.88,1
112.00,85.54,1
106.00,85.60,1
86.00,86.21,1
64.00,86.65,1
46.00,86.26,1
82.00,85.08,1
60.00,83.59,1
105.00,82.23,1
80.00,81.38,1
42.00,80.58,1
86.00,79.36,1
112.00,78.51,1
61.00,78.35,1
125.00,78.61,1
37.00,79.08,1
62.00,78.98,1
106.00,78.49,1
136.00,78.92,1
73.00,80.37,1
82.00,81.82,1
66.00,82.73,1
155.00,83.73,1
171.00,86.26,1
70.00,90.03,1
41.00,92.81,1
40.00,93.42,1
43.00,92.15,1
64.00,89.70,1
141.00,87.44,1
142.00,86.87,1
44.00,87.47,1
130.00,88.00,1
40.00,88.34,1
179.00,88.90,1
68.00,90.23,1
186.00,92.40,1
43.00,95.00,1
87.00,96.80,1
47.00,97.15,1
90.00,96.43,1
39.00,94.88,1
131.00,93.04,1
50.00,91.46,1
86.00,89.85,1
75.00,88.12,1
55.00,86.28,1
88.00,84.29,1
72.00,82.49,1
122.00,81.33,1
37.00,80.68,1
119.00,80.12,1
94.00,80.11,1
125.00,81.02,1
44.00,82.25,1
51.00,82.63,1
41.00,81.73,1
109.00,80.34,1
110.00,79.68,1
66.00,79.81,1
88.00,80.00,1
55.00,79.95,1
103.00,79.76,1
82.00,79.81,1
81.00,80.09,1
172.00,81.09,1
108.00,83.59,1
62.00,86.44,1
43.00,88.03,1
78.00,88.19,1
46.00,87.42,1
42.00,85.69,1
70.00,83.20,1
112.00,80.98,1
81.00,79.73,1
65.00,78.94,1
167.00,78.86,1
38.00,79.82,1
153.00,81.18,1
132.00,83.47,1
47.00,86.29,1
103.00,88.30,1
45.00,89.37,1
106.00,89.69,1
72.00,89.69,1
62.00,89.30,1
70.00,88.24,1
80.00,86.86,1
81.00,85.50,1
222.00,85.49,1
51.00,87.46,1
47.00,89.13,1
146.00,89.85,1
155.00,91.53,1
110.00,94.46,1
67.00,97.22,1
47.00,98.49,1
79.00,98.17,1
50.00,96.77,1
77.00,94.61,1
187.00,93.08,1
87.00,93.33,1
100.00,94.24,1
85.00,94.89,1
103.00,95.33,1
91.00,95.67,1
192.00,96.71,1
65.00,98.77,1
94.00,100.51,1
103.00,101.44,1
268.00,103.49,1
76.00,107.56,1
73.00,111.17,1
60.00,112.57,1
122.00,112.49,1
145.00,112.42,1
124.00,113.09,1
73.00,113.71,1
126.00,113.70,1
51.00,113.04,1
93.00,111.44,1
90.00,109.24,1
43.00,106.57,1
282.00,104.81,1
154.00,106.34,1
49.00,109.28,1
68.00,110.56,1
161.00,110.73,1
46.00,110.80,1
58.00,109.76,1
163.00,108.01,1
102.00,107.13,1
74.00,106.56,1
158.00,105.98,1
45.00,105.63,1
97.00,104.72,1
50.00,102.96,1
68.00,100.40,1
43.00,97.01,1
51.00,92.93,1
108.00,88.84,1
142.00,86.18,1
112.00,85.48,1
80.00,85.82,1
122.00,86.50,1
54.00,87.28,1
162.00,88.23,1
42.00,89.51,1
74.00,90.17,1
172.00,90.68,1
223.00,93.38,1
80.00,98.09,1
58.00,102.07,1
60.00,103.82,1
214.00,104.96,1
56.00,106.85,1
86.00,108.16,1
73.00,108.07,1
105.00,107.21,1
88.00,106.07,1
43.00,104.38,1
96.00,101.87,1
65.00,99.07,1
54.00,95.97,1
35.00,92.17,1
100.00,88.08,1
75.00,84.63,1
38.00,81.59,1
56.00,78.29,1
59.00,74.92,1
55.00,71.78,1
64.00,68.94,1
48.00,66.41,1
77.00,64.26,1
88.00,62.89,1
57.00,62.34,1
48.00,61.92,1
82.00,61.50,1
84.00,61.59,1
52.00,62.13,1
67.00,62.59,1
62.00,62.92,1
37.00,62.98,1
47.00,62.44,1
140.00,62.22,1
33.00,62.96,1
66.00,63.70,1
35.00,63.81,1
56.00,63.37,1
78.00,62.80,1
67.00,62.60,1
116.00,63.09,1
39.00,64.18,1
92.00,65.26,1
87.00,66.48,1
66.00,67.96,1
94.00,69.43,1
98.00,71.16,1
76.00,73.16,1
72.00,74.92,1
62.00,76.11,1
40.00,76.43,1
46.00,75.70,1
126.00,74.77,1
81.00,74.73,1
39.00,74.93,1
40.00,74.25,1
131.00,73.34,1
116.00,73.69,1
124.00,75.54,1
66.00,78.01,1
59.00,79.91,1
116.00,81.19,1
38.00,82.19,1
97.00,82.62,1
80.00,82.80,1
58.00,82.80,1
55.00,82.12,1
61.00,80.79,1
146.00,79.77,1
105.00,80.16,1
44.00,81.12,1
64.00,81.29,1
59.00,80.63,1
56.00,79.42,1
42.00,77.63,1
64.00,75.38,1
47.00,72.98,1
36.00,70.34,1
59.00,67.48,1
104.00,65.21,1
36.00,63.84,1
150.00,63.38,1
44.00,64.10,1
65.00,65.03,1
121.00,66.02,1
127.00,68.20,1
93.00,71.46,1
61.00,74.67,1
44.00,76.77,1
60.00,77.55,1
84.00,77.63,1
147.00,78.22,1
110.00,80.12,1
149.00,83.18,1
73.00,86.73,1
40.00,89.33,1
127.00,90.67,1
53.00,91.56,1
50.00,91.53,1
69.00,90.31,1
147.00,89.17,1
156.00,89.66,1
54.00,91.32,1
99.00,92.56,1
62.00,93.03,1
190.00,93.72,1
103.00,95.65,1
79.00,97.89,1
38.00,98.82,1
100.00,98.38,1
55.00,97.22,1
44.00,95.20,1
55.00,92.14,1
35.00,88.33,1
106.00,84.42,1
37.00,81.01,1
42.00,77.56,1
70.00,73.95,1
37.00,70.57,1
102.00,67.71,1
43.00,65.63,1
40.00,63.77,1
128.00,62.33,1
76.00,62.25,1
106.00,63.33,1
148.00,65.66,1
46.00,68.96,1
85.00,71.88,1
129.00,74.58,1
82.00,77.68,1
50.00,80.30,1
76.00,81.77,1
75.00,82.47,1
54.00,82.59,1
58.00,81.93,1
146.00,81.34,1
99.00,81.92,1
39.00,82.82,1
45.00,82.59,1
105.00,81.63,1
55.00,80.76,1
50.00,79.61,1
103.00,78.24,1
73.00,77.34,1
76.00,76.78,1
34.00,75.96,1
43.00,74.36,1
178.00,73.15,1
58.00,73.59,1
60.00,74.43,1
106.00,74.95,1
59.00,75.60,1
112.00,76.38,1
63.00,77.31,1
65.00,77.96,1
99.00,78.29,1
41.00,78.46,1
47.00,77.89,1
72.00,76.59,1
41.00,74.99,1
61.00,73.06,1
72.00,71.12,1
59.00,69.48,1
51.00,67.93,1
76.00,66.46,1
84.00,65.53,1
106.00,65.54,1
39.00,66.16,1
60.00,66.45,1
104.00,66.65,1
111.00,67.74,1
110.00,69.93,1
62.00,72.53,1
121.00,75.04,1
143.00,78.17,1
39.00,81.65,1
72.00,84.02,1
84.00,85.24,1
109.00,86.23,1
34.00,86.91,1
70.00,86.59,1
74.00,85.54,1
46.00,84.09,1
128.00,82.64,1
58.00,81.78,1
51.00,80.86,1
89.00,79.55,1
57.00,78.29,1
117.00,77.39,1
70.00,77.12,1
40.00,76.83,1
50.00,75.70,1
93.00,74.27,1
60.00,73.17,1
68.00,72.24,1
70.00,71.34,1
43.00,70.37,1
138.00,69.74,1
53.00,70.04,1
46.00,70.35,1
105.00,70.32,1
67.00,70.66,1
37.00,70.85,1
53.00,70.26,1
42.00,69.01,1
55.00,67.36,1
44.00,65.50,1
57.00,63.57,1
95.00,62.10,1
111.00,61.88,1
41.00,62.63,1
275.00,65.01,1
60.00,70.07,1
54.00,75.30,1
77.00,78.80,1
68.00,81.15,1
79.00,82.66,1
111.00,83.86,1
60.00,84.98,1
195.00,86.55,1
62.00,89.11,1
56.00,91.21,1
61.00,91.72,1
83.00,91.24,1
53.00,90.17,1
49.00,88.33,1
86.00,85.98,1
104.00,84.04,1
40.00,82.55,1
55.00,80.66,1
100.00,78.62,1
76.00,77.21,1
41.00,76.00,1
36.00,74.18,1
52.00,71.69,1
105.00,69.46,1
48.00,68.03,1
68.00,66.91,1
41.00,65.71,1
53.00,64.30,1
74.00,62.93,1
126.00,62.51,1
75.00,63.43,1
62.00,64.83,1
40.00,65.72,1
39.00,65.71,1
63.00,65.02,1
59.00,64.20,1
240.00,64.96,1
92.00,68.59,1
51.00,73.01,1
83.00,76.24,1
68.00,78.52,1
104.00,80.33,1
66.00,81.88,1
83.00,82.98,1
37.00,83.30,1
99.00,82.90,1
44.00,82.15,1
37.00,80.71,1
82.00,78.60,1
95.00,76.85,1
124.00,76.26,1
37.00,76.43,1
45.00,76.03,1
82.00,74.94,1
35.00,73.65,1
38.00,71.79,1
54.00,69.37,1
48.00,66.85,1
87.00,64.68,1
91.00,63.48,1
83.00,63.39,1
69.00,63.93,1
133.00,65.17,1
40.00,67.06,1
46.00,68.43,1
46.00,68.67,1
78.00,68.36,1
72.00,68.13,1
79.00,68.20,1
51.00,68.31,1
80.00,68.30,1
66.00,68.32,1
146.00,69.03,1
51.00,70.69,1
86.00,72.37,1
79.00,73.75,1
40.00,74.70,1
65.00,74.81,1
79.00,74.47,1
56.00,74.06,1
74.00,73.49,1
114.00,73.25,1
69.00,73.72,1
37.00,74.03,1
50.00,73.41,1
257.00,73.76,1
105.00,77.12,1
90.00,81.72,1
67.00,85.43,1
47.00,87.64,1
50.00,88.16,1
72.00,87.44,1
75.00,86.23,1
52.00,84.73,1
80.00,82.92,1
110.00,81.47,1
171.00,81.57,1
96.00,83.48,1
37.00,85.49,1
93.00,86.36,1
39.00,86.33,1
112.00,85.78,1
83.00,85.39,1
43.00,84.92,1
48.00,83.55,1
76.00,81.51,1
44.00,79.29,1
71.00,76.92,1
52.00,74.54,1
95.00,72.50,1
289.00,72.93,1
56.00,76.92,1
40.00,81.06,1
234.00,84.58,1
131.00,89.74,1
55.00,95.26,1
64.00,98.83,1
65.00,100.31,1
97.00,100.52,1
42.00,99.83,1
180.00,99.00,1
130.00,99.50,1
210.00,101.98,1
131.00,106.11,1
66.00,110.19,1
113.00,112.75,1
38.00,113.69,1
50.00,112.60,1
44.00,109.54,1
75.00,105.35,1
