47.00,79.97,1
107.00,81.88,1
156.00,84.08,1
72.00,87.02,1
167.00,90.25,1
92.00,93.85,1
73.00,96.99,1
68.00,98.69,1
38.00,98.75,1
100.00,97.54,1
73.00,95.96,1
86.00,94.34,1
298.00,94.47,1
80.00,97.73,1
68.00,101.33,1
113.00,103.42,1
70.00,104.60,1
124.00,105.14,1
77.00,105.34,1
94.00,105.08,1
58.00,104.06,1
132.00,102.67,1
77.00,101.52,1
209.00,101.39,1
105.00,102.91,1
92.00,104.89,1
76.00,105.94,1
308.00,107.80,1
201.00,113.03,1
306.00,121.71,1
181.00,132.51,1
75.00,142.47,1
182.00,149.55,1
222.00,155.44,1
65.00,160.50,1
38.00,162.20,1
119.00,160.26,1
310.00,158.34,1
55.00,158.23,1
88.00,157.12,1
159.00,154.30,1
55.00,150.85,1
499.00,149.59,1
52.00,152.81,1
45.00,155.56,1
180.00,155.16,1
74.00,153.68,1
96.00,150.97,1
152.00,147.36,1
68.00,143.62,1
99.00,139.21,1
458.00,137.26,1
55.00,140.07,1
67.00,142.82,1
235.00,143.68,1
117.00,144.98,1
82.00,145.74,1
459.00,147.61,1
327.00,155.13,1
363.00,167.90,1
57.00,181.24,1
320.00,191.97,1
96.00,200.32,1
242.00,206.27,1
351.00,211.67,1
324.00,219.26,1
64.00,226.57,1
48.00,228.77,1
203.00,225.85,1
45.00,220.26,1
83.00,211.83,1
243.00,202.14,1
127.00,193.85,1
76.00,185.87,1
59.00,176.43,1
277.00,167.31,1
99.00,160.72,1
83.00,155.02,1
94.00,148.52,1
48.00,141.30,1
89.00,133.43,1
184.00,126.43,1
75.00,121.33,1
42.00,116.54,1
83.00,111.03,1
50.00,105.31,1
144.00,100.18,1
184.00,97.30,1
324.00,98.81,1
65.00,104.12,1
268.00,110.68,1
137.00,118.11,1
231.00,126.24,1
298.00,135.67,1
160.00,146.53,1
135.00,156.16,1
42.00,162.22,1
319.00,165.90,1
62.00,169.35,1
149.00,171.26,1
157.00,171.29,1
212.00,171.23,1
91.00,171.08,1
130.00,169.62,1
127.00,166.84,1
56.00,162.86,1
216.00,158.18,1
101.00,154.27,1
124.00,150.68,1
83.00,146.53,1
42.00,141.25,1
83.00,134.64,1
93.00,127.64,1
124.00,121.34,1
35.00,115.66,1
91.00,109.87,1
284.00,105.99,1
136.00,106.13,1
236.00,109.28,1
62.00,113.63,1
80.00,116.82,1
119.00,118.19,1
178.00,119.43,1
110.00,121.26,1
58.00,122.41,1
172.00,122.51,1
162.00,123.21,1
252.00,125.86,1
179.00,130.72,1
146.00,136.35,1
70.00,140.59,1
52.00,141.93,1
73.00,140.27,1
57.00,136.46,1
127.00,131.63,1
123.00,127.19,1
74.00,123.30,1
157.00,119.81,1
40.00,116.73,1
108.00,113.38,1
96.00,110.00,1
155.00,107.55,1
130.00,106.57,1
88.00,106.46,1
230.00,107.29,1
80.00,109.57,1
124.00,111.93,1
169.00,114.13,1
126.00,116.90,1
39.00,118.93,1
68.00,118.81,1
74.00,116.83,1
166.00,114.63,1
97.00,113.31,1
54.00,111.99,1
233.00,110.90,1
78.00,111.34,1
45.00,111.58,1
92.00,110.20,1
66.00,107.94,1
90.00,105.25,1
56.00,102.21,1
62.00,98.71,1
84.00,94.97,1
190.00,92.46,1
73.00,91.93,1
97.00,92.06,1
109.00,92.23,1
72.00,92.50,1
67.00,92.30,1
42.00,91.14,1
48.00,88.88,1
86.00,86.07,1
76.00,83.54,1
154.00,82.11,1
158.00,82.81,1
47.00,84.88,1
147.00,86.95,1
85.00,89.17,1
79.00,91.18,1
87.00,92.41,1
116.00,93.34,1
84.00,94.29,1
85.00,94.94,1
61.00,94.90,1
90.00,94.18,1
102.00,93.34,1
34.00,92.33,1
37.00,90.22,1
58.00,86.97,1
123.00,83.91,1
61.00,81.83,1
94.00,80.35,1
51.00,79.05,1
59.00,77.55,1
181.00,76.75,1
102.00,77.94,1
205.00,81.15,1
164.00,86.54,1
161.00,93.52,1
58.00,100.23,1
152.00,105.55,1
65.00,109.63,1
68.00,112.01,1
59.00,112.25,1
172.00,111.68,1
50.00,111.29,1
64.00,110.10,1
70.00,107.60,1
56.00,104.28,1
98.00,100.63,1
39.00,96.92,1
103.00,93.20,1
98.00,90.13,1
51.00,87.72,1
48.00,85.03,1
62.00,81.90,1
55.00,78.69,1
83.00,75.76,1
169.00,74.24,1
89.00,74.87,1
56.00,76.22,1
72.00,76.98,1
95.00,77.45,1
166.00,78.79,1
134.00,81.84,1
134.00,86.13,1
58.00,90.36,1
78.00,93.29,1
93.00,94.97,1
140.00,96.45,1
144.00,98.68,1
115.00,101.60,1
54.00,104.00,1
43.00,104.57,1
126.00,103.73,1
41.00,102.45,1
134.00,100.91,1
125.00,99.99,1
74.00,99.77,1
106.00,99.43,1
60.00,98.75,1
214.00,98.61,1
99.00,100.12,1
100.00,102.19,1
128.00,103.91,1
76.00,105.35,1
128.00,106.33,1
259.00,108.46,1
58.00,112.32,1
51.00,115.06,1
135.00,115.76,1
64.00,115.65,1
93.00,114.69,1
49.00,112.64,1
202.00,110.60,1
66.00,109.69,1
46.00,108.52,1
85.00,106.03,1
64.00,102.95,1
66.00,99.51,1
56.00,95.68,1
182.00,92.59,1
65.00,91.18,1
47.00,90.07,1
257.00,89.69,1
92.00,91.82,1
79.00,94.71,1
83.00,96.53,1
115.00,97.69,1
100.00,98.77,1
150.00,100.16,1
147.00,102.44,1
112.00,105.39,1
170.00,108.62,1
78.00,111.87,1
54.00,113.78,1
158.00,114.31,1
46.00,114.37,1
244.00,114.72,1
188.00,117.18,1
251.00,122.41,1
182.00,129.56,1
36.00,136.09,1
42.00,138.94,1
58.00,138.00,1
135.00,135.14,1
136.00,132.33,1
100.00,130.01,1
56.00,127.20,1
112.00,123.52,1
41.00,119.30,1
290.00,116.14,1
40.00,115.39,1
155.00,115.33,1
41.00,114.71,1
169.00,113.79,1
79.00,113.12,1
109.00,112.48,1
60.00,111.21,1
137.00,109.61,1
40.00,107.85,1
197.00,106.37,1
47.00,105.70,1
52.00,104.52,1
111.00,102.33,1
38.00,99.87,1
98.00,97.04,1
299.00,96.11,1
256.00,100.09,1
179.00,108.02,1
250.00,117.64,1
98.00,127.49,1
152.00,135.70,1
167.00,142.14,1
106.00,147.23,1
103.00,150.21,1
104.00,150.91,1
157.00,150.32,1
59.00,148.85,1
74.00,145.68,1
56.00,140.61,1
48.00,134.04,1
72.00,126.46,1
79.00,118.75,1
182.00,112.37,1
66.00,108.03,1
86.00,104.46,1
168.00,101.66,1
62.00,100.18,1
205.00,99.85,1
107.00,101.10,1
39.00,102.49,1
39.00,102.00,1
106.00,100.10,1
48.00,97.82,1
169.00,95.91,1
221.00,96.33,1
104.00,99.37,1
112.00,102.86,1
141.00,105.99,1
88.00,108.85,1
64.00,110.57,1
55.00,110.44,1
162.00,109.48,1
175.00,109.71,1
85.00,111.21,1
144.00,112.71,1
129.00,114.28,1
68.00,115.58,1
162.00,116.27,1
100.00,117.02,1
77.00,117.34,1
54.00,116.24,1
46.00,113.45,1
139.00,109.94,1
39.00,106.62,1
118.00,103.35,1
53.00,100.16,1
269.00,98.50,1
89.00,99.60,1
221.00,102.66,1
108.00,106.89,1
137.00,111.32,1
72.00,114.76,1
114.00,116.82,1
104.00,117.87,1
73.00,118.02,1
137.00,117.43,1
76.00,116.59,1
68.00,115.05,1
201.00,113.48,1
268.00,114.63,1
104.00,118.68,1
45.00,122.13,1
37.00,122.61,1
73.00,120.49,1
160.00,117.73,1
132.00,116.09,1
203.00,116.18,1
41.00,117.20,1
75.00,117.07,1
65.00,115.21,1
58.00,112.15,1
132.00,108.70,1
87.00,105.87,1
40.00,103.07,1
69.00,99.50,1
55.00,95.41,1
220.00,92.44,1
105.00,92.11,1
96.00,93.17,1
354.00,96.28,1
131.00,103.20,1
102.00,110.99,1
40.00,116.32,1
142.00,119.20,1
49.00,120.52,1
157.00,120.81,1
96.00,120.84,1
58.00,120.22,1
60.00,118.01,1
66.00,114.46,1
115.00,110.50,1
58.00,106.77,1
78.00,102.96,1
190.00,100.00,1
43.00,98.61,1
195.00,98.18,1
135.00,99.30,1
83.00,101.41,1
102.00,102.99,1
89.00,103.89,1
50.00,103.85,1
210.00,103.69,1
102.00,104.88,1
104.00,106.60,1
71.00,107.52,1
183.00,108.21,1
48.00,109.16,1
106.00,109.45,1
88.00,108.93,1
141.00,108.43,1
281.00,109.85,1
66.00,113.70,1
72.00,116.87,1
259.00,119.29,1
104.00,122.95,1
50.00,125.93,1
35.00,126.00,1
70.00,123.45,1
405.00,122.21,1
76.00,125.15,1
108.00,128.75,1
231.00,131.55,1
43.00,134.41,1
127.00,135.79,1
109.00,135.70,1
165.00,135.36,1
214.00,136.02,1
164.00,138.31,1
94.00,140.74,1
169.00,142.24,1
96.00,143.03,1
48.00,142.28,1
147.00,139.79,1
179.00,137.59,1
191.00,137.13,1
260.00,139.01,1
144.00,142.96,1
58.00,146.23,1
158.00,147.33,1
370.00,149.45,1
152.00,154.81,1
138.00,160.49,1
123.00,164.04,1
101.00,165.31,1
184.00,165.01,1
204.00,164.89,1
140.00,165.40,1
62.00,164.84,1
119.00,162.11,1
144.00,158.33,1
55.00,154.04,1
36.00,148.08,1
43.00,140.03,1
43.00,130.63,1
65.00,120.78,1
65.00,111.26,1
95.00,102.74,1
40.00,95.31,1
38.00,88.28,1
134.00,82.08,1
85.00,77.88,1
64.00,75.16,1
190.00,73.97,1
173.00,75.71,1
210.00,80.70,1
160.00,88.08,1
118.00,96.13,1
53.00,102.79,1
162.00,107.62,1
141.00,112.01,1
187.00,116.86,1
127.00,122.01,1
121.00,126.53,1
60.00,129.32,1
54.00,129.58,1
47.00,127.27,1
48.00,122.91,1
82.00,117.38,1
95.00,111.83,1
121.00,107.16,1
68.00,103.42,1
43.00,99.64,1
64.00,95.26,1
175.00,91.64,1
165.00,90.67,1
38.00,91.42,1
74.00,91.56,1
78.00,90.83,1
126.00,90.21,1
73.00,90.08,1
76.00,89.88,1
48.00,89.01,1
58.00,87.31,1
42.00,84.82,1
45.00,81.67,1
201.00,79.32,1
156.00,79.89,1
142.00,83.15,1
36.00,86.81,1
44.00,88.85,1
82.00,89.17,1
110.00,89.08,1
70.00,89.15,1
68.00,88.88,1
108.00,88.33,1
99.00,88.16,1
126.00,88.69,1
52.00,89.49,1
56.00,89.50,1
62.00,88.42,1
82.00,86.83,1
65.00,85.15,1
42.00,83.16,1
98.00,80.93,1
147.00,79.74,1
64.00,79.98,1
185.00,81.32,1
83.00,83.93,1
146.00,87.25,1
42.00,90.34,1
79.00,92.25,1
41.00,92.64,1
247.00,93.24,1
99.00,95.90,1
86.00,99.14,1
55.00,101.02,1
90.00,101.45,1
59.00,100.85,1
124.00,99.80,1
51.00,98.66,1
70.00,96.97,1
127.00,95.11,1
143.00,94.43,1
44.00,94.57,1
71.00,94.05,1
165.00,93.44,1
43.00,93.57,1
52.00,93.07,1
112.00,91.76,1
73.00,90.62,1
72.00,89.47,1
39.00,87.76,1
39.00,85.11,1
59.00,81.72,1
74.00,78.36,1
40.00,75.25,1
162.00,73.02,1
114.00,72.85,1
124.00,74.59,1
134.00,77.55,1
118.00,81.44,1
121.00,85.77,1
73.00,89.81,1
133.00,93.21,1
225.00,97.39,1
117.00,103.15,1
100.00,108.74,1
103.00,112.86,1
51.00,115.20,1
168.00,116.26,1
62.00,116.93,1
44.00,116.34,1
37.00,113.59,1
200.00,110.36,1
45.00,108.26,1
181.00,106.97,1
136.00,106.94,1
55.00,107.59,1
132.00,107.65,1
231.00,108.68,1
44.00,111.15,1
165.00,113.36,1
48.00,114.78,1
136.00,115.34,1
52.00,115.02,1
78.00,113.60,1
118.00,111.45,1
57.00,109.19,1
103.00,106.64,1
189.00,104.91,1
64.00,104.63,1
102.00,104.43,1
142.00,104.20,1
340.00,106.59,1
50.00,112.12,1
109.00,117.15,1
48.00,119.71,1
84.00,120.07,1
137.00,119.28,1
42.00,118.05,1
53.00,115.45,1
93.00,111.65,1
133.00,108.14,1
50.00,105.28,1
216.00,103.34,1
116.00,103.40,1
183.00,105.25,1
142.00,108.36,1
163.00,112.35,1
60.00,116.03,1
38.00,117.65,1
49.00,116.52,1
205.00,114.61,1
47.00,113.57,1
65.00,112.03,1
182.00,110.12,1
54.00,109.03,1
127.00,108.04,1
79.00,106.92,1
97.00,105.68,1
195.00,105.12,1
104.00,106.09,1
68.00,107.21,1
69.00,107.06,1
51.00,105.53,1
105.00,103.15,1
68.00,100.64,1
90.00,98.14,1
54.00,95.50,1
118.00,92.93,1
52.00,90.74,1
92.00,88.67,1
139.00,87.28,1
65.00,86.93,1
67.00,86.57,1
63.00,85.59,1
38.00,83.92,1
186.00,82.57,1
58.00,82.69,1
219.00,84.37,1
211.00,88.71,1
152.00,95.64,1
60.00,102.50,1
135.00,107.68,1
130.00,111.86,1
134.00,115.72,1
109.00,119.01,1
52.00,120.91,1
178.00,121.59,1
64.00,121.98,1
236.00,122.73,1
48.00,124.08,1
143.00,124.93,1
104.00,125.07,1
67.00,124.49,1
202.00,123.57,1
98.00,123.49,1
68.00,123.20,1
70.00,121.38,1
51.00,118.12,1
104.00,113.99,1
216.00,111.02,1
47.00,109.92,1
118.00,108.99,1
116.00,107.98,1
82.00,107.21,1
84.00,106.09,1
123.00,104.81,1
160.00,104.42,1
57.00,104.82,1
102.00,104.76,1
132.00,104.50,1
62.00,104.39,1
196.00,104.59,1
57.00,105.51,1
142.00,106.46,1
187.00,108.03,1
72.00,110.51,1
144.00,112.67,1
239.00,115.54,1
67.00,119.59,1
103.00,122.64,1
65.00,123.69,1
50.00,122.73,1
39.00,119.59,1
86.00,115.03,1
36.00,109.80,1
52.00,103.93,1
108.00,98.08,1
187.00,94.17,1
122.00,93.07,1
142.00,93.92,1
197.00,96.44,1
129.00,100.68,1
52.00,104.76,1
69.00,106.90,1
168.00,107.94,1
100.00,109.33,1
130.00,110.90,1
100.00,112.23,1
159.00,113.57,1
199.00,115.94,1
48.00,118.91,1
175.00,121.12,1
211.00,123.85,1
82.00,127.43,1
36.00,129.34,1
113.00,128.71,1
60.00,126.62,1
61.00,123.28,1
96.00,118.94,1
59.00,114.29,1
55.00,109.21,1
109.00,104.03,1
184.00,100.45,1
68.00,98.91,1
78.00,97.76,1
98.00,96.30,1
36.00,94.57,1
45.00,91.91,1
43.00,88.23,1
150.00,84.84,1
80.00,82.95,1
49.00,81.74,1
165.00,80.96,1
146.00,82.03,1
38.00,84.24,1
122.00,85.98,1
129.00,87.86,1
110.00,90.44,1
100.00,93.12,1
330.00,97.39,1
134.00,104.81,1
64.00,112.45,1
35.00,116.99,1
88.00,118.38,1
226.00,119.14,1
35.00,120.53,1
148.00,121.27,1
66.00,121.10,1
109.00,120.19,1
66.00,118.41,1
88.00,115.85,1
83.00,112.76,1
128.00,109.84,1
182.00,108.29,1
200.00,109.28,1
103.00,112.08,1
127.00,114.91,1
65.00,116.74,1
113.00,117.32,1
36.00,116.59,1
159.00,115.02,1
214.00,114.73,1
130.00,116.66,1
111.00,119.11,1
86.00,120.64,1
797.00,126.78,1
61.00,141.63,1
32.00,156.11,1
35.00,163.31,1
86.00,164.92,1
140.00,163.53,1
85.00,160.81,1
83.00,156.68,1
133.00,151.52,1
60.00,145.97,1
54.00,139.46,1
69.00,131.86,1
208.00,125.03,1
99.00,120.54,1
48.00,116.89,1
121.00,112.86,1
77.00,109.10,1
179.00,106.39,1
88.00,105.14,1
94.00,104.42,1
65.00,103.25,1
77.00,101.42,1
139.00,99.64,1
78.00,98.57,1
68.00,97.49,1
123.00,96.24,1
127.00,95.74,1
385.00,98.51,1
38.00,105.16,1
186.00,112.08,1
42.00,117.38,1
170.00,121.17,1
42.00,123.53,1
42.00,123.68,1
89.00,121.47,1
105.00,118.46,1
49.00,115.13,1
75.00,111.09,1
39.00,106.29,1
71.00,100.98,1
72.00,95.69,1
49.00,90.68,1
38.00,85.59,1
104.00,80.78,1
52.00,76.93,1
123.00,74.19,1
90.00,72.87,1
127.00,73.03,1
68.00,74.15,1
203.00,76.40,1
64.00,80.07,1
76.00,83.58,1
70.00,85.85,1
219.00,88.32,1
172.00,92.93,1
138.00,99.16,1
131.00,105.41,1
380.00,113.13,1
69.00,123.21,1
128.00,132.13,1
55.00,137.66,1
85.00,139.98,1
234.00,140.90,1
38.00,141.83,1
387.00,143.61,1
103.00,147.79,1
107.00,151.87,1
149.00,153.81,1
75.00,154.16,1
95.00,152.55,1
151.00,149.71,1
239.00,147.86,1
58.00,147.26,1
41.00,145.19,1
114.00,140.91,1
118.00,136.20,1
77.00,131.64,1
171.00,127.48,1
222.00,125.41,1
36.00,125.08,1
583.00,127.98,1
166.00,137.30,1
286.00,149.82,1
325.00,163.15,1
58.00,176.10,1
440.00,187.41,1
88.00,198.28,1
142.00,206.25,1
242.00,210.55,1
306.00,214.55,1
91.00,218.32,1
143.00,219.15,1
213.00,217.41,1
195.00,215.22,1
308.00,213.97,1
149.00,213.89,1
546.00,216.30,1
403.00,224.57,1
394.00,237.95,1
286.00,252.48,1
475.00,267.07,1
105.00,280.43,1
294.00,289.39,1
114.00,293.30,1
95.00,291.69,1
64.00,283.80,1
116.00,271.19,1
207.00,256.79,1
127.00,242.77,1
64.00,228.44,1
276.00,214.38,1
56.00,202.16,1
60.00,189.89,1
38.00,176.03,1
282.00,163.13,1
138.00,154.06,1
128.00,147.75,1
56.00,141.79,1
113.00,135.48,1
102.00,129.37,1
58.00,123.55,1
128.00,117.89,1
76.00,112.92,1
136.00,108.84,1
205.00,106.74,1
75.00,106.73,1
206.00,107.84,1
70.00,109.75,1
86.00,111.13,1
36.00,110.80,1
144.00,109.37,1
297.00,109.82,1
47.00,113.04,1
86.00,115.69,1
557.00,120.31,1
98.00,130.60,1
44.00,140.70,1
171.00,146.67,1
136.00,150.66,1
110.00,153.27,1
35.00,153.43,1
70.00,150.55,1
183.00,146.34,1
172.00,143.33,1
232.00,142.57,1
43.00,142.90,1
84.00,141.71,1
41.00,138.22,1
304.00,134.87,1
222.00,135.11,1
240.00,139.00,1
81.00,143.84,1
134.00,147.18,1
42.00,148.07,1
41.00,145.96,1
61.00,141.01,1
164.00,135.27,1
156.00,130.94,1
59.00,127.75,1
134.00,124.47,1
185.00,122.10,1
169.00,121.82,1
549.00,126.45,1
62.00,136.76,1
98.00,146.45,1
66.00,151.58,1
83.00,153.05,1
256.00,153.14,1
140.00,154.23,1
60.00,154.89,1
72.00,153.01,1
121.00,149.19,1
168.00,145.33,1
131.00,142.46,1
229.00,141.03,1
163.00,141.49,1
43.00,142.11,1
136.00,141.04,1
166.00,139.54,1
76.00,138.28,1
65.00,135.93,1
76.00,131.94,1
66.00,126.88,1
54.00,121.00,1
94.00,114.72,1
52.00,108.59,1
99.00,102.79,1
112.00,97.98,1
60.00,94.25,1
240.00,92.20,1
333.00,94.85,1
103.00,102.05,1
118.00,109.59,1
136.00,115.62,1
135.00,120.72,1
64.00,124.48,1
81.00,126.07,1
69.00,125.52,1
131.00,123.84,1
88.00,121.94,1
48.00,119.37,1
179.00,116.47,1
98.00,114.59,1
48.00,112.86,1
83.00,110.11,1
88.00,106.86,1
98.00,103.81,1
98.00,101.22,1
72.00,98.93,1
121.00,96.92,1
185.00,96.32,1
65.00,97.29,1
99.00,98.23,1
307.00,100.41,1
74.00,105.28,1
161.00,110.58,1
173.00,115.66,1
86.00,120.60,1
95.00,124.00,1
133.00,125.85,1
96.00,126.87,1
112.00,127.07,1
81.00,126.32,1
37.00,124.14,1
41.00,119.99,1
64.00,114.38,1
39.00,108.06,1
39.00,101.18,1
42.00,93.91,1
118.00,87.28,1
201.00,83.29,1
99.00,82.65,1
82.00,83.41,1
127.00,84.46,1
57.00,85.70,1
66.00,86.35,1
332.00,88.31,1
44.00,93.30,1
68.00,98.04,1
40.00,100.22,1
55.00,100.24,1
306.00,100.71,1
38.00,103.62,1
74.00,106.17,1
141.00,107.30,1
488.00,111.64,1
40.00,120.83,1
191.00,130.09,1
40.00,136.64,1
50.00,139.75,1
44.00,139.03,1
142.00,136.20,1
170.00,133.66,1
295.00,133.73,1
105.00,136.53,1
103.00,139.18,1
43.00,139.51,1
184.00,138.22,1
66.00,136.60,1
149.00,134.70,1
56.00,132.26,1
340.00,131.03,1
53.00,132.28,1
72.00,133.15,1
117.00,131.96,1
68.00,129.80,1
81.00,126.62,1
125.00,122.94,1
42.00,119.16,1
37.00,114.38,1
184.00,109.43,1
262.00,107.59,1
127.00,109.55,1
123.00,112.70,1
98.00,115.27,1
53.00,116.48,1
155.00,116.51,1
82.00,116.36,1
52.00,115.46,1
134.00,113.60,1
43.00,111.43,1
112.00,108.83,1
70.00,106.05,1
57.00,102.98,1
39.00,99.07,1
100.00,94.78,1
134.00,91.46,1
75.00,89.59,1
158.00,88.88,1
50.00,89.04,1
196.00,89.99,1
123.00,92.40,1
58.00,95.31,1
63.00,96.86,1
81.00,97.01,1
36.00,96.07,1
72.00,94.02,1
124.00,91.86,1
53.00,90.27,1
73.00,88.57,1
42.00,86.34,1
145.00,84.29,1
160.00,84.03,1
90.00,85.65,1
273.00,89.11,1
267.00,96.30,1
100.00,106.10,1
44.00,114.27,1
250.00,120.30,1
55.00,125.87,1
58.00,129.39,1
107.00,130.07,1
72.00,129.11,1
122.00,127.19,1
119.00,125.12,1
336.00,125.17,1
221.00,129.45,1
198.00,136.50,1
181.00,143.95,1
60.00,149.98,1
105.00,152.95,1
36.00,152.65,1
51.00,149.23,1
192.00,144.43,1
129.00,140.67,1
182.00,138.39,1
66.00,136.71,1
95.00,134.28,1
61.00,130.59,1
140.00,126.42,1
130.00,122.97,1
220.00,121.43,1
122.00,121.97,1
101.00,123.02,1
94.00,123.19,1
127.00,122.69,1
84.00,121.82,1
71.00,120.14,1
61.00,117.26,1
166.00,114.15,1
311.00,113.87,1
140.00,117.59,1
364.00,124.44,1
94.00,133.53,1
298.00,143.04,1
140.00,152.40,1
45.00,159.60,1
77.00,162.36,1
68.00,161.30,1
79.00,157.57,1
258.00,153.51,1
162.00,151.62,1
158.00,151.29,1
217.00,151.80,1
84.00,152.75,1
137.00,152.73,1
45.00,150.97,1
124.00,147.53,1
76.00,143.08,1
219.00,139.06,1
56.00,136.12,1
65.00,132.66,1
80.00,127.82,1
198.00,123.42,1
190.00,121.49,1
54.00,121.25,1
213.00,121.29,1
204.00,122.96,1
101.00,126.13,1
49.00,128.13,1
127.00,128.10,1
73.00,126.94,1
66.00,124.63,1
167.00,121.84,1
164.00,120.36,1
95.00,120.14,1
121.00,119.93,1
42.00,118.94,1
53.00,116.37,1
38.00,112.10,1
49.00,106.60,1
133.00,101.12,1
210.00,97.96,1
184.00,98.44,1
59.00,100.82,1
165.00,103.16,1
101.00,105.57,1
112.00,107.88,1
44.00,109.11,1
285.00,110.44,1
166.00,114.29,1
223.00,120.42,1
388.00,129.40,1
119.00,141.21,1
81.00,151.36,1
50.00,156.80,1
99.00,158.01,1
122.00,156.73,1
78.00,154.04,1
323.00,151.87,1
206.00,152.94,1
307.00,157.34,1
216.00,164.06,1
83.00,170.54,1
67.00,173.52,1
228.00,173.72,1
173.00,173.88,1
98.00,173.81,1
57.00,171.51,1
186.00,167.35,1
121.00,163.20,1
114.00,159.13,1
80.00,154.31,1
146.00,149.01,1
35.00,143.42,1
66.00,136.75,1
102.00,129.37,1
151.00,122.97,1
61.00,117.88,1
172.00,113.79,1
96.00,111.06,1
100.00,109.15,1
97.00,107.34,1
63.00,105.36,1
54.00,102.66,1
46.00,98.99,1
90.00,94.89,1
47.00,90.89,1
56.00,86.81,1
127.00,83.21,1
109.00,81.19,1
189.00,81.40,1
114.00,83.83,1
48.00,86.76,1
144.00,89.04,1
105.00,91.47,1
157.00,94.52,1
185.00,98.72,1
199.00,104.66,1
108.00,111.44,1
66.00,116.88,1
153.00,120.38,1
38.00,122.46,1
102.00,122.72,1
64.00,121.37,1
45.00,118.60,1
85.00,114.55,1
127.00,110.50,1
67.00,107.12,1
49.00,103.58,1
105.00,99.69,1
300.00,98.07,1
127.00,100.49,1
51.00,104.02,1
111.00,106.06,1
60.00,106.85,1
91.00,106.57,1
52.00,105.25,1
78.00,103.02,1
38.00,99.95,1
191.00,97.16,1
86.00,96.02,1
133.00,96.08,1
62.00,96.38,1
96.00,96.34,1
59.00,95.70,1
313.00,96.42,1
160.00,100.79,1
219.00,107.82,1
90.00,115.31,1
84.00,121.18,1
108.00,124.65,1
57.00,126.11,1
70.00,125.45,1
90.00,123.18,1
38.00,119.76,1
240.00,116.55,1
185.00,116.09,1
40.00,117.27,1
52.00,116.90,1
133.00,115.03,1
40.00,112.77,1
110.00,109.98,1
58.00,106.86,1
55.00,103.28,1
46.00,98.91,1
77.00,94.18,1
65.00,89.65,1
240.00,86.95,1
127.00,87.62,1
62.00,89.83,1
78.00,91.26,1
72.00,91.72,1
142.00,92.05,1
132.00,93.29,1
52.00,94.94,1
148.00,96.22,1
54.00,97.34,1
220.00,98.90,1
173.00,102.36,1
115.00,107.23,1
180.00,112.21,1
49.00,116.61,1
87.00,119.10,1
38.00,119.23,1
51.00,117.13,1
80.00,113.45,1
124.00,109.67,1
116.00,106.84,1
82.00,104.79,1
97.00,102.88,1
52.00,100.73,1
79.00,98.08,1
47.00,94.94,1
307.00,93.38,1
163.00,95.97,1
127.00,101.05,1
40.00,105.35,1
157.00,108.14,1
164.00,110.96,1
181.00,114.95,1
286.00,120.90,1
223.00,129.53,1
62.00,138.36,1
82.00,144.04,1
38.00,145.74,1
60.00,143.99,1
65.00,139.74,1
53.00,133.87,1
151.00,127.63,1
208.00,123.33,1
202.00,122.37,1
55.00,123.11,1
39.00,122.49,1
150.00,120.29,1
222.00,119.27,1
88.00,120.20,1
150.00,121.48,1
95.00,122.42,1
50.00,122.31,1
72.00,120.38,1
35.00,116.80,1
37.00,111.68,1
49.00,105.40,1
46.00,98.61,1
184.00,92.88,1
90.00,89.64,1
157.00,88.54,1
127.00,89.17,1
54.00,90.55,1
206.00,92.25,1
136.00,95.48,1
94.00,99.51,1
221.00,103.80,1
122.00,109.07,1
56.00,113.77,1
69.00,116.07,1
73.00,116.16,1
43.00,114.52,1
192.00,112.37,1
128.00,111.62,1
205.00,112.76,1
96.00,115.17,1
69.00,117.05,1
141.00,117.71,1
88.00,117.94,1
34.00,117.11,1
46.00,114.29,1
65.00,109.94,1
194.00,106.05,1
232.00,105.27,1
207.00,108.41,1
274.00,114.81,1
200.00,123.77,1
142.00,133.23,1
66.00,140.55,1
132.00,144.81,1
167.00,147.37,1
172.00,149.71,1
384.00,153.94,1
102.00,160.69,1
44.00,165.72,1
49.00,166.04,1
39.00,162.26,1
60.00,155.52,1
217.00,148.37,1
124.00,143.15,1
73.00,138.90,1
81.00,133.95,1
91.00,128.45,1
49.00,122.61,1
157.00,116.97,1
185.00,113.35,1
38.00,111.52,1
60.00,109.09,1
70.00,105.51,1
211.00,102.70,1
114.00,102.21,1
148.00,103.31,1
155.00,105.41,1
59.00,107.80,1
105.00,109.17,1
140.00,109.99,1
130.00,111.23,1
108.00,112.71,1
44.00,113.32,1
116.00,112.62,1
50.00,111.04,1
107.00,108.84,1
96.00,106.55,1
183.00,105.27,1
122.00,105.66,1
127.00,107.05,1
69.00,108.24,1
128.00,108.82,1
98.00,109.16,1
46.00,108.85,1
97.00,107.40,1
37.00,105.03,1
40.00,101.49,1
81.00,97.07,1
99.00,92.99,1
197.00,90.75,1
43.00,90.47,1
98.00,90.42,1
65.00,89.91,1
101.00,89.26,1
56.00,88.49,1
182.00,88.24,1
43.00,88.96,1
102.00,89.63,1
183.00,90.73,1
214.00,94.20,1
214.00,100.59,1
74.00,108.05,1
276.00,115.43,1
234.00,124.36,1
136.00,134.30,1
38.00,141.91,1
120.00,145.72,1
143.00,147.29,1
44.00,147.34,1
63.00,144.94,1
129.00,140.76,1
143.00,136.76,1
144.00,133.82,1
56.00,131.19,1
52.00,127.40,1
44.00,122.00,1
120.00,115.99,1
150.00,111.17,1
161.00,108.63,1
37.00,107.33,1
54.00,105.18,1
158.00,102.57,1
80.00,100.92,1
66.00,99.51,1
135.00,98.01,1
168.00,97.80,1
160.00,99.65,1
125.00,102.84,1
89.00,105.98,1
88.00,108.10,1
204.00,110.00,1
96.00,112.71,1
128.00,115.37,1
71.00,117.08,1
64.00,117.28,1
56.00,115.65,1
43.00,112.39,1
70.00,107.96,1
120.00,103.52,1
56.00,99.75,1
120.00,96.50,1
146.00,94.49,1
49.00,93.66,1
117.00,92.92,1
63.00,92.15,1
53.00,90.97,1
153.00,89.72,1
75.00,89.40,1
66.00,89.26,1
92.00,88.66,1
153.00,88.61,1
104.00,89.79,1
38.00,91.02,1
127.00,91.49,1
78.00,91.87,1
70.00,92.04,1
163.00,92.28,1
93.00,93.45,1
180.00,95.62,1
217.00,99.66,1
102.00,105.34,1
106.00,110.54,1
66.00,113.96,1
74.00,115.36,1
35.00,114.66,1
197.00,113.14,1
47.00,112.18,1
66.00,110.69,1
86.00,108.07,1
63.00,104.99,1
78.00,101.58,1
44.00,97.81,1
71.00,93.65,1
127.00,89.98,1
74.00,87.52,1
127.00,86.09,1
65.00,85.40,1
119.00,85.16,1
248.00,86.73,1
66.00,90.70,1
153.00,95.12,1
38.00,98.73,1
63.00,100.62,1
144.00,101.28,1
159.00,102.65,1
129.00,105.19,1
76.00,107.72,1
49.00,108.80,1
52.00,107.86,1
70.00,105.41,1
135.00,102.77,1
113.00,101.12,1
39.00,99.83,1
82.00,97.80,1
110.00,95.61,1
106.00,94.15,1
71.00,93.18,1
47.00,91.79,1
218.00,90.87,1
74.00,91.77,1
52.00,92.88,1
132.00,93.22,1
127.00,94.06,1
42.00,95.12,1
159.00,95.85,1
189.00,97.77,1
118.00,101.43,1
75.00,104.99,1
117.00,107.41,1
205.00,109.94,1
144.00,113.80,1
129.00,118.11,1
126.00,121.84,1
36.00,124.08,1
112.00,124.25,1
103.00,123.27,1
72.00,121.68,1
162.00,119.82,1
72.00,118.32,1
85.00,116.49,1
39.00,113.59,1
66.00,109.51,1
42.00,104.54,1
36.00,98.83,1
80.00,92.82,1
96.00,87.60,1
103.00,83.83,1
123.00,81.73,1
102.00,81.16,1
87.00,81.46,1
139.00,82.44,1
158.00,84.78,1
107.00,88.40,1
66.00,91.85,1
184.00,94.93,1
68.00,98.29,1
66.00,100.78,1
68.00,101.55,1
65.00,100.97,1
149.00,100.06,1
215.00,100.84,1
36.00,103.19,1
58.00,104.40,1
198.00,104.76,1
115.00,106.28,1
72.00,108.06,1
40.00,108.30,1
108.00,107.05,1
74.00,105.28,1
38.00,102.88,1
65.00,99.43,1
151.00,96.16,1
51.00,93.95,1
52.00,91.69,1
52.00,88.64,1
52.00,85.10,1
82.00,81.56,1
63.00,78.49,1
87.00,76.00,1
107.00,74.43,1
108.00,74.17,1
186.00,75.75,1
40.00,78.75,1
35.00,80.91,1
68.00,81.33,1
199.00,82.02,1
58.00,84.18,1
80.00,86.31,1
266.00,89.08,1
64.00,93.83,1
166.00,98.98,1
61.00,103.40,1
72.00,106.31,1
44.00,107.04,1
117.00,106.35,1
158.00,105.91,1
103.00,106.52,1
47.00,106.85,1
51.00,105.62,1
59.00,102.91,1
39.00,99.16,1
151.00,95.42,1
87.00,92.96,1
130.00,91.78,1
77.00,91.37,1
96.00,91.17,1
291.00,92.65,1
136.00,97.44,1
39.00,102.84,1
198.00,106.94,1
105.00,111.00,1
149.00,115.01,1
59.00,118.08,1
37.00,119.01,1
123.00,117.89,1
45.00,115.85,1
231.00,114.14,1
108.00,114.15,1
54.00,114.53,1
78.00,113.46,1
169.00,112.03,1
133.00,111.78,1
37.00,111.80,1
154.00,111.10,1
98.00,110.56,1
106.00,110.26,1
73.00,109.55,1
122.00,108.48,1
150.00,107.95,1
40.00,107.79,1
112.00,106.94,1
89.00,105.66,1
127.00,104.65,1
111.00,104.18,1
70.00,103.84,1
127.00,103.27,1
106.00,102.98,1
194.00,103.75,1
118.00,106.00,1
149.00,108.99,1
105.00,111.97,1
53.00,113.94,1
75.00,114.01,1
109.00,112.87,1
102.00,111.54,1
181.00,110.94,1
97.00,111.45,1
93.00,112.02,1
159.00,112.40,1
102.00,113.22,1
90.00,113.84,1
144.00,114.07,1
69.00,114.16,1
79.00,113.44,1
52.00,111.44,1
72.00,108.34,1
72.00,104.61,1
223.00,101.95,1
68.00,101.44,1
56.00,101.12,1
45.00,99.40,1
133.00,97.09,1
73.00,95.31,1
106.00,93.98,1
257.00,94.38,1
244.00,98.73,1
62.00,105.45,1
71.00,110.69,1
140.00,113.85,1
188.00,116.95,1
202.00,121.39,1
123.00,126.67,1
143.00,131.38,1
80.00,134.65,1
71.00,135.77,1
92.00,134.72,1
48.00,131.97,1
95.00,127.83,1
101.00,123.25,1
88.00,118.89,1
95.00,114.71,1
62.00,110.55,1
41.00,105.88,1
47.00,100.39,1
45.00,94.38,1
156.00,89.11,1
76.00,85.75,1
42.00,83.27,1
55.00,80.40,1
181.00,78.31,1
38.00,77.89,1
148.00,78.34,1
66.00,79.40,1
204.00,81.59,1
114.00,85.42,1
100.00,89.92,1
58.00,93.44,1
117.00,95.76,1
49.00,97.19,1
41.00,97.14,1
169.00,96.38,1
67.00,96.30,1
228.00,97.46,1
56.00,99.91,1
173.00,102.70,1
42.00,105.10,1
55.00,106.02,1
63.00,104.98,1
133.00,103.32,1
50.00,101.76,1
99.00,99.96,1
135.00,98.45,1
80.00,97.77,1
76.00,97.09,1
90.00,96.02,1
38.00,94.45,1
177.00,92.97,1
110.00,92.93,1
56.00,93.57,1
53.00,93.24,1
84.00,91.92,1
35.00,90.00,1
114.00,87.78,1
134.00,86.47,1
73.00,86.37,1
70.00,86.34,1
184.00,86.74,1
277.00,90.11,1
330.00,98.55,1
60.00,109.98,1
98.00,119.55,1
137.00,126.11,1
97.00,130.79,1
95.00,133.54,1
256.00,135.70,1
68.00,138.43,1
74.00,139.78,1
71.00,138.51,1
56.00,135.20,1
106.00,130.60,1
151.00,126.24,1
65.00,122.66,1
128.00,119.27,1
66.00,115.94,1
64.00,112.26,1
106.00,108.23,1
102.00,104.71,1
89.00,101.88,1
90.00,99.41,1
129.00,97.54,1
146.00,96.98,1
109.00,97.74,1
97.00,98.90,1
84.00,99.71,1
96.00,100.01,1
62.00,99.72,1
166.00,99.39,1
39.00,99.44,1
112.00,99.13,1
89.00,98.52,1
138.00,98.35,1
52.00,98.41,1
59.00,97.68,1
85.00,96.00,1
69.00,94.00,1
152.00,92.48,1
89.00,92.10,1
48.00,91.88,1
55.00,90.66,1
114.00,88.98,1
53.00,87.54,1
69.00,85.93,1
38.00,83.75,1
117.00,81.49,1
114.00,80.27,1
96.00,80.33,1
277.00,82.53,1
43.00,87.23,1
127.00,91.96,1
159.00,96.28,1
156.00,101.35,1
119.00,106.73,1
56.00,111.01,1
51.00,112.91,1
116.00,112.89,1
40.00,111.80,1
78.00,109.56,1
102.00,106.69,1
55.00,103.76,1
41.00,100.18,1
51.00,95.69,1
60.00,90.79,1
60.00,85.96,1
102.00,81.78,1
118.00,79.06,1
188.00,78.73,1
79.00,80.64,1
190.00,83.85,1
121.00,88.34,1
62.00,92.91,1
174.00,96.78,1
58.00,100.39,1
86.00,102.91,1
110.00,104.23,1
96.00,105.10,1
282.00,107.13,1
68.00,111.16,1
202.00,115.68,1
100.00,120.02,1
120.00,123.66,1
155.00,126.43,1
79.00,128.55,1
175.00,129.96,1
118.00,131.25,1
38.00,131.59,1
44.00,129.45,1
75.00,125.20,1
138.00,120.56,1
86.00,116.66,1
53.00,112.83,1
40.00,108.11,1
78.00,102.68,1
174.00,98.21,1
144.00,96.30,1
167.00,96.86,1
43.00,98.40,1
57.00,98.86,1
142.00,98.41,1
214.00,99.40,1
147.00,102.80,1
169.00,107.60,1
134.00,112.81,1
81.00,117.32,1
148.00,120.54,1
68.00,122.67,1
143.00,123.76,1
292.00,125.85,1
107.00,130.18,1
87.00,134.07,1
145.00,136.11,1
64.00,136.79,1
106.00,135.91,1
50.00,133.41,1
67.00,129.37,1
46.00,123.91,1
63.00,117.49,1
112.00,111.08,1
74.00,105.52,1
41.00,100.29,1
48.00,94.67,1
101.00,89.24,1
91.00,84.98,1
109.00,82.18,1
127.00,80.95,1
78.00,80.98,1
235.00,82.65,1
83.00,86.41,1
46.00,90.10,1
195.00,92.98,1
52.00,96.13,1
95.00,98.60,1
92.00,99.96,1
152.00,101.26,1
162.00,103.51,1
58.00,106.22,1
190.00,108.64,1
53.00,110.95,1
55.00,111.92,1
96.00,111.10,1
87.00,109.56,1
73.00,107.60,1
205.00,106.18,1
43.00,105.93,1
65.00,105.19,1
62.00,103.06,1
124.00,100.63,1
177.00,99.47,1
68.00,99.84,1
113.00,100.34,1
104.00,100.69,1
53.00,100.71,1
65.00,99.66,1
38.00,97.39,1
115.00,94.54,1
152.00,92.72,1
221.00,93.57,1
182.00,97.55,1
167.00,103.59,1
145.00,110.23,1
62.00,115.92,1
92.00,119.38,1
175.00,121.55,1
153.00,124.10,1
196.00,127.55,1
45.00,130.83,1
127.00,132.42,1
106.00,132.57,1
106.00,131.98,1
48.00,130.19,1
54.00,126.62,1
70.00,121.58,1
73.00,115.94,1
36.00,109.90,1
52.00,103.31,1
100.00,96.87,1
39.00,91.18,1
61.00,85.81,1
98.00,81.04,1
81.00,77.52,1
206.00,76.16,1
177.00,78.16,1
194.00,83.36,1
100.00,90.08,1
160.00,96.78,1
86.00,102.86,1
132.00,107.92,1
65.00,111.61,1
212.00,114.65,1
69.00,117.78,1
166.00,120.54,1
252.00,124.05,1
99.00,128.98,1
40.00,132.50,1
85.00,132.97,1
199.00,132.31,1
67.00,131.98,1
62.00,130.62,1
40.00,127.19,1
115.00,122.51,1
108.00,118.03,1
57.00,113.92,1
183.00,110.38,1
52.00,107.98,1
141.00,106.12,1
188.00,105.52,1
37.00,106.17,1
76.00,105.94,1
221.00,105.66,1
100.00,107.07,1
72.00,108.68,1
147.00,109.54,1
88.00,110.33,1
101.00,110.78,1
116.00,110.82,1
184.00,111.46,1
208.00,114.00,1
209.00,118.87,1
150.00,125.05,1
223.00,131.69,1
94.00,138.08,1
46.00,142.14,1
82.00,142.74,1
72.00,140.79,1
76.00,137.15,1
132.00,132.79,1
127.00,128.95,1
56.00,125.41,1
56.00,121.01,1
120.00,116.04,1
69.00,111.44,1
203.00,108.07,1
52.00,106.31,1
73.00,104.59,1
44.00,101.81,1
103.00,98.51,1
100.00,95.64,1
131.00,93.88,1
102.00,93.28,1
164.00,93.88,1
103.00,95.64,1
63.00,97.40,1
71.00,97.99,1
39.00,97.20,1
101.00,95.45,1
59.00,93.44,1
72.00,91.23,1
51.00,88.64,1
36.00,85.46,1
96.00,82.02,1
40.00,78.91,1
123.00,76.41,1
45.00,74.73,1
41.00,73.07,1
43.00,70.79,1
64.00,68.29,1
77.00,66.19,1
37.00,64.51,1
104.00,63.21,1
57.00,62.64,1
114.00,62.88,1
90.00,64.10,1
52.00,65.76,1
138.00,67.59,1
88.00,70.20,1
172.00,73.88,1
86.00,78.51,1
75.00,82.91,1
239.00,87.44,1
40.00,92.89,1
154.00,97.88,1
73.00,101.91,1
90.00,104.82,1
149.00,106.89,1
68.00,108.69,1
328.00,111.55,1
49.00,116.47,1
46.00,120.26,1
41.00,120.69,1
42.00,118.42,1
43.00,114.17,1
71.00,108.79,1
71.00,103.22,1
44.00,97.69,1
64.00,92.10,1
199.00,87.87,1
96.00,86.41,1
193.00,87.27,1
114.00,89.95,1
72.00,93.10,1
67.00,95.09,1
53.00,95.59,1
128.00,95.31,1
152.00,95.76,1
157.00,97.80,1
76.00,100.61,1
188.00,103.52,1
82.00,106.73,1
118.00,109.53,1
80.00,111.32,1
196.00,112.91,1
95.00,115.08,1
205.00,117.82,1
120.00,121.17,1
114.00,124.33,1
83.00,126.19,1
63.00,126.26,1
37.00,124.19,1
53.00,120.07,1
39.00,114.46,1
60.00,107.98,1
49.00,101.21,1
138.00,95.17,1
67.00,90.67,1
68.00,87.06,1
48.00,83.51,1
78.00,80.05,1
173.00,77.90,1
71.00,77.77,1
222.00,79.55,1
97.00,83.33,1
89.00,87.63,1
115.00,91.22,1
96.00,94.37,1
192.00,97.76,1
136.00,102.22,1
80.00,106.73,1
176.00,110.53,1
204.00,115.04,1
149.00,120.73,1
128.00,126.27,1
48.00,130.04,1
68.00,131.01,1
144.00,130.13,1
110.00,129.00,1
66.00,127.43,1
119.00,125.00,1
42.00,121.88,1
85.00,117.85,1
59.00,113.12,1
43.00,107.82,1
76.00,102.04,1
77.00,96.53,1
116.00,92.00,1
64.00,88.60,1
113.00,86.05,1
123.00,84.67,1
95.00,84.58,1
136.00,85.45,1
204.00,88.01,1
143.00,92.74,1
104.00,98.20,1
95.00,102.79,1
37.00,105.61,1
102.00,106.50,1
84.00,106.33,1
112.00,105.85,1
140.00,105.69,1
169.00,106.71,1
115.00,108.87,1
56.00,110.66,1
99.00,111.06,1
124.00,110.82,1
98.00,110.65,1
78.00,110.14,1
56.00,108.68,1
104.00,106.41,1
53.00,103.78,1
180.00,101.57,1
99.00,100.76,1
91.00,100.70,1
89.00,100.37,1
66.00,99.58,1
94.00,98.28,1
124.00,97.17,1
108.00,96.83,1
66.00,96.72,1
246.00,97.47,1
118.00,100.42,1
127.00,104.37,1
128.00,108.06,1
99.00,111.27,1
180.00,114.22,1
121.00,117.47,1
84.00,120.25,1
86.00,121.47,1
73.00,121.09,1
58.00,119.18,1
63.00,115.85,1
121.00,112.02,1
67.00,108.47,1
89.00,105.03,1
63.00,101.49,1
110.00,98.13,1
49.00,95.08,1
66.00,91.88,1
43.00,88.26,1
84.00,84.53,1
88.00,81.38,1
84.00,79.13,1
64.00,77.45,1
59.00,75.86,1
147.00,74.86,1
136.00,75.69,1
107.00,78.18,1
38.00,80.70,1
173.00,82.88,1
88.00,85.71,1
236.00,89.87,1
83.00,95.41,1
81.00,100.47,1
97.00,103.80,1
151.00,106.42,1
77.00,108.83,1
81.00,110.24,1
43.00,109.98,1
67.00,108.07,1
88.00,105.22,1
39.00,101.90,1
38.00,97.68,1
60.00,92.69,1
159.00,88.45,1
44.00,85.80,1
42.00,83.33,1
97.00,80.56,1
46.00,78.12,1
86.00,75.95,1
63.00,74.12,1
68.00,72.59,1
112.00,71.60,1
148.00,72.13,1
195.00,75.16,1
147.00,80.67,1
147.00,87.47,1
155.00,94.68,1
126.00,101.84,1
139.00,108.44,1
179.00,114.69,1
109.00,120.66,1
116.00,125.45,1
40.00,128.08,1
95.00,128.25,1
62.00,126.54,1
42.00,123.21,1
38.00,118.12,1
117.00,112.27,1
53.00,106.79,1
141.00,102.11,1
59.00,98.44,1
80.00,95.20,1
71.00,91.98,1
36.00,88.62,1
61.00,84.82,1
143.00,81.62,1
123.00,80.38,1
99.00,80.84,1
55.00,81.63,1
140.00,82.41,1
115.00,84.01,1
100.00,86.33,1
76.00,88.47,1
89.00,89.99,1
91.00,91.02,1
72.00,91.63,1
116.00,91.96,1
114.00,92.62,1
206.00,94.61,1
76.00,98.00,1
139.00,101.44,1
83.00,104.31,1
42.00,105.92,1
80.00,105.68,1
141.00,104.83,1
97.00,104.52,1
83.00,104.29,1
148.00,104.06,1
36.00,103.88,1
82.00,102.78,1
121.00,101.20,1
49.00,99.74,1
78.00,97.78,1
113.00,95.69,1
79.00,94.10,1
127.00,93.07,1
70.00,92.55,1
147.00,92.51,1
96.00,93.23,1
198.00,95.15,1
108.00,98.44,1
206.00,102.81,1
107.00,107.93,1
43.00,112.08,1
127.00,114.17,1
183.00,115.95,1
75.00,118.17,1
110.00,119.61,1
67.00,119.73,1
72.00,118.48,1
172.00,116.77,1
62.00,115.57,1
66.00,113.82,1
49.00,110.73,1
53.00,106.51,1
66.00,101.60,1
36.00,96.34,1
120.00,91.29,1
163.00,88.06,1
142.00,87.58,1
119.00,89.01,1
101.00,91.12,1
42.00,92.71,1
117.00,93.35,1
93.00,93.80,1
35.00,93.83,1
238.00,94.07,1
187.00,96.90,1
166.00,102.32,1
66.00,107.89,1
85.00,111.71,1
194.00,114.48,1
204.00,118.39,1
39.00,122.75,1
60.00,124.82,1
86.00,124.26,1
38.00,121.95,1
130.00,118.58,1
81.00,115.22,1
59.00,111.76,1
88.00,107.80,1
41.00,103.51,1
65.00,98.76,1
84.00,94.00,1
64.00,89.72,1
84.00,85.95,1
132.00,83.26,1
39.00,81.66,1
89.00,80.22,1
117.00,79.23,1
53.00,78.97,1
126.00,79.04,1
127.00,80.06,1
156.00,82.63,1
75.00,86.10,1
173.00,89.86,1
39.00,93.55,1
182.00,96.84,1
42.00,99.81,1
118.00,101.95,1
44.00,102.86,1
66.00,102.40,1
44.00,100.48,1
118.00,97.96,1
126.00,96.16,1
102.00,95.51,1
83.00,95.28,1
70.00,94.75,1
43.00,93.41,1
58.00,91.06,1
41.00,87.92,1
76.00,84.41,1
130.00,81.63,1
47.00,79.98,1
47.00,78.33,1
154.00,76.92,1
52.00,76.68,1
186.00,77.63,1
70.00,79.88,1
70.00,82.23,1
52.00,83.44,1
78.00,83.68,1
128.00,83.88,1
37.00,84.32,1
173.00,84.98,1
111.00,86.75,1
116.00,89.47,1
131.00,92.49,1
94.00,95.63,1
36.00,97.78,1
48.00,97.95,1
90.00,96.66,1
69.00,94.93,1
79.00,93.01,1
47.00,90.75,1
77.00,88.09,1
37.00,85.12,1
91.00,82.05,1
60.00,79.31,1
102.00,77.20,1
55.00,75.69,1
87.00,74.50,1
126.00,74.08,1
133.00,75.22,1
44.00,77.20,1
141.00,79.14,1
35.00,80.98,1
130.00,82.53,1
48.00,83.80,1
51.00,84.29,1
189.00,84.67,1
102.00,86.55,1
110.00,89.28,1
44.00,91.42,1
41.00,92.00,1
149.00,91.67,1
158.00,92.50,1
145.00,95.13,1
88.00,98.41,1
44.00,100.66,1
60.00,101.00,1
60.00,99.77,1
50.00,97.44,1
36.00,94.06,1
66.00,89.93,1
70.00,85.79,1
127.00,82.56,1
84.00,80.74,1
40.00,79.47,1
142.00,78.40,1
110.00,78.58,1
106.00,79.99,1
56.00,81.55,1
92.00,82.60,1
74.00,83.27,1
57.00,83.47,1
48.00,82.81,1
109.00,81.73,1
100.00,81.24,1
104.00,81.59,1
133.00,82.81,1
72.00,84.65,1
44.00,85.90,1
135.00,86.45,1
147.00,87.82,1
118.00,90.50,1
187.00,94.25,1
138.00,99.20,1
41.00,103.85,1
66.00,106.32,1
40.00,106.44,1
121.00,105.21,1
140.00,104.29,1
84.00,104.16,1
72.00,103.75,1
45.00,102.26,1
74.00,99.68,1
69.00,96.59,1
38.00,93.10,1
36.00,88.87,1
61.00,84.13,1
96.00,79.84,1
84.00,76.73,1
139.00,75.17,1
200.00,76.16,1
67.00,79.42,1
103.00,82.88,1
234.00,86.98,1
62.00,92.46,1
135.00,97.64,1
242.00,103.10,1
135.00,110.08,1
45.00,116.36,1
123.00,120.14,1
141.00,122.61,1
75.00,124.39,1
63.00,124.54,1
41.00,122.53,1
47.00,118.53,1
110.00,113.60,1
82.00,108.98,1
227.00,106.01,1
41.00,105.04,1
72.00,103.97,1
199.00,102.90,1
116.00,103.53,1
40.00,104.48,1
56.00,103.84,1
40.00,101.49,1
127.00,98.51,1
40.00,95.75,1
60.00,92.69,1
110.00,89.53,1
43.00,86.83,1
65.00,84.07,1
66.00,81.16,1
198.00,79.54,1
166.00,80.89,1
146.00,84.82,1
109.00,89.70,1
100.00,94.28,1
50.00,97.62,1
58.00,99.02,1
43.00,98.53,1
76.00,96.72,1
43.00,94.10,1
140.00,91.49,1
74.00,89.77,1
94.00,88.65,1
48.00,87.43,1
110.00,86.09,1
111.00,85.37,1
39.00,85.07,1
48.00,83.98,1
77.00,82.12,1
72.00,80.26,1
91.00,78.77,1
90.00,77.88,1
43.00,77.23,1
90.00,76.38,1
94.00,75.82,1
62.00,75.71,1
68.00,75.48,1
186.00,75.99,1
58.00,77.99,1
105.00,80.29,1
85.00,82.31,1
121.00,84.39,1
120.00,86.88,1
38.00,89.20,1
148.00,90.86,1
156.00,93.16,1
83.00,96.33,1
171.00,99.63,1
89.00,103.10,1
96.00,106.00,1
58.00,107.50,1
100.00,107.65,1
58.00,106.82,1
112.00,105.37,1
45.00,103.48,1
53.00,100.73,1
94.00,97.34,1
90.00,94.27,1
87.00,91.80,1
100.00,89.91,1
126.00,88.91,1
56.00,88.59,1
75.00,88.01,1
136.00,87.48,1
48.00,87.45,1
129.00,87.53,1
175.00,88.68,1
53.00,91.03,1
117.00,93.09,1
66.00,94.49,1
48.00,94.89,1
47.00,93.79,1
79.00,91.67,1
133.00,89.82,1
117.00,89.27,1
76.00,89.56,1
83.00,89.73,1
57.00,89.36,1
82.00,88.44,1
82.00,87.31,1
65.00,86.14,1
196.00,85.78,1
38.00,86.78,1
116.00,87.87,1
62.00,88.55,1
92.00,88.87,1
182.00,89.72,1
95.00,91.95,1
103.00,94.53,1
44.00,96.23,1
123.00,96.93,1
85.00,97.36,1
116.00,97.84,1
145.00,98.80,1
127.00,100.66,1
35.00,102.34,1
69.00,102.42,1
226.00,102.40,1
114.00,104.27,1
41.00,106.33,1
46.00,106.38,1
50.00,104.38,1
136.00,101.74,1
84.00,99.72,1
138.00,98.55,1
94.00,98.15,1
138.00,98.44,1
165.00,99.84,1
64.00,101.99,1
56.00,103.14,1
46.00,102.43,1
54.00,100.17,1
55.00,96.86,1
40.00,92.82,1
116.00,88.76,1
118.00,85.96,1
159.00,85.22,1
274.00,87.69,1
128.00,93.58,1
40.00,99.67,1
93.00,103.48,1
84.00,105.50,1
85.00,106.41,1
184.00,107.20,1
110.00,108.92,1
61.00,110.47,1
79.00,110.57,1
60.00,109.27,1
44.00,106.67,1
79.00,103.04,1
40.00,98.88,1
40.00,94.08,1
61.00,88.82,1
49.00,83.62,1
138.00,79.37,1
62.00,76.72,1
118.00,75.31,1
92.00,74.99,1
79.00,75.42,1
79.00,75.96,1
153.00,77.10,1
139.00,79.76,1
43.00,83.06,1
54.00,85.13,1
167.00,86.51,1
80.00,88.58,1
169.00,91.32,1
66.00,94.40,1
186.00,97.64,1
48.00,100.89,1
112.00,103.27,1
235.00,105.86,1
174.00,110.59,1
69.00,115.93,1
124.00,119.76,1
37.00,121.64,1
82.00,121.36,1
52.00,119.22,1
77.00,115.82,1
111.00,112.04,1
70.00,108.50,1
49.00,104.70,1
49.00,100.14,1
120.00,95.55,1
134.00,92.40,1
48.00,90.57,1
64.00,88.61,1
104.00,86.50,1
56.00,84.76,1
206.00,84.12,1
99.00,85.56,1
98.00,87.99,1
128.00,90.42,1
75.00,92.83,1
192.00,95.47,1
86.00,98.82,1
151.00,102.36,1
56.00,105.33,1
60.00,106.77,1
47.00,106.15,1
66.00,103.97,1
130.00,101.44,1
97.00,99.66,1
64.00,98.22,1
44.00,96.10,1
180.00,94.06,1
63.00,93.25,1
50.00,92.50,1
230.00,92.12,1
116.00,93.96,1
64.00,96.60,1
51.00,97.84,1
59.00,97.39,1
38.00,95.55,1
46.00,92.48,1
124.00,89.18,1
144.00,87.36,1
78.00,87.13,1
43.00,86.91,1
78.00,85.86,1
66.00,84.42,1
179.00,83.76,1
111.00,84.91,1
85.00,87.00,1
144.00,89.23,1
121.00,92.06,1
151.00,95.61,1
75.00,99.27,1
87.00,101.97,1
98.00,103.52,1
87.00,104.33,1
71.00,104.32,1
106.00,103.62,1
51.00,102.43,1
38.00,100.14,1
46.00,96.52,1
120.00,92.64,1
44.00,89.36,1
37.00,85.94,1
90.00,82.21,1
96.00,79.25,1
214.00,78.49,1
40.00,79.98,1
116.00,81.87,1
75.00,83.46,1
109.00,85.02,1
58.00,86.29,1
107.00,87.14,1
90.00,87.91,1
82.00,88.63,1
52.00,88.78,1
93.00,88.25,1
74.00,87.52,1
64.00,86.58,1
113.00,85.61,1
78.00,85.08,1
79.00,84.75,1
147.00,84.86,1
96.00,86.02,1
71.00,87.46,1
112.00,88.55,1
38.00,89.20,1
92.00,89.05,1
68.00,88.38,1
39.00,87.17,1
102.00,85.40,1
151.00,84.49,1
142.00,85.53,1
87.00,87.82,1
42.00,89.62,1
102.00,90.27,1
71.00,90.41,1
144.00,90.72,1
131.00,92.02,1
67.00,93.87,1
36.00,94.66,1
33.00,93.54,1
202.00,92.11,1
114.00,92.53,1
50.00,93.76,1
67.00,93.92,1
79.00,93.12,1
157.00,92.59,1
68.00,92.94,1
196.00,94.18,1
42.00,96.16,1
54.00,97.24,1
111.00,97.00,1
67.00,96.44,1
324.00,97.53,1
76.00,101.69,1
120.00,106.43,1
170.00,110.53,1
90.00,114.54,1
40.00,117.01,1
84.00,117.09,1
104.00,115.86,1
76.00,114.12,1
66.00,111.68,1
49.00,108.25,1
130.00,104.48,1
115.00,101.67,1
49.00,99.55,1
171.00,97.83,1
204.00,98.21,1
102.00,100.90,1
108.00,103.88,1
145.00,106.53,1
99.00,109.13,1
107.00,111.22,1
38.00,112.02,1
60.00,110.93,1
99.00,108.54,1
88.00,105.99,1
97.00,103.63,1
42.00,101.08,1
65.00,97.82,1
56.00,94.00,1
82.00,90.12,1
52.00,86.44,1
74.00,82.93,1
64.00,79.71,1
123.00,77.31,1
123.00,76.52,1
44.00,76.81,1
102.00,77.08,1
102.00,77.62,1
132.00,79.10,1
78.00,81.29,1
127.00,83.70,1
65.00,86.04,1
201.00,88.77,1
94.00,92.54,1
118.00,96.55,1
66.00,99.67,1
138.00,101.95,1
48.00,103.54,1
142.00,104.43,1
91.00,105.15,1
54.00,105.35,1
76.00,104.29,1
48.00,102.11,1
47.00,98.89,1
58.00,94.84,1
58.00,90.44,1
54.00,85.99,1
43.00,81.50,1
51.00,76.97,1
38.00,72.48,1
110.00,68.64,1
78.00,66.23,1
76.00,65.05,1
86.00,64.62,1
44.00,64.57,1
76.00,64.46,1
39.00,64.19,1
90.00,63.88,1
88.00,64.07,1
90.00,65.04,1
114.00,66.79,1
96.00,69.34,1
106.00,72.40,1
208.00,76.60,1
57.00,82.05,1
74.00,86.75,1
83.00,89.84,1
84.00,91.88,1
86.00,93.18,1
88.00,93.92,1
65.00,94.09,1
39.00,93.20,1
78.00,91.28,1
46.00,88.79,1
62.00,85.87,1
44.00,82.57,1
61.00,79.08,1
78.00,75.82,1
88.00,73.36,1
88.00,71.90,1
129.00,71.65,1
70.00,72.56,1
94.00,73.86,1
105.00,75.40,1
102.00,77.45,1
138.00,80.13,1
62.00,83.16,1
39.00,85.20,1
163.00,86.44,1
84.00,88.23,1
106.00,90.30,1
86.00,92.05,1
97.00,93.43,1
92.00,94.46,1
70.00,95.02,1
132.00,95.31,1
43.00,95.50,1
53.00,94.71,1
38.00,92.52,1
100.00,89.69,1
36.00,86.83,1
69.00,83.78,1
73.00,80.73,1
36.00,77.82,1
58.00,74.71,1
45.00,71.51,1
42.00,68.27,1
85.00,65.32,1
123.00,63.69,1
99.00,63.93,1
102.00,65.49,1
91.00,67.77,1
66.00,70.16,1
205.00,73.20,1
118.00,78.01,1
93.00,83.50,1
78.00,88.06,1
42.00,91.02,1
156.00,92.89,1
70.00,94.75,1
82.00,96.15,1
126.00,97.01,1
59.00,97.71,1
127.00,98.07,1
78.00,98.34,1
38.00,97.94,1
36.00,95.95,1
75.00,92.80,1
155.00,90.16,1
66.00,88.91,1
120.00,88.40,1
45.00,87.98,1
271.00,88.74,1
36.00,91.54,1
62.00,94.00,1
56.00,94.54,1
52.00,93.69,1
60.00,91.77,1
98.00,89.51,1
71.00,87.53,1
116.00,86.08,1
114.00,85.59,1
147.00,86.44,1
108.00,88.51,1
152.00,91.42,1
119.00,95.01,1
179.00,99.32,1
139.00,104.40,1
86.00,109.30,1
90.00,112.72,1
41.00,114.13,1
99.00,113.65,1
58.00,111.97,1
105.00,109.63,1
47.00,106.83,1
70.00,103.38,1
110.00,99.79,1
136.00,97.29,1
65.00,95.87,1
68.00,94.39,1
87.00,92.52,1
143.00,91.23,1
98.00,91.14,1
203.00,92.54,1
144.00,95.93,1
76.00,100.02,1
205.00,103.97,1
58.00,108.04,1
113.00,111.15,1
207.00,113.89,1
92.00,117.34,1
192.00,120.91,1
109.00,124.45,1
41.00,126.75,1
210.00,127.63,1
94.00,128.67,1
155.00,129.78,1
151.00,130.92,1
61.00,131.74,1
49.00,130.64,1
91.00,127.55,1
226.00,124.76,1
52.00,123.45,1
79.00,121.75,1
60.00,118.67,1
46.00,114.42,1
206.00,110.36,1
253.00,109.50,1
36.00,111.40,1
68.00,112.40,1
75.00,111.49,1
202.00,110.59,1
40.00,110.55,1
56.00,109.65,1
76.00,107.20,1
49.00,103.90,1
474.00,103.33,1
92.00,108.54,1
128.00,115.48,1
74.00,120.41,1
107.00,123.32,1
116.00,124.79,1
186.00,126.11,1
53.00,127.43,1
485.00,130.63,1
72.00,137.79,1
67.00,144.42,1
202.00,148.02,1
154.00,151.03,1
127.00,153.59,1
72.00,154.41,1
164.00,153.51,1
99.00,151.87,1
252.00,150.68,1
40.00,150.11,1
108.00,148.34,1
53.00,144.64,1
51.00,139.21,1
127.00,132.80,1
198.00,127.69,1
155.00,125.22,1
390.00,126.63,1
157.00,132.56,1
109.00,139.41,1
288.00,145.49,1
81.00,151.63,1
51.00,155.43,1
150.00,155.92,1
103.00,154.89,1
54.00,152.36,1
162.00,148.48,1
158.00,145.05,1
376.00,144.71,1
71.00,147.80,1
59.00,150.04,1
81.00,149.02,1
75.00,145.74,1
154.00,141.62,1
60.00,137.46,1
98.00,132.83,1
132.00,128.12,1
90.00,124.05,1
131.00,120.51,1
229.00,118.66,1
202.00,119.87,1
42.00,122.41,1
100.00,123.47,1
108.00,123.08,1
215.00,123.11,1
152.00,124.78,1
216.00,127.99,1
66.00,131.58,1
138.00,133.96,1
244.00,136.18,1
50.00,138.95,1
265.00,141.50,1
53.00,143.99,1
368.00,147.22,1
174.00,152.78,1
57.00,158.35,1
208.00,161.44,1
85.00,163.06,1
48.00,162.39,1
71.00,158.56,1
308.00,154.52,1
144.00,153.25,1
168.00,153.54,1
288.00,155.05,1
133.00,158.36,1
173.00,161.65,1
78.00,163.40,1
89.00,162.75,1
70.00,159.54,1
88.00,154.43,1
395.00,150.75,1
77.00,150.89,1
159.00,151.85,1
91.00,151.58,1
179.00,150.65,1
314.00,151.28,1
103.00,154.31,1
373.00,158.90,1
120.00,165.16,1
160.00,170.85,1
41.00,173.51,1
129.00,172.86,1
224.00,170.96,1
74.00,169.25,1
41.00,165.75,1
304.00,161.39,1
73.00,158.71,1
183.00,156.66,1
93.00,154.31,1
57.00,150.95,1
41.00,145.44,1
73.00,138.19,1
154.00,130.93,1
108.00,125.12,1
522.00,123.96,1
34.00,128.87,1
45.00,133.58,1
90.00,134.52,1
113.00,133.54,1
232.00,132.91,1
86.00,133.52,1
127.00,133.96,1
70.00,133.25,1
49.00,130.91,1
194.00,127.80,1
60.00,125.32,1
39.00,122.21,1
222.00,118.77,1
85.00,116.93,1
57.00,115.38,1
260.00,114.18,1
63.00,114.80,1
50.00,115.08,1
36.00,113.12,1
64.00,109.40,1
275.00,106.59,1
48.00,106.41,1
186.00,107.38,1
111.00,108.97,1
67.00,110.49,1
98.00,110.83,1
180.00,111.09,1
125.00,112.42,1
64.00,113.81,1
70.00,113.74,1
292.00,114.04,1
106.00,116.78,1
130.00,120.25,1
51.00,122.36,1
163.00,123.18,1
64.00,123.38,1
181.00,123.35,1
222.00,124.61,1
96.00,127.41,1
71.00,129.33,1
218.00,130.27,1
97.00,131.67,1
47.00,132.17,1
234.00,131.69,1
104.00,132.08,1
93.00,132.43,1
46.00,131.10,1
59.00,127.76,1
63.00,122.85,1
117.00,117.55,1
54.00,112.53,1
39.00,107.17,1
146.00,101.85,1
127.00,98.24,1
176.00,97.01,1
78.00,97.49,1
130.00,98.46,1
218.00,100.54,1
127.00,104.56,1
149.00,109.30,1
117.00,113.77,1
312.00,119.17,1
137.00,126.61,1
109.00,133.82,1
105.00,138.67,1
157.00,141.69,1
148.00,144.00,1
97.00,145.53,1
91.00,145.45,1
253.00,144.98,1
258.00,146.93,1
172.00,151.34,1
179.00,156.14,1
80.00,159.66,1
393.00,163.10,1
127.00,168.55,1
85.00,173.17,1
62.00,173.92,1
96.00,171.28,1
82.00,166.37,1
48.00,159.66,1
119.00,151.71,1
67.00,143.58,1
121.00,135.74,1
137.00,128.99,1
152.00,124.11,1
116.00,120.92,1
114.00,118.63,1
154.00,117.07,1
43.00,115.87,1
217.00,114.90,1
162.00,115.65,1
102.00,117.74,1
157.00,119.76,1
41.00,121.12,1
63.00,120.61,1
61.00,118.11,1
60.00,114.32,1
66.00,109.68,1
335.00,106.90,1
46.00,107.74,1
103.00,109.19,1
121.00,109.77,1
57.00,109.89,1
41.00,108.64,1
116.00,106.18,1
60.00,103.56,1
84.00,100.78,1
41.00,97.55,1
69.00,93.82,1
84.00,90.06,1
50.00,86.59,1
100.00,83.44,1
83.00,81.04,1
38.00,79.06,1
67.00,76.80,1
216.00,75.76,1
146.00,77.85,1
158.00,82.38,1
140.00,88.11,1
127.00,94.24,1
179.00,100.53,1
67.00,106.55,1
262.00,112.37,1
122.00,118.99,1
86.00,124.98,1
43.00,128.16,1
86.00,128.44,1
38.00,126.45,1
86.00,122.78,1
50.00,118.07,1
95.00,112.88,1
49.00,107.59,1
231.00,103.52,1
152.00,102.53,1
64.00,103.37,1
39.00,103.21,1
77.00,101.45,1
173.00,99.78,1
65.00,99.25,1
57.00,98.55,1
144.00,97.41,1
93.00,96.96,1
307.00,98.66,1
67.00,103.09,1
56.00,107.15,1
95.00,108.92,1
76.00,109.31,1
37.00,108.33,1
53.00,105.64,1
82.00,101.95,1
39.00,97.89,1
74.00,93.48,1
58.00,89.06,1
115.00,85.28,1
76.00,82.60,1
196.00,81.67,1
44.00,82.50,1
57.00,83.22,1
39.00,82.65,1
127.00,81.64,1
58.00,81.08,1
97.00,80.78,1
90.00,80.71,1
62.00,80.80,1
40.00,80.29,1
76.00,79.05,1
144.00,78.27,1
111.00,79.02,1
89.00,80.75,1
173.00,83.21,1
148.00,87.18,1
40.00,91.52,1
43.00,94.03,1
110.00,94.75,1
258.00,96.49,1
175.00,101.25,1
74.00,107.17,1
91.00,111.53,1
38.00,113.60,1
147.00,114.00,1
226.00,115.16,1
153.00,118.44,1
156.00,122.72,1
81.00,126.43,1
54.00,128.13,1
84.00,127.45,1
184.00,126.07,1
98.00,125.40,1
75.00,124.50,1
38.00,122.04,1
90.00,118.13,1
36.00,113.35,1
127.00,108.34,1
154.00,104.62,1
80.00,102.59,1
123.00,101.28,1
179.00,101.11,1
43.00,101.99,1
44.00,101.81,1
37.00,99.68,1
171.00,97.15,1
43.00,95.51,1
64.00,93.76,1
62.00,91.25,1
169.00,89.29,1
59.00,88.63,1
112.00,88.51,1
48.00,88.22,1
97.00,87.60,1
82.00,86.91,1
77.00,86.31,1
106.00,85.83,1
37.00,85.32,1
90.00,84.33,1
326.00,85.28,1
57.00,89.80,1
78.00,94.56,1
133.00,97.91,1
242.00,102.05,1
126.00,107.98,1
64.00,113.54,1
165.00,117.46,1
75.00,120.44,1
185.00,122.85,1
86.00,125.01,1
156.00,126.76,1
37.00,127.48,1
210.00,127.45,1
89.00,127.72,1
82.00,127.59,1
63.00,125.88,1
172.00,123.56,1
50.00,121.48,1
89.00,118.87,1
38.00,115.16,1
51.00,110.30,1
50.00,104.53,1
53.00,98.36,1
154.00,92.99,1
44.00,89.19,1
48.00,85.75,1
59.00,81.94,1
82.00,78.38,1
70.00,75.51,1
275.00,74.93,1
155.00,78.49,1
56.00,83.92,1
145.00,88.67,1
97.00,93.01,1
230.00,97.94,1
61.00,103.55,1
59.00,107.79,1
140.00,110.06,1
62.00,111.47,1
45.00,111.40,1
42.00,109.28,1
166.00,106.48,1
48.00,104.32,1
83.00,102.09,1
269.00,101.01,1
125.00,103.03,1
96.00,106.24,1
57.00,108.25,1
37.00,108.22,1
66.00,106.24,1
95.00,103.39,1
38.00,100.24,1
105.00,96.81,1
39.00,93.36,1
55.00,89.62,1
190.00,86.62,1
50.00,85.51,1
41.00,84.58,1
58.00,82.63,1
172.00,81.15,1
127.00,81.72,1
57.00,83.46,1
159.00,85.33,1
194.00,88.65,1
108.00,93.67,1
59.00,98.26,1
181.00,101.87,1
120.00,105.71,1
74.00,109.23,1
68.00,111.06,1
114.00,111.45,1
44.00,110.86,1
103.00,109.26,1
87.00,107.22,1
43.00,104.75,1
75.00,101.47,1
57.00,97.69,1
130.00,94.22,1
89.00,91.83,1
107.00,90.41,1
68.00,89.41,1
126.00,88.75,1
55.00,88.41,1
67.00,87.74,1
108.00,86.78,1
37.00,85.83,1
101.00,84.61,1
72.00,83.45,1
107.00,82.72,1
115.00,82.74,1
82.00,83.50,1
138.00,84.76,1
107.00,86.76,1
107.00,89.21,1
37.00,91.09,1
133.00,92.10,1
95.00,93.11,1
72.00,94.07,1
167.00,95.04,1
56.00,96.46,1
94.00,97.44,1
78.00,97.61,1
93.00,97.35,1
40.00,96.43,1
205.00,95.67,1
41.00,95.99,1
95.00,96.22,1
72.00,95.72,1
80.00,94.81,1
50.00,93.31,1
43.00,90.92,1
246.00,89.26,1
72.00,90.08,1
176.00,92.42,1
259.00,96.80,1
67.00,103.22,1
35.00,108.22,1
70.00,110.14,1
80.00,110.06,1
59.00,108.75,1
121.00,106.80,1
46.00,104.65,1
104.00,102.18,1
44.00,99.38,1
51.00,95.97,1
67.00,91.97,1
270.00,89.67,1
135.00,91.10,1
53.00,94.08,1
45.00,95.58,1
68.00,95.30,1
212.00,95.19,1
40.00,96.37,1
102.00,97.35,1
66.00,97.43,1
154.00,97.48,1
490.00,101.45,1
68.00,111.04,1
146.00,121.04,1
190.00,129.19,1
38.00,135.77,1
82.00,139.15,1
113.00,139.69,1
156.00,139.32,1
128.00,139.00,1
53.00,138.00,1
82.00,135.28,1
98.00,131.34,1
77.00,126.93,1
40.00,121.78,1
300.00,117.61,1
81.00,116.56,1
170.00,117.14,1
156.00,118.47,1
87.00,120.28,1
96.00,121.20,1
112.00,121.12,1
180.00,121.19,1
274.00,123.40,1
235.00,128.95,1
56.00,135.52,1
49.00,139.26,1
158.00,140.06,1
168.00,140.43,1
59.00,140.64,1
37.00,138.79,1
372.00,136.98,1
338.00,140.37,1
114.00,147.95,1
273.00,155.77,1
274.00,164.30,1
595.00,177.08,1
209.00,194.90,1
112.00,211.31,1
169.00,221.76,1
258.00,228.18,1
90.00,231.93,1
74.00,231.33,1
64.00,225.66,1
199.00,217.20,1
407.00,210.78,1
381.00,210.46,1
214.00,214.75,1
42.00,217.94,1
86.00,216.30,1
60.00,210.09,1
39.00,200.42,1
73.00,188.20,1
69.00,174.78,1
202.00,162.22,1
411.00,154.62,1
76.00,152.87,1
410.00,154.54,1
243.00,160.10,1
134.00,167.54,1
101.00,172.70,1
113.00,174.65,1
58.00,173.52,1
226.00,170.65,1
69.00,167.61,1
127.00,163.82,1
349.00,161.07,1
200.00,162.16,1
87.00,164.53,1
290.00,166.38,1
186.00,169.34,1
37.00,171.77,1
54.00,170.53,1
98.00,165.92,1
483.00,163.00,1
247.00,166.24,1
73.00,171.90,1
59.00,174.24,1
51.00,172.24,1
110.00,167.22,1
194.00,161.72,1
44.00,156.67,1
61.00,150.46,1
204.00,143.82,1
288.00,140.29,1
130.00,140.53,1
73.00,141.20,1
88.00,140.04,1
67.00,137.11,1
88.00,132.90,1
123.00,128.33,1
133.00,124.47,1
37.00,120.95,1
127.00,117.03,1
76.00,113.21,1
47.00,109.26,1
44.00,104.41,1
110.00,99.30,1
72.00,94.91,1
67.00,91.09,1
45.00,87.24,1
68.00,83.29,1
102.00,79.87,1
38.00,77.19,1
54.00,74.52,1
209.00,72.95,1
140.00,74.42,1
58.00,77.62,1
47.00,80.00,1
37.00,80.70,1
176.00,81.03,1
59.00,82.32,1
221.00,84.83,1
74.00,88.69,1
214.00,93.52,1
96.00,99.03,1
177.00,104.76,1
287.00,111.80,1
45.00,120.03,1
144.00,126.63,1
36.00,130.47,1
176.00,132.33,1
100.00,133.40,1
176.00,134.36,1
68.00,134.94,1
240.00,135.49,1
70.00,136.54,1
80.00,136.61,1
102.00,134.91,1
78.00,132.14,1
48.00,128.19,1
128.00,123.44,1
127.00,119.31,1
81.00,116.06,1
117.00,113.10,1
86.00,110.43,1
62.00,107.65,1
96.00,104.50,1
52.00,101.18,1
98.00,97.76,1
57.00,94.45,1
104.00,91.42,1
177.00,89.77,1
80.00,89.99,1
154.00,91.24,1
49.00,92.79,1
150.00,94.23,1
73.00,95.69,1
176.00,97.54,1
49.00,99.64,1
122.00,101.22,1
119.00,102.47,1
60.00,103.51,1
168.00,104.24,1
113.00,105.56,1
135.00,107.44,1
291.00,110.91,1
66.00,116.38,1
100.00,121.01,1
146.00,123.91,1
89.00,125.99,1
64.00,126.62,1
56.00,125.14,1
92.00,122.10,1
40.00,118.07,1
61.00,113.01,1
199.00,108.42,1
289.00,107.54,1
115.00,110.76,1
74.00,114.46,1
120.00,116.64,1
112.00,117.97,1
171.00,119.35,1
213.00,121.96,1
136.00,125.96,1
45.00,129.21,1
277.00,131.57,1
172.00,135.38,1
48.00,139.34,1
46.00,140.33,1
199.00,139.25,1
115.00,138.45,1
78.00,137.45,1
258.00,136.52,1
45.00,136.59,1
75.00,135.60,1
54.00,132.42,1
151.00,128.39,1
96.00,124.81,1
158.00,122.10,1
132.00,120.52,1
184.00,120.33,1
171.00,121.78,1
210.00,124.94,1
48.00,128.50,1
138.00,130.62,1
140.00,131.75,1
121.00,132.71,1
141.00,133.37,1
128.00,133.86,1
91.00,133.83,1
56.00,132.39,1
63.00,129.11,1
60.00,124.34,1
36.00,118.39,1
139.00,112.19,1
117.00,107.33,1
90.00,103.93,1
106.00,101.25,1
92.00,99.12,1
105.00,97.49,1
157.00,96.82,1
46.00,96.97,1
62.00,96.43,1
72.00,94.83,1
91.00,92.93,1
43.00,90.86,1
49.00,88.15,1
71.00,84.93,1
65.00,81.79,1
189.00,79.93,1
72.00,80.13,1
55.00,80.83,1
73.00,80.81,1
66.00,80.32,1
159.00,80.31,1
46.00,81.21,1
122.00,82.29,1
66.00,83.34,1
118.00,84.46,1
46.00,85.39,1
76.00,85.64,1
199.00,86.28,1
36.00,88.15,1
122.00,89.91,1
121.00,91.59,1
141.00,94.03,1
73.00,96.71,1
88.00,98.65,1
70.00,99.48,1
112.00,99.64,1
148.00,100.11,1
56.00,101.01,1
153.00,101.76,1
147.00,103.18,1
72.00,105.15,1
48.00,105.97,1
138.00,105.61,1
100.00,105.36,1
142.00,105.65,1
102.00,106.39,1
75.00,106.92,1
78.00,106.50,1
119.00,105.55,1
156.00,105.24,1
42.00,105.44,1
108.00,104.98,1
110.00,104.20,1
107.00,103.77,1
75.00,103.30,1
80.00,102.31,1
39.00,100.43,1
52.00,97.40,1
36.00,93.35,1
37.00,88.51,1
150.00,84.06,1
164.00,82.06,1
59.00,82.27,1
96.00,82.84,1
70.00,83.18,1
84.00,83.34,1
44.00,83.03,1
133.00,82.57,1
175.00,83.50,1
77.00,86.10,1
42.00,88.29,1
87.00,89.09,1
78.00,89.18,1
120.00,89.30,1
56.00,89.53,1
191.00,90.24,1
75.00,92.04,1
69.00,93.75,1
118.00,94.69,1
68.00,95.35,1
86.00,95.51,1
67.00,95.00,1
68.00,93.86,1
129.00,92.62,1
118.00,92.29,1
117.00,92.98,1
126.00,94.38,1
51.00,95.80,1
197.00,97.22,1
105.00,99.64,1
93.00,102.31,1
48.00,103.76,1
44.00,103.32,1
74.00,101.31,1
84.00,98.70,1
54.00,95.90,1
231.00,94.10,1
37.00,94.20,1
192.00,95.28,1
96.00,97.23,1
168.00,100.06,1
35.00,102.77,1
43.00,103.74,1
66.00,102.61,1
145.00,101.00,1
119.00,100.37,1
59.00,100.23,1
60.00,99.27,1
71.00,97.31,1
84.00,94.96,1
90.00,92.76,1
41.00,90.54,1
211.00,89.03,1
187.00,90.30,1
72.00,93.74,1
66.00,96.54,1
129.00,98.22,1
70.00,99.50,1
127.00,100.46,1
79.00,101.20,1
50.00,101.18,1
243.00,101.31,1
60.00,102.99,1
91.00,104.61,1
283.00,106.72,1
173.00,111.68,1
124.00,117.97,1
97.00,123.13,1
43.00,125.96,1
88.00,126.17,1
59.00,124.47,1
50.00,121.16,1
35.00,116.24,1
196.00,111.27,1
36.00,107.65,1
96.00,104.35,1
127.00,101.33,1
160.00,99.91,1
97.00,100.03,1
152.00,101.01,1
83.00,102.42,1
98.00,103.55,1
134.00,104.39,1
84.00,105.30,1
130.00,106.08,1
85.00,106.71,1
51.00,106.55,1
76.00,105.07,1
84.00,102.83,1
43.00,100.10,1
195.00,97.72,1
46.00,96.65,1
81.00,95.69,1
162.00,94.85,1
97.00,95.23,1
234.00,97.27,1
70.00,100.85,1
408.00,106.70,1
86.00,115.71,1
370.00,126.59,1
94.00,138.27,1
186.00,148.74,1
124.00,156.65,1
62.00,161.57,1
62.00,162.49,1
174.00,160.78,1
107.00,158.42,1
67.00,155.15,1
154.00,150.79,1
37.00,145.90,1
65.00,139.78,1
40.00,132.20,1
115.00,124.21,1
91.00,117.02,1
66.00,110.68,1
202.00,105.73,1
232.00,104.28,1
168.00,106.67,1
119.00,110.64,1
107.00,114.24,1
43.00,116.29,1
66.00,116.15,1
235.00,115.59,1
185.00,117.31,1
147.00,120.95,1
88.00,124.41,1
85.00,126.29,1
112.00,126.59,1
151.00,126.44,1
143.00,126.74,1
162.00,127.75,1
100.00,128.98,1
122.00,129.65,1
46.00,129.07,1
74.00,126.74,1
128.00,123.45,1
73.00,120.18,1
244.00,118.02,1
70.00,117.68,1
141.00,117.88,1
92.00,117.80,1
51.00,116.95,1
36.00,114.33,1
108.00,110.45,1
43.00,106.29,1
63.00,101.73,1
91.00,97.05,1
218.00,94.10,1
38.00,93.45,1
54.00,92.73,1
102.00,91.17,1
37.00,89.41,1
214.00,88.35,1
170.00,89.87,1
93.00,93.41,1
39.00,96.27,1
36.00,96.95,1
160.00,96.50,1
51.00,96.33,1
116.00,96.14,1
67.00,95.71,1
94.00,95.07,1
64.00,94.06,1
63.00,92.54,1
147.00,91.11,1
66.00,90.52,1
36.00,89.67,1
104.00,88.06,1
76.00,86.56,1
97.00,85.48,1
70.00,84.65,1
91.00,83.92,1
50.00,83.09,1
132.00,82.38,1
115.00,82.67,1
62.00,83.66,1
64.00,84.16,1
152.00,84.58,1
84.00,85.86,1
96.00,87.43,1
150.00,89.26,1
126.00,92.01,1
78.00,95.03,1
55.00,96.97,1
38.00,97.09,1
71.00,95.63,1
44.00,93.20,1
51.00,90.00,1
61.00,86.29,1
147.00,83.26,1
481.00,85.16,1
41.00,93.42,1
144.00,102.46,1
81.00,109.33,1
179.00,114.94,1
100.00,119.86,1
53.00,123.21,1
80.00,124.07,1
74.00,122.98,1
73.00,120.58,1
52.00,117.01,1
60.00,112.37,1
84.00,107.26,1
109.00,102.61,1
66.00,98.73,1
224.00,96.37,1
41.00,95.98,1
41.00,95.38,1
45.00,93.15,1
127.00,90.50,1
77.00,88.59,1
176.00,88.00,1
131.00,89.27,1
76.00,91.52,1
104.00,93.41,1
136.00,95.23,1
69.00,97.14,1
54.00,98.08,1
140.00,98.16,1
66.00,98.29,1
108.00,98.27,1
161.00,98.68,1
95.00,100.06,1
101.00,101.54,1
96.00,102.55,1
82.00,103.03,1
69.00,102.70,1
74.00,101.47,1
52.00,99.40,1
69.00,96.59,1
113.00,93.76,1
78.00,91.59,1
71.00,89.73,1
83.00,87.85,1
132.00,86.57,1
102.00,86.46,1
44.00,86.65,1
228.00,87.39,1
74.00,89.82,1
84.00,92.49,1
110.00,94.37,1
119.00,96.18,1
66.00,97.80,1
55.00,98.31,1
80.00,97.57,1
43.00,95.90,1
148.00,94.06,1
68.00,92.92,1
125.00,92.37,1
80.00,92.18,1
72.00,91.94,1
134.00,91.68,1
56.00,91.72,1
132.00,91.85,1
108.00,92.45,1
72.00,93.32,1
155.00,94.27,1
90.00,95.78,1
43.00,96.88,1
158.00,97.26,1
69.00,97.88,1
80.00,98.21,1
146.00,98.32,1
118.00,99.20,1
70.00,100.33,1
53.00,100.44,1
129.00,99.72,1
47.00,98.83,1
40.00,97.05,1
96.00,94.32,1
71.00,91.64,1
58.00,89.01,1
54.00,86.05,1
59.00,82.81,1
78.00,79.68,1
106.00,77.32,1
63.00,75.89,1
85.00,74.91,1
206.00,75.32,1
50.00,77.69,1
61.00,79.95,1
72.00,81.04,1
71.00,81.46,1
57.00,81.33,1
46.00,80.45,1
77.00,78.98,1
48.00,77.30,1
57.00,75.37,1
86.00,73.46,1
146.00,72.68,1
139.00,73.96,1
68.00,76.55,1
162.00,79.61,1
103.00,83.40,1
204.00,88.25,1
37.00,93.57,1
260.00,98.97,1
105.00,105.29,1
240.00,112.50,1
82.00,119.77,1
119.00,125.65,1
112.00,129.52,1
82.00,131.69,1
45.00,131.63,1
172.00,130.05,1
78.00,128.41,1
40.00,125.96,1
120.00,122.21,1
44.00,117.99,1
66.00,113.14,1
145.00,108.37,1
49.00,104.51,1
251.00,102.20,1
75.00,102.25,1
65.00,102.75,1
152.00,102.70,1
106.00,103.18,1
108.00,104.05,1
180.00,105.41,1
154.00,108.11,1
115.00,111.57,1
114.00,114.63,1
127.00,117.05,1
120.00,119.05,1
127.00,120.71,1
281.00,123.40,1
132.00,128.16,1
153.00,133.31,1
161.00,137.77,1
44.00,140.90,1
161.00,142.00,1
49.00,141.57,1
105.00,139.56,1
96.00,136.36,1
37.00,132.15,1
121.00,126.99,1
131.00,122.25,1
70.00,118.36,1
66.00,114.27,1
44.00,109.42,1
122.00,104.38,1
78.00,100.13,1
118.00,96.86,1
58.00,94.26,1
114.00,92.04,1
57.00,90.14,1
93.00,88.38,1
90.00,86.86,1
105.00,85.97,1
95.00,85.72,1
99.00,85.96,1
63.00,86.24,1
104.00,86.32,1
148.00,87.00,1
150.00,89.19,1
119.00,92.59,1
142.00,96.52,1
46.00,100.02,1
167.00,102.69,1
46.00,104.84,1
97.00,105.95,1
110.00,106.19,1
51.00,105.89,1
75.00,104.54,1
94.00,102.49,1
50.00,100.12,1
65.00,97.16,1
98.00,93.99,1
41.00,90.97,1
66.00,87.70,1
111.00,84.66,1
119.00,82.92,1
170.00,83.15,1
77.00,85.02,1
105.00,87.18,1
118.00,89.29,1
148.00,91.98,1
184.00,95.95,1
71.00,100.64,1
151.00,104.82,1
75.00,108.23,1
163.00,111.08,1
45.00,113.26,1
70.00,113.84,1
37.00,112.36,1
46.00,109.07,1
86.00,104.74,1
206.00,101.49,1
324.00,102.47,1
46.00,107.30,1
93.00,111.63,1
40.00,113.48,1
46.00,112.92,1
52.00,110.27,1
65.00,106.38,1
155.00,102.69,1
44.00,99.96,1
76.00,97.22,1
38.00,93.84,1
36.00,89.73,1
118.00,85.53,1
61.00,82.26,1
75.00,79.67,1
94.00,77.58,1
342.00,78.42,1
83.00,83.66,1
112.00,90.00,1
174.00,95.82,1
84.00,101.58,1
125.00,106.47,1
286.00,111.78,1
129.00,118.98,1
112.00,125.93,1
70.00,130.55,1
132.00,132.94,1
74.00,133.71,1
90.00,132.93,1
125.00,131.07,1
70.00,128.71,1
63.00,125.37,1
51.00,120.72,1
43.00,114.92,1
91.00,108.58,1
147.00,103.24,1
63.00,99.48,1
52.00,96.02,1
170.00,93.00,1
66.00,91.42,1
71.00,90.28,1
37.00,88.44,1
72.00,85.91,1
109.00,83.54,1
153.00,82.65,1
165.00,84.05,1
88.00,87.05,1
160.00,90.60,1
75.00,94.29,1
63.00,97.06,1
53.00,98.05,1
52.00,97.37,1
60.00,95.42,1
48.00,92.57,1
60.00,89.14,1
172.00,86.39,1
106.00,85.70,1
46.00,85.89,1
135.00,85.96,1
126.00,86.83,1
67.00,88.37,1
75.00,89.38,1
67.00,89.54,1
79.00,89.08,1
100.00,88.47,1
67.00,87.95,1
54.00,87.01,1
137.00,86.01,1
138.00,86.24,1
145.00,88.20,1
112.00,91.23,1
86.00,94.28,1
77.00,96.46,1
42.00,97.25,1
102.00,96.81,1
88.00,96.04,1
96.00,95.37,1
54.00,94.47,1
96.00,93.13,1
74.00,91.67,1
163.00,90.91,1
154.00,91.91,1
61.00,94.04,1
88.00,95.55,1
140.00,96.65,1
57.00,97.81,1
82.00,98.23,1
85.00,97.83,1
47.00,96.75,1
105.00,95.07,1
98.00,93.59,1
123.00,92.89,1
71.00,92.72,1
43.00,92.07,1
55.00,90.26,1
65.00,87.69,1
73.00,84.97,1
84.00,82.53,1
54.00,80.39,1
74.00,78.30,1
68.00,76.35,1
167.00,75.47,1
82.00,76.32,1
127.00,78.23,1
141.00,81.05,1
105.00,84.77,1
86.00,88.41,1
86.00,91.26,1
77.00,93.17,1
39.00,93.84,1
79.00,93.17,1
43.00,91.56,1
167.00,90.05,1
72.00,89.64,1
90.00,89.69,1
125.00,89.87,1
110.00,90.76,1
73.00,91.89,1
133.00,92.93,1
58.00,93.93,1
84.00,94.33,1
93.00,94.16,1
64.00,93.67,1
253.00,94.13,1
157.00,97.42,1
108.00,102.31,1
235.00,107.67,1
129.00,114.07,1
35.00,119.52,1
77.00,122.01,1
155.00,122.71,1
68.00,122.95,1
69.00,122.04,1
52.00,119.42,1
127.00,115.97,1
85.00,112.75,1
121.00,110.02,1
37.00,107.32,1
55.00,103.78,1
40.00,99.20,1
74.00,94.15,1
75.00,89.37,1
61.00,85.14,1
158.00,82.05,1
48.00,80.51,1
167.00,80.16,1
117.00,81.37,1
290.00,85.33,1
75.00,91.91,1
76.00,98.14,1
148.00,102.71,1
177.00,107.33,1
103.00,112.29,1
47.00,115.91,1
185.00,117.99,1
247.00,121.16,1
148.00,126.40,1
190.00,132.26,1
149.00,137.93,1
59.00,142.20,1
125.00,143.97,1
57.00,143.56,1
130.00,141.56,1
65.00,138.50,1
68.00,134.28,1
40.00,128.62,1
52.00,121.71,1
39.00,113.92,1
80.00,105.98,1
40.00,98.41,1
48.00,91.11,1
64.00,84.22,1
89.00,78.38,1
193.00,74.96,1
220.00,75.63,1
147.00,80.06,1
100.00,85.87,1
70.00,90.90,1
285.00,96.06,1
62.00,102.64,1
40.00,107.96,1
96.00,110.38,1
207.00,112.20,1
36.00,114.39,1
101.00,115.40,1
112.00,115.25,1
110.00,114.91,1
60.00,114.10,1
82.00,112.28,1
185.00,110.57,1
148.00,110.58,1
61.00,111.42,1
143.00,111.78,1
50.00,111.64,1
94.00,110.62,1
109.00,109.06,1
76.00,107.47,1
57.00,105.33,1
105.00,102.64,1
160.00,100.74,1
76.00,100.10,1
44.00,99.25,1
119.00,97.66,1
36.00,95.86,1
120.00,93.89,1
109.00,92.48,1
39.00,91.46,1
87.00,89.92,1
68.00,88.09,1
100.00,86.46,1
54.00,85.02,1
174.00,84.29,1
52.00,84.70,1
70.00,85.10,1
122.00,85.17,1
65.00,85.55,1
133.00,86.19,1
245.00,88.61,1
108.00,93.56,1
41.00,98.38,1
70.00,100.92,1
61.00,101.51,1
112.00,101.10,1
84.00,100.50,1
280.00,101.36,1
49.00,104.41,1
119.00,107.38,1
148.00,109.69,1
72.00,111.84,1
78.00,112.84,1
111.00,112.66,1
307.00,113.82,1
75.00,117.53,1
45.00,120.61,1
48.00,120.71,1
145.00,119.15,1
59.00,117.30,1
149.00,115.42,1
253.00,115.22,1
186.00,118.26,1
318.00,124.47,1
134.00,132.96,1
207.00,141.59,1
161.00,149.33,1
35.00,154.93,1
134.00,157.07,1
41.00,156.33,1
150.00,153.61,1
60.00,149.77,1
202.00,145.81,1
68.00,142.37,1
113.00,138.78,1
116.00,134.83,1
39.00,130.55,1
68.00,125.14,1
42.00,118.66,1
118.00,112.04,1
86.00,106.32,1
77.00,101.49,1
51.00,96.87,1
69.00,92.20,1
119.00,88.15,1
90.00,85.45,1
79.00,83.69,1
83.00,82.33,1
195.00,82.22,1
179.00,84.82,1
69.00,89.17,1
85.00,92.86,1
76.00,95.18,1
51.00,96.19,1
129.00,96.30,1
78.00,96.41,1
57.00,96.12,1
85.00,95.01,1
64.00,93.43,1
46.00,91.28,1
122.00,88.91,1
70.00,87.14,1
61.00,85.59,1
74.00,83.77,1
81.00,82.02,1
75.00,80.54,1
67.00,79.22,1
80.00,77.99,1
113.00,77.28,1
158.00,78.03,1
111.00,80.50,1
55.00,83.31,1
80.00,85.18,1
114.00,86.50,1
98.00,88.00,1
186.00,90.33,1
168.00,94.39,1
60.00,99.18,1
48.00,102.32,1
50.00,103.03,1
50.00,101.80,1
101.00,99.57,1
47.00,97.05,1
85.00,94.23,1
103.00,91.62,1
65.00,89.55,1
97.00,87.74,1
109.00,86.51,1
100.00,86.15,1
101.00,86.43,1
61.00,86.78,1
106.00,86.90,1
75.00,86.99,1
136.00,87.43,1
72.00,88.33,1
61.00,88.91,1
50.00,88.41,1
69.00,87.00,1
57.00,85.09,1
110.00,83.24,1
68.00,81.94,1
100.00,81.09,1
103.00,80.85,1
106.00,81.39,1
82.00,82.39,1
60.00,83.16,1
64.00,83.18,1
59.00,82.48,1
72.00,81.33,1
67.00,79.99,1
37.00,78.33,1
107.00,76.53,1
54.00,75.16,1
36.00,73.70,1
90.00,71.94,1
36.00,70.31,1
74.00,68.69,1
50.00,67.13,1
61.00,65.66,1
96.00,64.59,1
64.00,64.26,1
65.00,64.28,1
91.00,64.53,1
132.00,65.72,1
149.00,68.64,1
268.00,74.37,1
213.00,83.71,1
125.00,94.83,1
96.00,104.76,1
69.00,112.02,1
69.00,116.33,1
64.00,117.96,1
114.00,117.88,1
76.00,116.96,1
73.00,115.18,1
117.00,112.81,1
149.00,111.05,1
53.00,109.92,1
49.00,107.93,1
48.00,104.49,1
88.00,100.33,1
87.00,96.43,1
87.00,93.16,1
78.00,90.39,1
68.00,87.88,1
107.00,85.71,1
91.00,84.31,1
100.00,83.68,1
77.00,83.48,1
88.00,83.39,1
62.00,83.17,1
45.00,82.38,1
103.00,81.16,1
117.00,80.60,1
298.00,82.76,1
47.00,87.95,1
190.00,93.82,1
65.00,99.24,1
59.00,103.21,1
100.00,105.14,1
105.00,106.13,1
82.00,106.61,1
168.00,107.06,1
78.00,107.97,1
38.00,108.08,1
46.00,106.24,1
127.00,103.45,1
41.00,100.73,1
38.00,97.37,1
80.00,93.23,1
50.00,89.05,1
48.00,84.81,1
89.00,80.72,1
79.00,77.47,1
54.00,74.93,1
64.00,72.60,1
162.00,71.28,1
51.00,71.55,1
60.00,72.08,1
61.00,72.00,1
61.00,71.57,1
184.00,71.91,1
74.00,73.96,1
100.00,76.65,1
37.00,78.73,1
76.00,79.77,1
64.00,80.01,1
110.00,80.14,1
67.00,80.49,1
79.00,80.77,1
85.00,80.87,1
59.00,80.82,1
121.00,80.78,1
165.00,81.95,1
65.00,84.40,1
58.00,86.39,1
65.00,87.07,1
65.00,86.80,1
53.00,85.77,1
105.00,84.43,1
84.00,83.48,1
47.00,82.65,1
95.00,81.54,1
176.00,81.41,1
51.00,82.73,1
148.00,84.53,1
108.00,86.85,1
127.00,89.80,1
45.00,92.44,1
88.00,93.90,1
103.00,94.59,1
74.00,95.03,1
111.00,95.21,1
75.00,95.27,1
137.00,95.45,1
69.00,95.89,1
85.00,96.02,1
60.00,95.42,1
94.00,94.28,1
165.00,93.72,1
86.00,94.41,1
110.00,95.50,1
44.00,96.07,1
69.00,95.52,1
38.00,93.76,1
66.00,91.07,1
59.00,87.90,1
59.00,84.59,1
55.00,81.20,1
59.00,77.82,1
49.00,74.51,1
57.00,71.31,1
74.00,68.48,1
98.00,66.56,1
126.00,66.17,1
73.00,67.19,1
131.00,69.08,1
59.00,71.49,1
65.00,73.55,1
98.00,75.06,1
96.00,76.68,1
166.00,79.14,1
80.00,82.60,1
107.00,86.08,1
79.00,88.96,1
68.00,90.97,1
65.00,91.79,1
140.00,92.18,1
143.00,93.47,1
106.00,95.76,1
74.00,97.88,1
84.00,99.04,1
69.00,99.23,1
41.00,98.25,1
52.00,95.93,1
73.00,92.80,1
96.00,89.78,1
61.00,87.21,1
46.00,84.56,1
57.00,81.46,1
123.00,78.76,1
71.00,77.20,1
34.00,75.93,1
117.00,74.57,1
97.00,74.09,1
100.00,74.68,1
56.00,75.58,1
78.00,76.16,1
119.00,76.81,1
134.00,78.50,1
77.00,81.02,1
137.00,83.78,1
118.00,86.98,1
35.00,89.91,1
46.00,91.10,1
88.00,90.76,1
102.00,90.17,1
68.00,89.72,1
68.00,88.94,1
85.00,87.79,1
102.00,86.83,1
66.00,86.16,1
35.00,85.02,1
69.00,83.04,1
40.00,80.55,1
88.00,77.95,1
122.00,76.19,1
163.00,76.44,1
59.00,78.29,1
58.00,79.92,1
185.00,81.49,1
81.00,84.20,1
76.00,86.98,1
37.00,88.45,1
59.00,88.37,1
87.00,87.38,1
37.00,85.96,1
208.00,85.09,1
153.00,86.64,1
76.00,89.82,1
97.00,92.60,1
183.00,95.39,1
36.00,98.49,1
125.00,100.73,1
35.00,101.75,1
44.00,101.12,1
139.00,99.46,1
94.00,98.36,1
149.00,98.20,1
55.00,98.54,1
278.00,99.99,1
144.00,104.03,1
83.00,109.04,1
58.00,112.27,1
77.00,113.30,1
115.00,113.02,1
84.00,112.30,1
183.00,111.89,1
200.00,113.27,1
126.00,116.43,1
108.00,119.62,1
88.00,121.63,1
304.00,124.00,1
122.00,128.47,1
46.00,132.53,1
45.00,133.37,1
123.00,131.72,1
115.00,129.47,1
202.00,128.07,1
164.00,128.42,1
205.00,130.53,1
110.00,133.49,1
161.00,136.17,1
55.00,137.72,1
36.00,136.87,1
70.00,133.29,1
57.00,128.05,1
103.00,122.18,1
60.00,116.35,1
72.00,110.50,1
76.00,104.71,1
65.00,99.23,1
39.00,93.80,1
117.00,88.71,1
39.00,84.50,1
101.00,80.95,1
105.00,78.44,1
163.00,77.86,1
102.00,79.29,1
181.00,82.28,1
98.00,86.47,1
147.00,91.14,1
102.00,95.77,1
52.00,99.45,1
153.00,101.91,1
101.00,104.21,1
75.00,106.06,1
125.00,107.07,1
230.00,108.90,1
98.00,112.33,1
127.00,115.80,1
84.00,118.20,1
70.00,119.13,1
129.00,118.80,1
37.00,117.63,1
75.00,115.15,1
36.00,111.30,1
109.00,106.80,1
127.00,102.99,1
69.00,100.27,1
100.00,97.90,1
63.00,95.61,1
62.00,93.08,1
72.00,90.23,1
126.00,87.83,1
111.00,86.69,1
183.00,87.35,1
43.00,89.27,1
59.00,90.48,1
107.00,90.64,1
66.00,90.56,1
155.00,90.77,1
129.00,92.11,1
62.00,94.02,1
156.00,95.75,1
123.00,98.01,1
87.00,100.53,1
44.00,101.93,1
73.00,101.67,1
117.00,100.63,1
65.00,99.59,1
148.00,98.78,1
116.00,98.83,1
73.00,99.37,1
75.00,99.27,1
59.00,98.23,1
92.00,96.55,1
80.00,94.75,1
113.00,93.26,1
163.00,92.93,1
46.00,93.63,1
161.00,94.51,1
129.00,96.17,1
88.00,98.45,1
171.00,100.87,1
135.00,104.05,1
88.00,107.40,1
187.00,110.51,1
69.00,113.61,1
180.00,116.39,1
114.00,119.14,1
117.00,121.64,1
88.00,123.11,1
53.00,123.01,1
178.00,121.93,1
52.00,120.89,1
135.00,119.55,1
73.00,117.83,1
36.00,115.24,1
59.00,111.16,1
73.00,106.26,1
47.00,101.10,1
42.00,95.54,1
42.00,89.57,1
104.00,83.96,1
112.00,79.93,1
69.00,77.53,1
176.00,76.67,1
318.00,79.62,1
174.00,87.47,1
36.00,96.38,1
86.00,102.69,1
415.00,109.26,1
187.00,119.78,1
65.00,130.89,1
54.00,138.02,1
152.00,141.53,1
92.00,143.23,1
107.00,143.43,1
217.00,143.16,1
94.00,143.47,1
63.00,142.83,1
54.00,139.87,1
118.00,135.40,1
96.00,130.70,1
90.00,126.12,1
37.00,121.06,1
122.00,115.57,1
103.00,110.76,1
72.00,106.74,1
115.00,103.15,1
62.00,100.02,1
40.00,96.64,1
71.00,92.63,1
94.00,88.80,1
168.00,86.48,1
87.00,86.14,1
239.00,87.88,1
73.00,91.57,1
147.00,95.75,1
98.00,99.61,1
44.00,102.45,1
47.00,103.12,1
206.00,103.06,1
57.00,103.88,1
42.00,104.05,1
74.00,102.52,1
88.00,100.26,1
96.00,98.08,1
252.00,97.61,1
101.00,99.82,1
71.00,102.55,1
181.00,104.73,1
64.00,107.04,1
104.00,108.67,1
110.00,109.46,1
54.00,109.57,1
73.00,108.44,1
108.00,106.53,1
36.00,104.25,1
198.00,102.19,1
202.00,102.49,1
167.00,105.73,1
870.00,116.38,1
150.00,137.64,1
334.00,161.70,1
41.00,181.73,1
245.00,196.38,1
67.00,205.95,1
196.00,211.15,1
272.00,214.16,1
107.00,216.36,1
59.00,215.35,1
160.00,210.60,1
73.00,203.72,1
43.00,194.61,1
225.00,184.40,1
124.00,175.64,1
111.00,168.01,1
305.00,162.05,1
113.00,159.08,1
272.00,158.20,1
92.00,158.52,1
112.00,158.22,1
408.00,158.75,1
94.00,162.42,1
127.00,165.81,1
159.00,167.08,1
127.00,167.24,1
82.00,165.91,1
417.00,165.27,1
280.00,169.22,1
396.00,178.06,1
60.00,188.25,1
98.00,194.85,1
68.00,196.01,1
134.00,193.39,1
206.00,189.45,1
176.00,186.15,1
410.00,185.52,1
50.00,187.62,1
74.00,187.84,1
99.00,184.20,1
74.00,178.14,1
72.00,170.27,1
209.00,162.17,1
257.00,156.86,1
488.00,157.70,1
71.00,163.97,1
59.00,169.00,1
164.00,170.13,1
46.00,168.92,1
138.00,165.62,1
37.00,160.59,1
225.00,155.08,1
73.00,150.39,1
63.00,145.44,1
243.00,140.53,1
173.00,138.12,1
142.00,137.78,1
184.00,138.27,1
130.00,139.38,1
121.00,140.28,1
106.00,140.27,1
54.00,138.80,1
47.00,135.25,1
160.00,130.61,1
75.00,126.42,1
135.00,122.73,1
60.00,119.21,1
44.00,115.06,1
58.00,109.78,1
63.00,103.97,1
67.00,98.18,1
236.00,94.11,1
63.00,92.89,1
59.00,92.38,1
164.00,91.79,1
99.00,92.33,1
99.00,93.51,1
83.00,94.45,1
103.00,95.08,1
163.00,96.16,1
193.00,98.95,1
291.00,104.78,1
224.00,114.06,1
68.00,124.02,1
116.00,131.40,1
76.00,135.75,1
212.00,138.52,1
304.00,142.72,1
117.00,148.99,1
146.00,154.48,1
95.00,157.71,1
52.00,158.12,1
47.00,155.20,1
42.00,149.38,1
242.00,143.09,1
121.00,138.93,1
668.00,140.75,1
69.00,150.21,1
88.00,159.84,1
48.00,164.26,1
72.00,164.24,1
177.00,161.81,1
143.00,159.32,1
61.00,156.49,1
118.00,152.31,1
39.00,146.86,1
577.00,144.26,1
105.00,148.36,1
102.00,153.93,1
56.00,156.04,1
99.00,155.07,1
50.00,151.70,1
260.00,147.91,1
286.00,147.24,1
250.00,150.89,1
120.00,156.18,1
56.00,159.55,1
440.00,162.39,1
186.00,168.49,1
109.00,175.17,1
55.00,178.20,1
68.00,176.96,1
109.00,172.63,1
145.00,167.16,1
359.00,163.76,1
105.00,163.75,1
277.00,165.33,1
208.00,168.22,1
78.00,171.23,1
94.00,171.66,1
166.00,169.85,1
120.00,167.36,1
121.00,164.30,1
84.00,160.20,1
122.00,155.18,1
74.00,149.56,1
188.00,144.12,1
108.00,139.84,1
37.00,135.60,1
204.00,131.07,1
90.00,127.72,1
122.00,125.14,1
125.00,122.83,1
192.00,121.68,1
289.00,123.40,1
145.00,128.25,1
324.00,135.17,1
43.00,142.88,1
141.00,148.56,1
34.00,150.90,1
240.00,151.41,1
45.00,151.40,1
54.00,149.55,1
40.00,144.76,1
75.00,138.04,1
136.00,131.05,1
51.00,124.69,1
140.00,118.86,1
146.00,114.44,1
77.00,111.51,1
413.00,111.53,1
322.00,117.95,1
220.00,129.53,1
44.00,140.71,1
67.00,147.68,1
258.00,151.68,1
62.00,155.04,1
60.00,156.11,1
109.00,154.13,1
314.00,152.43,1
170.00,153.62,1
72.00,155.45,1
84.00,155.00,1
91.00,152.24,1
66.00,147.83,1
62.00,141.96,1
89.00,135.06,1
127.00,128.38,1
48.00,122.28,1
261.00,117.62,1
117.00,115.89,1
103.00,115.69,1
344.00,117.26,1
35.00,121.43,1
253.00,126.13,1
125.00,131.04,1
39.00,134.91,1
167.00,136.41,1
81.00,136.79,1
180.00,136.75,1
233.00,137.79,1
86.00,140.10,1
56.00,141.02,1
426.00,142.22,1
186.00,147.52,1
88.00,154.04,1
158.00,158.19,1
183.00,160.97,1
70.00,162.66,1
268.00,163.44,1
138.00,164.78,1
44.00,165.21,1
94.00,162.69,1
164.00,158.65,1
94.00,154.60,1
92.00,150.08,1
86.00,144.69,1
80.00,138.64,1
111.00,132.40,1
120.00,126.76,1
135.00,122.31,1
177.00,119.59,1
101.00,118.45,1
80.00,117.47,1
42.00,115.32,1
86.00,111.92,1
137.00,108.54,1
71.00,105.96,1
233.00,104.72,1
110.00,105.68,1
186.00,108.23,1
80.00,111.24,1
49.00,113.10,1
131.00,113.32,1
39.00,112.63,1
64.00,110.61,1
48.00,107.19,1
58.00,102.83,1
100.00,98.30,1
98.00,94.55,1
98.00,91.82,1
81.00,89.82,1
127.00,88.53,1
85.00,88.09,1
247.00,89.34,1
123.00,93.17,1
130.00,98.17,1
68.00,102.45,1
96.00,105.30,1
113.00,107.05,1
60.00,108.00,1
144.00,108.25,1
92.00,108.50,1
255.00,109.94,1
96.00,113.19,1
259.00,117.78,1
53.00,122.88,1
60.00,126.19,1
98.00,126.76,1
180.00,126.60,1
206.00,127.81,1
139.00,130.56,1
89.00,133.07,1
120.00,134.17,1
114.00,134.22,1
49.00,133.09,1
82.00,130.23,1
114.00,126.44,1
49.00,122.36,1
162.00,118.29,1
107.00,115.25,1
218.00,114.05,1
153.00,115.15,1
176.00,117.95,1
66.00,120.90,1
36.00,121.97,1
160.00,121.22,1
138.00,120.72,1
36.00,120.26,1
41.00,117.98,1
41.00,113.66,1
71.00,108.22,1
131.00,103.10,1
44.00,98.92,1
86.00,94.99,1
78.00,91.29,1
59.00,87.95,1
61.00,84.63,1
166.00,82.18,1
90.00,81.61,1
42.00,81.68,1
157.00,81.77,1
192.00,83.66,1
164.00,88.20,1
113.00,94.02,1
71.00,99.14,1
161.00,103.19,1
146.00,107.31,1
88.00,111.38,1
100.00,114.28,1
46.00,115.44,1
36.00,114.39,1
114.00,111.72,1
111.00,109.09,1
46.00,106.64,1
72.00,103.52,1
42.00,99.62,1
68.00,95.20,1
42.00,90.50,1
148.00,86.42,1
228.00,85.15,1
80.00,87.05,1
39.00,89.15,1
129.00,90.17,1
112.00,91.34,1
76.00,92.77,1
48.00,93.36,1
124.00,93.16,1
82.00,93.06,1
215.00,94.07,1
69.00,96.55,1
67.00,98.72,1
76.00,99.40,1
141.00,99.60,1
160.00,100.76,1
163.00,103.48,1
82.00,106.82,1
53.00,108.95,1
66.00,109.06,1
146.00,108.25,1
131.00,108.12,1
112.00,108.74,1
137.00,109.70,1
52.00,110.42,1
65.00,109.83,1
105.00,108.12,1
98.00,106.32,1
41.00,104.26,1
252.00,102.82,1
72.00,103.46,1
92.00,104.57,1
64.00,104.59,1
163.00,104.31,1
81.00,104.54,1
66.00,104.49,1
63.00,103.26,1
339.00,103.30,1
199.00,107.72,1
41.00,113.98,1
109.00,118.20,1
114.00,120.59,1
219.00,123.03,1
72.00,125.97,1
57.00,127.50,1
130.00,127.03,1
42.00,125.43,1
104.00,122.68,1
86.00,119.29,1
76.00,115.67,1
245.00,113.10,1
90.00,112.86,1
118.00,113.45,1
101.00,113.67,1
106.00,113.59,1
66.00,112.91,1
60.00,111.09,1
141.00,108.73,1
122.00,107.18,1
160.00,106.99,1
285.00,109.34,1
198.00,115.20,1
83.00,122.19,1
38.00,126.78,1
40.00,127.66,1
151.00,126.32,1
145.00,125.15,1
114.00,124.72,1
107.00,124.24,1
123.00,123.49,1
49.00,122.14,1
138.00,120.04,1
48.00,117.56,1
44.00,114.09,1
80.00,109.47,1
62.00,104.55,1
54.00,99.47,1
78.00,94.36,1
70.00,89.67,1
61.00,85.44,1
70.00,81.57,1
161.00,78.93,1
85.00,78.25,1
239.00,79.90,1
110.00,84.08,1
44.00,88.64,1
69.00,91.36,1
56.00,92.40,1
156.00,92.91,1
154.00,94.56,1
191.00,98.10,1
151.00,103.25,1
126.00,108.87,1
84.00,113.56,1
91.00,116.56,1
258.00,119.31,1
51.00,122.91,1
209.00,126.29,1
72.00,129.15,1
73.00,130.57,1
90.00,129.86,1
45.00,127.46,1
59.00,123.42,1
120.00,118.61,1
69.00,114.07,1
122.00,109.99,1
40.00,106.17,1
198.00,103.07,1
83.00,101.60,1
114.00,101.08,1
98.00,100.73,1
103.00,100.55,1
217.00,101.39,1
151.00,104.39,1
49.00,107.92,1
148.00,110.32,1
77.00,111.98,1
57.00,112.50,1
96.00,111.53,1
108.00,110.06,1
154.00,109.16,1
39.00,108.62,1
106.00,107.42,1
113.00,105.95,1
160.00,105.41,1
56.00,105.56,1
144.00,105.62,1
86.00,105.73,1
44.00,105.30,1
38.00,103.23,1
78.00,99.86,1
61.00,96.11,1
90.00,92.47,1
99.00,89.47,1
147.00,87.81,1
42.00,87.26,1
91.00,86.61,1
104.00,85.96,1
74.00,85.71,1
38.00,85.09,1
46.00,83.41,1
70.00,81.03,1
48.00,78.47,1
121.00,76.31,1
116.00,75.50,1
112.00,76.24,1
42.00,77.45,1
175.00,78.87,1
149.00,81.82,1
49.00,85.67,1
77.00,88.44,1
70.00,89.87,1
37.00,90.10,1
97.00,89.27,1
60.00,88.09,1
68.00,86.63,1
87.00,85.00,1
47.00,83.33,1
295.00,83.24,1
101.00,86.54,1
51.00,90.72,1
85.00,93.27,1
37.00,94.27,1
171.00,94.62,1
49.00,95.30,1
37.00,95.20,1
130.00,94.06,1
85.00,93.24,1
38.00,92.32,1
73.00,90.51,1
225.00,89.52,1
48.00,90.53,1
152.00,92.21,1
49.00,93.76,1
124.00,94.92,1
96.00,95.92,1
92.00,96.88,1
158.00,98.03,1
112.00,99.96,1
60.00,101.78,1
90.00,102.45,1
106.00,102.43,1
110.00,102.44,1
112.00,102.67,1
116.00,103.18,1
36.00,103.30,1
151.00,102.77,1
64.00,102.29,1
57.00,101.33,1
72.00,99.30,1
92.00,96.89,1
106.00,94.85,1
132.00,93.77,1
50.00,93.33,1
69.00,92.39,1
52.00,90.59,1
78.00,88.29,1
171.00,86.76,1
37.00,86.53,1
75.00,86.14,1
36.00,84.83,1
43.00,82.60,1
127.00,80.22,1
100.00,79.06,1
36.00,78.56,1
67.00,77.56,1
48.00,76.04,1
127.00,74.77,1
43.00,74.18,1
51.00,73.46,1
99.00,72.50,1
67.00,71.98,1
50.00,71.55,1
68.00,70.80,1
44.00,69.79,1
101.00,68.83,1
53.00,68.30,1
118.00,68.33,1
62.00,68.99,1
118.00,70.18,1
58.00,71.72,1
37.00,72.76,1
243.00,74.25,1
101.00,78.13,1
180.00,83.65,1
80.00,89.57,1
48.00,94.30,1
122.00,97.24,1
263.00,100.86,1
270.00,107.91,1
116.00,117.34,1
190.00,126.34,1
127.00,134.16,1
297.00,141.79,1
122.00,149.88,1
60.00,156.03,1
36.00,157.83,1
59.00,155.52,1
106.00,150.77,1
47.00,144.78,1
107.00,137.97,1
90.00,131.14,1
57.00,124.44,1
62.00,117.44,1
115.00,110.67,1
81.00,104.95,1
40.00,99.76,1
42.00,94.19,1
68.00,88.42,1
175.00,84.03,1
72.00,81.99,1
176.00,81.83,1
117.00,83.49,1
52.00,85.80,1
80.00,87.21,1
109.00,88.05,1
192.00,89.81,1
76.00,92.89,1
63.00,95.51,1
146.00,97.22,1
138.00,99.38,1
145.00,102.45,1
56.00,105.39,1
133.00,107.36,1
46.00,108.34,1
67.00,107.92,1
141.00,106.68,1
50.00,105.51,1
129.00,104.19,1
83.00,102.98,1
48.00,101.48,1
96.00,99.25,1
56.00,96.73,1
163.00,94.67,1
62.00,93.66,1
148.00,93.38,1
86.00,93.76,1
42.00,93.94,1
131.00,93.45,1
94.00,93.28,1
59.00,93.19,1
41.00,92.12,1
178.00,90.90,1
74.00,90.87,1
116.00,91.51,1
47.00,91.88,1
88.00,91.58,1
180.00,91.67,1
212.00,94.16,1
73.00,98.54,1
86.00,102.28,1
122.00,104.77,1
36.00,106.22,1
173.00,106.83,1
165.00,108.29,1
75.00,110.60,1
127.00,112.35,1
56.00,113.14,1
68.00,112.53,1
63.00,110.44,1
99.00,107.61,1
66.00,104.61,1
54.00,101.23,1
82.00,97.42,1
59.00,93.60,1
75.00,89.87,1
36.00,86.08,1
112.00,82.49,1
138.00,80.33,1
153.00,80.56,1
168.00,83.16,1
133.00,87.54,1
39.00,91.88,1
98.00,94.69,1
89.00,96.37,1
78.00,97.38,1
70.00,97.53,1
89.00,96.96,1
113.00,96.30,1
44.00,95.58,1
126.00,94.58,1
123.00,94.15,1
120.00,94.79,1
61.00,95.65,1
72.00,95.72,1
74.00,94.92,1
62.00,93.50,1
80.00,91.61,1
146.00,90.19,1
119.00,90.19,1
70.00,90.97,1
114.00,91.64,1
62.00,92.10,1
148.00,92.59,1
44.00,93.22,1
148.00,93.79,1
122.00,94.95,1
67.00,96.49,1
111.00,97.50,1
92.00,98.20,1
42.00,98.26,1
89.00,97.24,1
147.00,96.28,1
87.00,96.27,1
62.00,96.24,1
47.00,95.17,1
68.00,93.04,1
173.00,91.30,1
37.00,90.67,1
43.00,89.59,1
50.00,87.24,1
51.00,84.17,1
38.00,80.62,1
64.00,76.83,1
84.00,73.48,1
74.00,71.03,1
51.00,69.16,1
146.00,68.12,1
100.00,68.74,1
157.00,71.10,1
76.00,74.59,1
70.00,77.91,1
103.00,80.50,1
154.00,83.36,1
72.00,86.77,1
39.00,89.28,1
128.00,90.53,1
267.00,93.13,1
41.00,97.85,1
104.00,101.94,1
127.00,104.79,1
55.00,106.91,1
174.00,108.38,1
48.00,109.64,1
108.00,110.09,1
52.00,109.39,1
132.00,108.09,1
39.00,106.45,1
70.00,104.00,1
37.00,100.48,1
50.00,96.08,1
79.00,91.34,1
66.00,86.99,1
176.00,84.00,1
160.00,83.72,1
84.00,85.54,1
84.00,87.50,1
47.00,88.57,1
94.00,88.70,1
99.00,88.63,1
106.00,88.94,1
140.00,89.96,1
234.00,92.92,1
155.00,98.42,1
109.00,104.75,1
85.00,109.88,1
118.00,113.43,1
42.00,115.38,1
127.00,115.77,1
132.00,115.77,1
41.00,115.52,1
94.00,114.05,1
44.00,111.41,1
41.00,107.58,1
56.00,102.60,1
61.00,97.20,1
46.00,91.71,1
71.00,86.36,1
60.00,81.49,1
127.00,77.72,1
83.00,75.57,1
88.00,74.59,1
157.00,74.83,1
86.00,76.59,1
93.00,78.89,1
80.00,80.93,1
78.00,82.55,1
170.00,84.40,1
239.00,88.48,1
103.00,94.87,1
92.00,101.03,1
120.00,105.72,1
88.00,109.26,1
66.00,111.32,1
108.00,111.90,1
134.00,112.07,1
80.00,112.27,1
54.00,111.57,1
71.00,109.50,1
65.00,106.45,1
72.00,102.88,1
100.00,99.32,1
35.00,95.86,1
46.00,91.85,1
52.00,87.25,1
156.00,83.39,1
58.00,81.19,1
85.00,79.79,1
52.00,78.39,1
194.00,77.91,1
50.00,79.02,1
142.00,80.86,1
54.00,82.80,1
78.00,84.24,1
110.00,85.19,1
56.00,86.03,1
119.00,86.63,1
98.00,87.48,1
210.00,89.57,1
160.00,93.83,1
96.00,99.16,1
127.00,103.89,1
50.00,107.35,1
37.00,108.61,1
92.00,107.76,1
121.00,106.38,1
80.00,105.23,1
40.00,103.52,1
167.00,101.50,1
93.00,100.47,1
36.00,99.58,1
102.00,97.82,1
65.00,95.77,1
165.00,94.33,1
47.00,93.78,1
73.00,93.00,1
80.00,91.59,1
40.00,89.74,1
47.00,87.08,1
127.00,84.33,1
209.00,83.68,1
39.00,85.26,1
69.00,86.58,1
136.00,87.31,1
91.00,88.55,1
199.00,90.85,1
66.00,94.18,1
139.00,97.48,1
38.00,99.92,1
122.00,101.26,1
74.00,101.87,1
81.00,101.86,1
98.00,101.24,1
88.00,100.44,1
65.00,99.31,1
50.00,97.38,1
42.00,94.39,1
87.00,90.83,1
93.00,87.67,1
194.00,86.25,1
114.00,87.23,1
93.00,89.35,1
71.00,91.08,1
82.00,91.99,1
41.00,91.92,1
122.00,91.18,1
131.00,91.05,1
95.00,91.89,1
44.00,92.51,1
131.00,92.52,1
133.00,93.10,1
158.00,95.06,1
152.00,98.38,1
154.00,102.76,1
123.00,107.51,1
86.00,111.59,1
108.00,114.31,1
60.00,115.60,1
88.00,115.36,1
99.00,114.12,1
120.00,112.75,1
87.00,111.51,1
68.00,109.87,1
89.00,107.56,1
61.00,104.79,1
72.00,101.56,1
40.00,97.76,1
119.00,93.88,1
57.00,90.59,1
49.00,87.42,1
81.00,84.08,1
60.00,80.99,1
113.00,78.57,1
42.00,76.84,1
60.00,75.11,1
78.00,73.29,1
83.00,71.96,1
137.00,71.72,1
50.00,72.55,1
105.00,73.60,1
50.00,74.53,1
88.00,75.19,1
84.00,75.77,1
38.00,76.14,1
106.00,76.10,1
129.00,76.69,1
36.00,77.92,1
152.00,79.19,1
118.00,81.34,1
46.00,83.87,1
80.00,85.42,1
37.00,85.77,1
48.00,84.87,1
67.00,83.02,1
89.00,81.11,1
73.00,79.61,1
145.00,78.97,1
46.00,79.27,1
63.00,79.36,1
71.00,78.81,1
61.00,77.98,1
96.00,77.17,1
104.00,76.95,1
37.00,77.06,1
132.00,77.16,1
123.00,78.18,1
108.00,80.41,1
74.00,82.85,1
140.00,85.24,1
45.00,87.54,1
124.00,89.32,1
93.00,90.91,1
142.00,92.85,1
82.00,95.05,1
122.00,97.11,1
142.00,99.34,1
98.00,101.92,1
103.00,104.16,1
99.00,105.74,1
102.00,106.78,1
88.00,107.27,1
114.00,107.33,1
60.00,106.94,1
81.00,105.70,1
187.00,104.64,1
49.00,104.54,1
42.00,103.71,1
46.00,101.11,1
73.00,97.50,1
88.00,93.85,1
55.00,90.48,1
62.00,87.07,1
130.00,84.16,1
132.00,82.94,1
73.00,83.14,1
88.00,83.57,1
115.00,84.14,1
63.00,84.95,1
138.00,85.88,1
44.00,86.92,1
81.00,87.37,1
120.00,87.51,1
52.00,87.81,1
73.00,87.59,1
40.00,86.50,1
64.00,84.59,1
49.00,82.13,1
48.00,79.29,1
40.00,76.03,1
43.00,72.44,1
116.00,69.32,1
39.00,67.25,1
46.00,65.44,1
39.00,63.30,1
92.00,61.37,1
63.00,60.23,1
37.00,59.49,1
74.00,58.71,1
79.00,58.35,1
87.00,58.80,1
87.00,60.00,1
135.00,62.21,1
127.00,65.82,1
76.00,70.23,1
101.00,74.40,1
163.00,78.76,1
102.00,83.85,1
96.00,88.78,1
114.00,92.96,1
44.00,96.10,1
96.00,97.76,1
80.00,98.40,1
98.00,98.56,1
73.00,98.29,1
57.00,97.33,1
96.00,95.71,1
136.00,94.49,1
54.00,93.94,1
58.00,92.90,1
74.00,91.05,1
55.00,88.80,1
39.00,85.97,1
80.00,82.75,1
121.00,80.21,1
120.00,79.31,1
186.00,80.53,1
41.00,83.23,1
113.00,85.67,1
101.00,87.74,1
126.00,90.06,1
92.00,92.52,1
63.00,94.41,1
235.00,96.48,1
130.00,100.36,1
157.00,105.39,1
127.00,110.46,1
262.00,116.23,1
50.00,122.59,1
100.00,127.19,1
36.00,128.82,1
106.00,128.07,1
76.00,125.94,1
149.00,123.53,1
84.00,121.40,1
75.00,119.00,1
114.00,116.11,1
84.00,113.27,1
62.00,110.21,1
100.00,106.79,1
71.00,103.41,1
39.00,99.73,1
92.00,95.62,1
97.00,91.99,1
126.00,89.60,1
125.00,88.74,1
99.00,89.08,1
73.00,89.67,1
80.00,89.84,1
116.00,89.88,1
35.00,89.81,1
138.00,89.46,1
94.00,89.59,1
90.00,90.16,1
76.00,90.50,1
100.00,90.60,1
67.00,90.51,1
87.00,90.10,1
64.00,89.33,1
38.00,87.87,1
49.00,85.40,1
54.00,82.27,1
70.00,79.05,1
58.00,76.06,1
38.00,73.13,1
77.00,70.23,1
57.00,67.77,1
67.00,65.78,1
44.00,64.05,1
117.00,62.86,1
45.00,62.55,1
60.00,62.45,1
110.00,62.58,1
56.00,63.40,1
142.00,64.94,1
124.00,67.80,1
144.00,72.16,1
71.00,77.09,1
83.00,81.34,1
67.00,84.39,1
115.00,86.66,1
88.00,88.70,1
89.00,90.46,1
71.00,91.59,1
77.00,91.97,1
67.00,91.62,1
68.00,90.63,1
54.00,89.00,1
68.00,86.83,1
58.00,84.35,1
61.00,81.70,1
63.00,79.00,1
42.00,76.22,1
67.00,73.36,1
53.00,70.65,1
71.00,68.27,1
69.00,66.39,1
51.00,64.91,1
71.00,63.64,1
76.00,62.80,1
103.00,62.79,1
84.00,63.74,1
68.00,65.17,1
111.00,66.83,1
74.00,68.90,1
70.00,70.92,1
68.00,72.44,1
119.00,73.88,1
77.00,75.71,1
94.00,77.63,1
77.00,79.35,1
70.00,80.66,1
49.00,81.19,1
56.00,80.75,1
54.00,79.51,1
46.00,77.67,1
55.00,75.37,1
54.00,72.85,1
39.00,70.20,1
40.00,67.28,1
48.00,64.21,1
48.00,61.28,1
45.00,58.58,1
62.00,56.25,1
67.00,54.57,1
77.00,53.75,1
74.00,53.79,1
75.00,54.53,1
135.00,56.26,1
72.00,59.17,1
104.00,62.59,1
58.00,65.91,1
111.00,68.99,1
90.00,72.12,1
114.00,75.45,1
103.00,78.97,1
99.00,82.50,1
59.00,85.43,1
100.00,87.44,1
