127.00,101.93,1
281.00,101.93,1
211.00,106.03,1
63.00,112.02,1
90.00,116.39,1
80.00,118.52,1
176.00,119.73,1
58.00,120.74,1
68.00,120.48,1
83.00,118.58,1
218.00,116.95,1
263.00,118.31,1
64.00,122.17,1
44.00,124.66,1
279.00,125.99,1
212.00,129.57,1
69.00,134.40,1
126.00,137.56,1
354.00,140.99,1
106.00,146.72,1
94.00,151.67,1
98.00,153.66,1
60.00,152.94,1
89.00,149.86,1
304.00,147.04,1
160.00,147.17,1
203.00,149.26,1
50.00,151.00,1
147.00,151.03,1
308.00,151.45,1
578.00,157.85,1
53.00,170.14,1
98.00,180.32,1
418.00,187.60,1
359.00,197.65,1
102.00,209.01,1
83.00,216.07,1
235.00,218.43,1
172.00,218.97,1
37.00,217.22,1
126.00,211.79,1
76.00,203.60,1
118.00,193.95,1
327.00,185.48,1
214.00,181.11,1
77.00,178.68,1
92.00,174.73,1
102.00,168.94,1
45.00,161.77,1
685.00,158.21,1
164.00,163.34,1
107.00,171.17,1
706.00,180.43,1
70.00,194.67,1
316.00,208.66,1
78.00,218.84,1
108.00,224.08,1
120.00,224.01,1
314.00,222.00,1
396.00,222.61,1
535.00,229.39,1
91.00,239.86,1
156.00,247.10,1
180.00,249.16,1
322.00,249.40,1
251.00,250.23,1
199.00,251.04,1
290.00,251.11,1
129.00,250.37,1
187.00,247.57,1
499.00,245.54,1
351.00,248.62,1
108.00,253.58,1
143.00,254.82,1
154.00,251.84,1
111.00,245.84,1
65.00,236.78,1
408.00,227.42,1
195.00,221.71,1
449.00,220.37,1
108.00,222.00,1
228.00,223.28,1
379.00,224.66,1
237.00,228.39,1
75.00,231.35,1
462.00,232.96,1
292.00,237.16,1
383.00,244.30,1
318.00,253.06,1
147.00,260.98,1
130.00,264.50,1
139.00,262.94,1
46.00,256.76,1
92.00,246.21,1
668.00,237.49,1
168.00,236.25,1
128.00,236.84,1
275.00,235.23,1
137.00,232.95,1
127.00,229.09,1
66.00,222.33,1
71.00,212.51,1
38.00,200.02,1
204.00,186.82,1
179.00,175.79,1
166.00,167.62,1
134.00,161.21,1
174.00,156.04,1
173.00,152.38,1
55.00,149.30,1
210.00,146.10,1
87.00,143.48,1
54.00,140.36,1
167.00,136.31,1
119.00,132.92,1
99.00,130.11,1
65.00,126.83,1
234.00,123.96,1
49.00,122.50,1
78.00,120.72,1
48.00,117.46,1
154.00,113.81,1
113.00,111.15,1
168.00,109.99,1
48.00,109.57,1
100.00,108.64,1
39.00,106.71,1
159.00,104.49,1
370.00,105.38,1
155.00,111.35,1
244.00,119.83,1
219.00,129.44,1
96.00,138.91,1
141.00,146.09,1
162.00,151.17,1
50.00,154.29,1
47.00,154.08,1
172.00,151.43,1
61.00,148.14,1
202.00,144.84,1
128.00,142.45,1
151.00,140.96,1
139.00,139.88,1
201.00,139.64,1
104.00,140.17,1
238.00,141.30,1
188.00,143.85,1
62.00,146.62,1
202.00,148.11,1
38.00,148.51,1
98.00,147.00,1
185.00,144.46,1
180.00,143.12,1
151.00,143.12,1
38.00,142.69,1
185.00,141.03,1
126.00,139.53,1
70.00,137.96,1
274.00,136.68,1
77.00,136.93,1
92.00,136.89,1
178.00,135.95,1
58.00,134.92,1
103.00,132.96,1
99.00,130.04,1
112.00,126.93,1
63.00,123.57,1
91.00,119.63,1
236.00,116.65,1
99.00,116.01,1
74.00,115.88,1
144.00,115.19,1
63.00,114.37,1
156.00,113.48,1
115.00,113.10,1
113.00,113.20,1
192.00,113.94,1
138.00,116.01,1
84.00,118.30,1
218.00,120.46,1
46.00,122.81,1
140.00,124.25,1
76.00,124.56,1
49.00,123.47,1
122.00,121.01,1
77.00,118.20,1
40.00,114.77,1
242.00,111.67,1
70.00,110.53,1
68.00,109.74,1
140.00,108.35,1
41.00,106.92,1
68.00,104.69,1
215.00,102.77,1
106.00,102.91,1
104.00,104.00,1
259.00,106.16,1
38.00,109.76,1
262.00,113.82,1
154.00,119.07,1
91.00,124.60,1
173.00,128.89,1
97.00,132.29,1
280.00,135.85,1
43.00,139.86,1
128.00,142.34,1
90.00,142.72,1
222.00,142.66,1
269.00,144.57,1
54.00,147.96,1
104.00,149.62,1
214.00,149.86,1
80.00,150.14,1
115.00,149.44,1
220.00,148.33,1
69.00,147.75,1
79.00,146.02,1
63.00,142.25,1
293.00,138.79,1
119.00,137.94,1
79.00,137.78,1
197.00,137.02,1
47.00,136.21,1
367.00,136.53,1
40.00,139.06,1
242.00,142.08,1
51.00,144.44,1
127.00,145.33,1
44.00,144.09,1
44.00,140.51,1
67.00,134.78,1
424.00,130.94,1
531.00,135.66,1
197.00,148.80,1
124.00,162.55,1
313.00,173.88,1
123.00,183.97,1
56.00,190.65,1
51.00,191.74,1
271.00,189.76,1
340.00,189.71,1
167.00,192.65,1
167.00,195.47,1
87.00,195.98,1
277.00,194.99,1
136.00,194.22,1
134.00,192.84,1
75.00,189.35,1
336.00,185.57,1
72.00,183.33,1
94.00,180.32,1
74.00,174.81,1
165.00,168.17,1
51.00,161.33,1
204.00,154.68,1
41.00,148.65,1
210.00,143.24,1
165.00,139.58,1
67.00,137.22,1
181.00,134.85,1
232.00,134.06,1
57.00,134.84,1
153.00,135.09,1
348.00,136.70,1
78.00,141.06,1
199.00,145.53,1
118.00,149.02,1
60.00,150.83,1
43.00,149.49,1
127.00,145.78,1
57.00,141.06,1
115.00,135.74,1
183.00,131.09,1
228.00,129.09,1
63.00,129.12,1
311.00,130.37,1
130.00,133.76,1
136.00,137.76,1
105.00,140.44,1
325.00,143.38,1
153.00,148.39,1
202.00,154.20,1
140.00,159.29,1
68.00,162.42,1
104.00,162.52,1
88.00,160.22,1
202.00,157.15,1
140.00,154.85,1
117.00,152.94,1
98.00,150.32,1
102.00,146.79,1
96.00,142.54,1
150.00,138.27,1
250.00,135.80,1
87.00,135.53,1
174.00,135.79,1
175.00,136.55,1
360.00,139.93,1
126.00,146.34,1
120.00,152.42,1
40.00,155.33,1
339.00,156.85,1
64.00,159.28,1
318.00,162.37,1
326.00,167.83,1
173.00,175.88,1
331.00,184.48,1
90.00,192.56,1
655.00,201.98,1
312.00,216.67,1
107.00,232.15,1
142.00,241.74,1
191.00,245.77,1
321.00,247.69,1
489.00,251.90,1
106.00,258.44,1
323.00,263.33,1
68.00,265.13,1
49.00,261.91,1
394.00,255.42,1
185.00,250.50,1
286.00,247.16,1
354.00,245.65,1
37.00,244.91,1
164.00,241.13,1
59.00,233.74,1
401.00,226.03,1
243.00,221.84,1
302.00,221.21,1
105.00,221.29,1
145.00,219.46,1
93.00,214.77,1
461.00,210.65,1
90.00,209.70,1
290.00,209.75,1
106.00,209.26,1
178.00,207.60,1
111.00,204.19,1
69.00,198.70,1
216.00,191.81,1
139.00,185.51,1
160.00,180.00,1
127.00,174.70,1
152.00,169.58,1
121.00,164.64,1
224.00,160.55,1
59.00,157.33,1
121.00,153.50,1
264.00,150.18,1
48.00,148.45,1
49.00,145.59,1
142.00,140.98,1
46.00,135.93,1
48.00,129.91,1
194.00,123.82,1
41.00,119.05,1
127.00,114.81,1
75.00,110.86,1
165.00,107.85,1
137.00,106.48,1
87.00,106.27,1
103.00,106.02,1
67.00,105.30,1
223.00,105.08,1
424.00,109.21,1
61.00,118.08,1
82.00,126.11,1
194.00,131.49,1
130.00,136.20,1
292.00,141.45,1
371.00,149.74,1
153.00,160.90,1
136.00,170.79,1
206.00,177.87,1
314.00,184.50,1
138.00,191.48,1
157.00,196.62,1
212.00,199.50,1
148.00,201.12,1
52.00,200.31,1
166.00,196.52,1
123.00,191.33,1
147.00,185.68,1
184.00,180.21,1
346.00,177.23,1
356.00,179.27,1
142.00,184.85,1
85.00,188.97,1
111.00,189.35,1
63.00,186.40,1
393.00,183.19,1
166.00,183.11,1
180.00,184.50,1
585.00,188.61,1
85.00,197.39,1
40.00,204.10,1
59.00,204.26,1
133.00,200.05,1
122.00,193.92,1
66.00,186.50,1
37.00,177.09,1
39.00,165.55,1
93.00,153.00,1
127.00,141.31,1
114.00,131.57,1
52.00,123.18,1
88.00,115.27,1
101.00,108.17,1
143.00,102.76,1
85.00,99.17,1
84.00,96.45,1
48.00,93.67,1
55.00,90.41,1
100.00,87.06,1
256.00,85.87,1
50.00,87.65,1
72.00,89.64,1
56.00,90.25,1
319.00,91.90,1
113.00,96.77,1
50.00,102.20,1
135.00,105.81,1
65.00,108.23,1
109.00,109.58,1
163.00,110.67,1
60.00,111.93,1
133.00,112.62,1
113.00,113.06,1
187.00,114.17,1
55.00,115.71,1
49.00,115.92,1
55.00,113.93,1
109.00,110.87,1
44.00,107.49,1
92.00,103.76,1
90.00,100.12,1
209.00,98.02,1
46.00,97.77,1
231.00,98.77,1
86.00,101.18,1
49.00,103.41,1
59.00,103.68,1
47.00,102.22,1
196.00,100.61,1
42.00,100.05,1
198.00,100.27,1
62.00,101.26,1
79.00,101.97,1
93.00,101.73,1
152.00,101.63,1
95.00,102.27,1
53.00,102.63,1
46.00,101.56,1
95.00,99.36,1
119.00,97.34,1
169.00,96.74,1
120.00,97.87,1
64.00,99.41,1
38.00,99.65,1
203.00,99.36,1
100.00,100.38,1
108.00,102.07,1
155.00,103.88,1
37.00,105.58,1
59.00,105.75,1
138.00,104.77,1
40.00,103.67,1
182.00,102.70,1
78.00,102.58,1
67.00,102.44,1
130.00,101.77,1
71.00,101.19,1
164.00,101.01,1
183.00,102.34,1
55.00,104.83,1
45.00,106.05,1
49.00,105.06,1
70.00,102.57,1
77.00,99.49,1
192.00,97.29,1
122.00,97.24,1
167.00,98.99,1
40.00,101.15,1
58.00,101.97,1
102.00,101.34,1
98.00,100.49,1
192.00,100.58,1
55.00,101.75,1
62.00,102.29,1
272.00,103.05,1
43.00,105.57,1
141.00,108.13,1
40.00,109.51,1
44.00,109.11,1
62.00,106.77,1
111.00,103.76,1
143.00,101.58,1
137.00,100.97,1
162.00,101.96,1
60.00,103.65,1
61.00,104.34,1
57.00,103.39,1
49.00,101.09,1
92.00,98.04,1
133.00,95.50,1
145.00,94.57,1
51.00,94.66,1
173.00,95.08,1
68.00,96.10,1
164.00,97.60,1
128.00,99.86,1
63.00,102.26,1
76.00,103.42,1
74.00,103.26,1
108.00,102.47,1
40.00,101.21,1
135.00,99.58,1
46.00,97.99,1
65.00,95.95,1
78.00,93.31,1
77.00,90.69,1
56.00,88.07,1
70.00,85.31,1
61.00,82.51,1
39.00,79.56,1
53.00,76.27,1
54.00,72.89,1
92.00,70.01,1
101.00,68.30,1
59.00,67.68,1
233.00,68.71,1
85.00,72.29,1
120.00,76.97,1
108.00,81.56,1
141.00,86.29,1
99.00,91.09,1
49.00,94.93,1
54.00,96.78,1
105.00,97.13,1
74.00,96.97,1
76.00,96.36,1
119.00,95.57,1
270.00,96.64,1
64.00,100.26,1
60.00,103.48,1
47.00,104.40,1
67.00,103.47,1
107.00,101.70,1
127.00,100.36,1
66.00,99.56,1
72.00,98.38,1
97.00,96.77,1
49.00,94.96,1
47.00,92.43,1
43.00,88.99,1
121.00,85.53,1
117.00,83.39,1
125.00,83.00,1
59.00,83.48,1
40.00,83.43,1
113.00,82.70,1
82.00,82.30,1
74.00,82.17,1
61.00,81.76,1
251.00,82.44,1
84.00,85.59,1
48.00,89.03,1
77.00,90.82,1
44.00,91.20,1
54.00,90.26,1
141.00,88.98,1
98.00,88.66,1
38.00,88.58,1
293.00,89.46,1
138.00,93.47,1
57.00,98.63,1
88.00,102.09,1
106.00,104.15,1
234.00,106.70,1
66.00,110.42,1
58.00,113.09,1
77.00,113.52,1
95.00,112.63,1
164.00,111.79,1
61.00,111.45,1
101.00,110.71,1
67.00,109.21,1
74.00,107.02,1
46.00,103.95,1
43.00,99.91,1
57.00,95.10,1
46.00,89.98,1
64.00,84.86,1
67.00,80.16,1
46.00,75.96,1
51.00,71.98,1
349.00,70.68,1
120.00,74.57,1
69.00,80.53,1
64.00,85.06,1
35.00,87.61,1
213.00,89.52,1
56.00,92.30,1
80.00,94.70,1
107.00,96.06,1
95.00,97.13,1
123.00,98.21,1
62.00,99.11,1
54.00,98.99,1
90.00,97.78,1
187.00,97.11,1
52.00,97.67,1
171.00,98.69,1
87.00,100.18,1
36.00,101.15,1
96.00,100.65,1
75.00,99.45,1
53.00,97.70,1
238.00,96.60,1
66.00,97.51,1
187.00,99.58,1
90.00,102.24,1
44.00,104.28,1
38.00,104.16,1
55.00,102.07,1
56.00,98.80,1
76.00,95.04,1
39.00,91.08,1
63.00,86.85,1
63.00,82.65,1
89.00,79.03,1
58.00,76.13,1
75.00,73.72,1
304.00,73.70,1
70.00,77.51,1
180.00,83.00,1
38.00,88.30,1
93.00,92.28,1
56.00,94.58,1
53.00,95.32,1
55.00,94.53,1
66.00,92.68,1
155.00,91.04,1
164.00,91.25,1
185.00,93.94,1
41.00,97.65,1
46.00,99.82,1
69.00,99.80,1
40.00,98.34,1
64.00,95.73,1
56.00,92.43,1
37.00,88.61,1
132.00,84.94,1
257.00,84.00,1
68.00,86.44,1
57.00,89.16,1
56.00,90.22,1
71.00,90.01,1
83.00,89.18,1
55.00,88.02,1
39.00,86.13,1
84.00,83.62,1
51.00,81.08,1
73.00,78.61,1
44.00,76.12,1
60.00,73.53,1
74.00,71.10,1
70.00,69.20,1
108.00,68.13,1
81.00,68.10,1
51.00,68.48,1
62.00,68.53,1
50.00,68.16,1
101.00,67.80,1
167.00,68.76,1
101.00,71.63,1
53.00,74.94,1
50.00,77.10,1
54.00,77.89,1
121.00,78.22,1
77.00,78.98,1
92.00,79.97,1
265.00,82.44,1
69.00,87.32,1
71.00,92.06,1
80.00,95.03,1
82.00,96.73,1
63.00,97.35,1
77.00,96.96,1
91.00,96.00,1
44.00,94.59,1
38.00,92.18,1
62.00,88.80,1
86.00,85.33,1
63.00,82.34,1
37.00,79.39,1
78.00,76.29,1
69.00,73.58,1
84.00,71.57,1
132.00,70.75,1
129.00,71.74,1
109.00,74.26,1
126.00,77.65,1
66.00,81.18,1
66.00,83.86,1
79.00,85.40,1
35.00,85.89,1
91.00,85.39,1
61.00,84.47,1
107.00,83.63,1
68.00,83.07,1
134.00,83.02,1
46.00,83.39,1
65.00,83.31,1
66.00,82.50,1
57.00,81.25,1
238.00,81.09,1
61.00,83.18,1
52.00,85.42,1
61.00,86.18,1
65.00,85.88,1
90.00,85.13,1
46.00,84.15,1
84.00,82.81,1
137.00,81.97,1
35.00,81.87,1
76.00,81.42,1
52.00,80.36,1
67.00,78.94,1
123.00,77.81,1
38.00,77.28,1
60.00,76.46,1
42.00,74.96,1
121.00,73.53,1
110.00,73.27,1
82.00,74.15,1
55.00,75.08,1
65.00,75.43,1
130.00,75.81,1
61.00,76.79,1
72.00,77.67,1
130.00,78.54,1
119.00,80.35,1
49.00,82.52,1
151.00,84.49,1
68.00,86.65,1
99.00,88.63,1
95.00,90.18,1
56.00,91.22,1
56.00,91.17,1
84.00,90.20,1
79.00,88.97,1
66.00,87.65,1
144.00,86.68,1
173.00,87.46,1
120.00,90.21,1
70.00,93.31,1
76.00,95.35,1
63.00,96.10,1
46.00,95.55,1
72.00,93.84,1
134.00,92.11,1
62.00,91.08,1
88.00,90.14,1
68.00,88.98,1
96.00,87.79,1
53.00,86.58,1
64.00,84.98,1
36.00,82.76,1
70.00,80.02,1
73.00,77.36,1
140.00,75.72,1
113.00,75.81,1
110.00,77.32,1
42.00,79.01,1
60.00,79.78,1
50.00,79.48,1
43.00,78.28,1
67.00,76.46,1
38.00,74.33,1
115.00,72.38,1
135.00,71.84,1
157.00,73.54,1
66.00,76.67,1
48.00,79.31,1
47.00,80.40,1
55.00,80.20,1
94.00,79.46,1
74.00,78.89,1
65.00,78.39,1
92.00,77.87,1
51.00,77.37,1
40.00,76.37,1
49.00,74.57,1
78.00,72.53,1
167.00,71.65,1
40.00,72.37,1
80.00,73.23,1
106.00,73.99,1
85.00,75.24,1
103.00,76.84,1
84.00,78.61,1
38.00,79.91,1
105.00,80.44,1
88.00,80.96,1
108.00,81.90,1
136.00,83.55,1
37.00,85.49,1
78.00,86.51,1
64.00,86.55,1
77.00,86.05,1
229.00,86.51,1
46.00,88.79,1
79.00,90.89,1
168.00,92.56,1
107.00,95.09,1
73.00,97.62,1
155.00,99.70,1
38.00,101.46,1
115.00,102.30,1
192.00,103.35,1
151.00,106.12,1
196.00,110.44,1
130.00,115.65,1
82.00,120.23,1
116.00,123.12,1
123.00,124.85,1
61.00,125.53,1
118.00,124.89,1
89.00,123.46,1
85.00,121.44,1
87.00,118.76,1
44.00,115.31,1
38.00,110.62,1
119.00,105.37,1
170.00,101.58,1
60.00,99.66,1
77.00,97.93,1
41.00,95.48,1
112.00,92.69,1
54.00,90.14,1
133.00,88.14,1
166.00,87.74,1
68.00,88.95,1
100.00,90.25,1
48.00,90.86,1
127.00,90.98,1
258.00,92.70,1
202.00,97.99,1
74.00,104.85,1
139.00,110.63,1
132.00,115.37,1
42.00,118.83,1
67.00,119.87,1
43.00,118.49,1
48.00,115.16,1
94.00,110.76,1
41.00,106.03,1
49.00,100.77,1
56.00,95.06,1
84.00,89.60,1
74.00,84.95,1
97.00,81.33,1
70.00,78.68,1
110.00,76.94,1
47.00,75.86,1
112.00,75.15,1
44.00,74.72,1
42.00,73.92,1
64.00,72.46,1
75.00,70.98,1
139.00,70.44,1
102.00,71.47,1
99.00,73.55,1
64.00,75.72,1
140.00,77.89,1
75.00,80.43,1
44.00,82.46,1
90.00,83.37,1
34.00,83.43,1
87.00,82.73,1
105.00,82.05,1
132.00,82.36,1
74.00,83.56,1
127.00,85.07,1
92.00,86.87,1
58.00,88.42,1
45.00,88.77,1
41.00,87.66,1
68.00,85.53,1
88.00,83.26,1
53.00,81.25,1
60.00,79.13,1
60.00,76.81,1
94.00,74.78,1
102.00,73.66,1
35.00,73.12,1
49.00,72.11,1
85.00,70.76,1
106.00,70.08,1
45.00,70.08,1
99.00,70.19,1
49.00,70.37,1
127.00,70.87,1
82.00,72.09,1
39.00,73.36,1
86.00,73.94,1
39.00,74.00,1
75.00,73.57,1
67.00,72.93,1
40.00,72.09,1
56.00,70.74,1
58.00,69.11,1
42.00,67.36,1
38.00,65.28,1
58.00,63.00,1
133.00,61.56,1
142.00,62.29,1
53.00,64.68,1
58.00,66.89,1
118.00,68.73,1
134.00,71.39,1
40.00,74.58,1
63.00,76.82,1
36.00,77.66,1
126.00,77.87,1
122.00,78.86,1
44.00,80.43,1
251.00,82.78,1
74.00,86.97,1
36.00,90.87,1
78.00,92.69,1
75.00,93.21,1
60.00,92.90,1
100.00,92.02,1
66.00,91.00,1
71.00,89.72,1
48.00,87.89,1
84.00,85.66,1
86.00,83.63,1
35.00,81.73,1
49.00,79.27,1
93.00,76.65,1
57.00,74.54,1
43.00,72.53,1
44.00,70.15,1
68.00,67.67,1
134.00,66.14,1
47.00,65.97,1
80.00,66.21,1
69.00,66.48,1
66.00,66.84,1
128.00,67.62,1
62.00,69.16,1
42.00,70.47,1
120.00,71.33,1
39.00,72.28,1
129.00,73.32,1
153.00,75.42,1
36.00,78.42,1
40.00,80.29,1
85.00,80.72,1
38.00,80.42,1
110.00,79.77,1
130.00,79.85,1
62.00,80.84,1
115.00,81.98,1
75.00,83.17,1
50.00,83.92,1
63.00,83.68,1
45.00,82.54,1
67.00,80.76,1
107.00,79.11,1
36.00,77.85,1
301.00,78.31,1
147.00,82.65,1
97.00,88.95,1
153.00,94.88,1
47.00,99.97,1
113.00,103.50,1
75.00,105.65,1
59.00,106.43,1
84.00,105.79,1
140.00,104.84,1
82.00,104.34,1
36.00,103.32,1
35.00,100.68,1
67.00,96.76,1
67.00,92.52,1
56.00,88.37,1
45.00,84.15,1
40.00,79.69,1
57.00,75.15,1
123.00,71.52,1
40.00,69.24,1
106.00,67.77,1
59.00,66.99,1
102.00,66.89,1
59.00,67.26,1
44.00,67.51,1
103.00,67.52,1
59.00,67.86,1
125.00,68.73,1
58.00,70.17,1
38.00,71.24,1
44.00,71.17,1
105.00,70.67,1
139.00,71.20,1
167.00,73.80,1
52.00,77.68,1
96.00,81.10,1
97.00,83.83,1
38.00,85.85,1
58.00,86.43,1
74.00,85.90,1
52.00,84.79,1
109.00,83.51,1
68.00,82.57,1
61.00,81.65,1
226.00,81.70,1
81.00,83.97,1
86.00,86.83,1
140.00,89.39,1
62.00,91.91,1
42.00,93.32,1
79.00,93.16,1
95.00,92.40,1
43.00,91.34,1
73.00,89.62,1
85.00,87.61,1
46.00,85.58,1
73.00,83.27,1
40.00,80.67,1
115.00,78.25,1
215.00,77.83,1
37.00,79.75,1
67.00,81.52,1
79.00,82.23,1
56.00,82.37,1
60.00,81.82,1
66.00,80.70,1
114.00,79.70,1
68.00,79.31,1
80.00,79.12,1
38.00,78.55,1
53.00,77.24,1
127.00,75.94,1
140.00,76.14,1
67.00,77.71,1
272.00,80.85,1
133.00,86.72,1
99.00,93.60,1
76.00,99.10,1
160.00,103.39,1
196.00,108.15,1
49.00,113.16,1
66.00,116.21,1
128.00,117.23,1
42.00,117.13,1
106.00,115.82,1
134.00,114.19,1
76.00,112.90,1
97.00,111.35,1
152.00,109.97,1
81.00,109.28,1
84.00,108.43,1
231.00,108.17,1
219.00,110.72,1
88.00,115.28,1
149.00,119.43,1
62.00,122.34,1
247.00,124.81,1
166.00,128.54,1
125.00,132.94,1
72.00,135.92,1
149.00,137.13,1
62.00,137.09,1
131.00,135.84,1
305.00,135.60,1
121.00,138.07,1
361.00,142.92,1
42.00,149.20,1
117.00,153.69,1
45.00,154.69,1
155.00,153.31,1
37.00,150.41,1
132.00,146.24,1
76.00,141.33,1
143.00,136.46,1
104.00,132.10,1
160.00,128.64,1
100.00,126.10,1
216.00,124.75,1
279.00,126.37,1
191.00,131.40,1
89.00,137.06,1
190.00,141.46,1
127.00,145.05,1
191.00,148.23,1
230.00,151.85,1
114.00,155.93,1
122.00,158.65,1
199.00,160.08,1
269.00,162.42,1
50.00,165.32,1
109.00,166.02,1
141.00,164.43,1
129.00,162.08,1
61.00,158.74,1
62.00,153.53,1
154.00,147.30,1
43.00,141.11,1
79.00,134.38,1
85.00,127.16,1
151.00,120.78,1
210.00,116.87,1
207.00,116.48,1
148.00,118.74,1
115.00,121.63,1
87.00,123.66,1
58.00,123.95,1
311.00,124.33,1
55.00,126.59,1
77.00,128.23,1
72.00,127.54,1
64.00,125.15,1
292.00,123.26,1
51.00,123.53,1
106.00,123.79,1
55.00,122.52,1
235.00,121.23,1
107.00,121.47,1
97.00,122.15,1
85.00,121.81,1
64.00,120.27,1
153.00,118.14,1
146.00,116.89,1
97.00,116.56,1
56.00,115.73,1
92.00,113.73,1
56.00,110.90,1
123.00,107.78,1
111.00,105.26,1
86.00,103.43,1
206.00,102.67,1
120.00,103.80,1
132.00,106.03,1
89.00,108.12,1
60.00,109.19,1
59.00,108.59,1
62.00,106.52,1
72.00,103.54,1
99.00,100.36,1
98.00,97.66,1
218.00,96.63,1
75.00,97.72,1
64.00,98.90,1
38.00,98.50,1
126.00,97.13,1
193.00,96.87,1
129.00,98.77,1
62.00,101.20,1
78.00,102.44,1
242.00,103.80,1
102.00,106.90,1
60.00,109.90,1
131.00,111.47,1
146.00,112.84,1
48.00,114.05,1
49.00,113.59,1
67.00,111.25,1
43.00,107.64,1
56.00,103.05,1
51.00,97.86,1
55.00,92.43,1
52.00,87.01,1
270.00,83.57,1
35.00,83.42,1
239.00,85.33,1
85.00,88.92,1
83.00,92.79,1
113.00,95.67,1
144.00,98.44,1
137.00,101.76,1
197.00,106.00,1
170.00,111.53,1
186.00,118.04,1
40.00,123.89,1
134.00,127.55,1
71.00,129.22,1
110.00,129.42,1
47.00,128.07,1
58.00,124.97,1
54.00,120.26,1
129.00,115.15,1
41.00,110.38,1
250.00,106.91,1
97.00,106.01,1
490.00,109.54,1
125.00,118.63,1
69.00,128.31,1
73.00,134.20,1
68.00,136.59,1
81.00,136.28,1
63.00,133.95,1
37.00,129.76,1
42.00,123.73,1
224.00,117.90,1
63.00,114.15,1
127.00,111.48,1
46.00,108.76,1
101.00,105.75,1
78.00,102.65,1
40.00,99.35,1
63.00,95.38,1
64.00,91.10,1
109.00,87.31,1
38.00,84.19,1
118.00,81.54,1
137.00,80.23,1
73.00,80.41,1
35.00,80.52,1
109.00,80.01,1
198.00,80.70,1
45.00,83.11,1
62.00,85.08,1
81.00,85.82,1
55.00,85.85,1
91.00,85.36,1
85.00,84.82,1
56.00,84.23,1
52.00,83.05,1
117.00,81.69,1
172.00,81.75,1
103.00,83.79,1
112.00,86.62,1
65.00,89.15,1
40.00,90.45,1
90.00,90.37,1
172.00,90.58,1
50.00,91.74,1
54.00,92.29,1
91.00,91.71,1
65.00,90.72,1
109.00,89.69,1
165.00,89.65,1
37.00,90.60,1
37.00,90.60,1
129.00,89.58,1
65.00,88.82,1
136.00,88.58,1
88.00,88.98,1
65.00,89.46,1
54.00,89.10,1
168.00,88.70,1
67.00,89.24,1
51.00,89.61,1
138.00,89.48,1
65.00,89.65,1
48.00,89.43,1
113.00,88.56,1
81.00,87.91,1
79.00,87.43,1
65.00,86.68,1
137.00,86.11,1
60.00,86.13,1
45.00,85.78,1
45.00,84.30,1
60.00,81.99,1
132.00,79.98,1
43.00,78.85,1
95.00,77.97,1
63.00,77.16,1
39.00,76.15,1
154.00,75.30,1
49.00,75.43,1
69.00,75.69,1
69.00,75.51,1
204.00,76.26,1
51.00,78.70,1
61.00,80.98,1
62.00,81.98,1
48.00,81.94,1
107.00,81.40,1
43.00,80.82,1
108.00,80.19,1
119.00,80.19,1
171.00,81.83,1
182.00,85.68,1
45.00,90.57,1
51.00,93.95,1
66.00,95.17,1
55.00,94.93,1
169.00,94.45,1
63.00,94.73,1
59.00,94.74,1
44.00,93.47,1
59.00,91.11,1
101.00,88.48,1
66.00,86.26,1
88.00,84.37,1
117.00,83.11,1
74.00,82.69,1
110.00,82.74,1
36.00,82.77,1
58.00,82.03,1
63.00,80.53,1
64.00,78.78,1
143.00,77.60,1
208.00,78.77,1
117.00,82.67,1
48.00,86.96,1
55.00,89.56,1
206.00,91.58,1
96.00,94.75,1
111.00,98.24,1
115.00,101.22,1
62.00,103.47,1
238.00,105.69,1
94.00,109.12,1
47.00,112.03,1
71.00,112.67,1
64.00,111.51,1
71.00,109.16,1
62.00,105.98,1
77.00,102.31,1
41.00,98.24,1
206.00,94.93,1
121.00,94.01,1
39.00,94.23,1
60.00,93.42,1
127.00,92.07,1
114.00,91.53,1
158.00,92.33,1
34.00,93.73,1
94.00,94.33,1
77.00,94.14,1
60.00,93.43,1
100.00,92.25,1
125.00,91.48,1
57.00,91.25,1
76.00,90.66,1
61.00,89.44,1
94.00,87.96,1
52.00,86.42,1
72.00,84.62,1
64.00,82.60,1
122.00,80.99,1
151.00,80.89,1
79.00,82.32,1
66.00,83.79,1
82.00,84.57,1
149.00,85.49,1
51.00,86.94,1
52.00,87.67,1
49.00,87.01,1
124.00,85.90,1
52.00,85.09,1
42.00,83.90,1
171.00,82.76,1
91.00,83.08,1
79.00,84.15,1
84.00,84.93,1
90.00,85.50,1
57.00,85.76,1
38.00,85.12,1
75.00,83.53,1
90.00,81.85,1
154.00,81.26,1
102.00,82.27,1
138.00,84.42,1
42.00,86.74,1
179.00,88.95,1
45.00,91.37,1
187.00,93.96,1
97.00,97.08,1
99.00,100.21,1
177.00,103.19,1
76.00,106.41,1
49.00,108.46,1
65.00,108.41,1
47.00,106.64,1
230.00,104.98,1
94.00,105.23,1
126.00,106.45,1
435.00,110.33,1
254.00,120.01,1
35.00,131.51,1
84.00,139.26,1
41.00,142.55,1
102.00,142.53,1
150.00,141.05,1
62.00,139.09,1
77.00,135.90,1
50.00,131.17,1
95.00,125.48,1
110.00,119.90,1
104.00,115.17,1
160.00,111.71,1
53.00,109.34,1
109.00,107.03,1
61.00,104.47,1
69.00,101.55,1
82.00,98.30,1
74.00,95.11,1
79.00,92.09,1
52.00,89.10,1
57.00,85.86,1
59.00,82.42,1
85.00,79.23,1
90.00,76.82,1
43.00,75.00,1
38.00,72.90,1
59.00,70.36,1
76.00,68.01,1
151.00,66.97,1
36.00,67.38,1
109.00,68.20,1
68.00,69.24,1
49.00,70.17,1
75.00,70.55,1
65.00,70.68,1
127.00,71.19,1
76.00,72.50,1
96.00,74.20,1
38.00,75.56,1
52.00,75.95,1
53.00,75.34,1
44.00,74.06,1
86.00,72.51,1
67.00,71.27,1
260.00,71.94,1
84.00,75.62,1
60.00,79.95,1
42.00,82.61,1
58.00,83.58,1
133.00,83.96,1
66.00,84.70,1
41.00,84.98,1
164.00,84.96,1
36.00,85.49,1
195.00,86.63,1
131.00,89.24,1
42.00,92.39,1
136.00,94.63,1
65.00,96.33,1
97.00,97.44,1
59.00,97.69,1
40.00,96.74,1
180.00,95.46,1
136.00,95.76,1
108.00,97.48,1
35.00,98.76,1
59.00,98.43,1
49.00,96.56,1
98.00,94.05,1
164.00,92.41,1
37.00,91.95,1
88.00,91.25,1
167.00,90.85,1
46.00,91.40,1
75.00,91.55,1
142.00,91.44,1
71.00,91.88,1
74.00,92.14,1
68.00,91.66,1
50.00,90.41,1
80.00,88.52,1
39.00,86.21,1
62.00,83.42,1
57.00,80.36,1
56.00,77.29,1
127.00,74.85,1
72.00,73.68,1
56.00,73.06,1
78.00,72.33,1
106.00,72.02,1
130.00,72.88,1
44.00,74.52,1
70.00,75.68,1
41.00,75.91,1
59.00,75.32,1
54.00,74.14,1
97.00,72.97,1
140.00,72.87,1
80.00,74.18,1
150.00,76.46,1
87.00,79.52,1
53.00,82.34,1
66.00,83.89,1
99.00,84.65,1
55.00,85.06,1
86.00,85.00,1
96.00,84.82,1
43.00,84.52,1
59.00,83.50,1
41.00,81.62,1
45.00,79.02,1
110.00,76.42,1
56.00,74.58,1
161.00,73.88,1
94.00,74.82,1
78.00,76.59,1
98.00,78.29,1
71.00,79.84,1
66.00,80.91,1
72.00,81.31,1
174.00,82.11,1
55.00,83.93,1
49.00,85.29,1
50.00,85.18,1
78.00,84.16,1
47.00,82.68,1
125.00,81.27,1
62.00,80.49,1
121.00,80.30,1
127.00,81.06,1
136.00,83.18,1
42.00,85.70,1
80.00,87.26,1
64.00,87.77,1
138.00,88.11,1
39.00,88.59,1
58.00,88.30,1
47.00,86.82,1
110.00,84.99,1
43.00,83.34,1
40.00,81.29,1
80.00,78.69,1
86.00,76.49,1
42.00,74.71,1
60.00,72.79,1
38.00,70.58,1
62.00,68.20,1
40.00,65.80,1
55.00,63.42,1
61.00,61.27,1
40.00,59.40,1
69.00,57.75,1
134.00,57.17,1
40.00,57.96,1
90.00,59.16,1
47.00,60.33,1
37.00,61.04,1
65.00,61.10,1
42.00,60.85,1
60.00,60.37,1
181.00,60.85,1
163.00,64.06,1
110.00,69.51,1
41.00,74.87,1
80.00,78.70,1
75.00,81.29,1
38.00,82.77,1
62.00,82.92,1
68.00,82.19,1
82.00,81.23,1
167.00,81.12,1
41.00,82.13,1
38.00,82.56,1
116.00,82.08,1
84.00,81.93,1
106.00,82.33,1
210.00,84.11,1
151.00,88.27,1
221.00,94.59,1
145.00,102.39,1
98.00,109.97,1
38.00,115.24,1
191.00,118.45,1
559.00,125.11,1
42.00,137.21,1
63.00,147.70,1
127.00,153.19,1
146.00,156.14,1
194.00,158.28,1
137.00,160.22,1
94.00,161.05,1
72.00,159.63,1
67.00,155.79,1
72.00,150.02,1
117.00,143.40,1
115.00,137.10,1
51.00,131.06,1
59.00,124.43,1
124.00,117.69,1
60.00,111.71,1
63.00,106.01,1
58.00,100.19,1
125.00,94.97,1
202.00,92.09,1
70.00,91.81,1
84.00,92.09,1
94.00,91.99,1
50.00,91.53,1
247.00,91.80,1
92.00,94.26,1
47.00,96.97,1
113.00,98.28,1
187.00,99.84,1
95.00,102.55,1
60.00,104.83,1
98.00,105.68,1
59.00,105.42,1
64.00,104.05,1
80.00,101.77,1
93.00,99.29,1
93.00,97.09,1
38.00,94.82,1
77.00,91.99,1
129.00,89.46,1
79.00,88.00,1
96.00,87.15,1
57.00,86.33,1
99.00,85.41,1
44.00,84.36,1
118.00,83.29,1
96.00,82.83,1
106.00,83.18,1
91.00,83.99,1
220.00,86.04,1
97.00,89.95,1
64.00,93.91,1
38.00,95.98,1
50.00,95.95,1
58.00,94.35,1
130.00,92.46,1
66.00,91.13,1
65.00,89.81,1
138.00,88.60,1
107.00,88.46,1
92.00,89.11,1
41.00,89.40,1
187.00,89.65,1
71.00,90.91,1
156.00,92.88,1
84.00,95.17,1
236.00,98.41,1
82.00,102.90,1
69.00,106.78,1
173.00,109.44,1
57.00,111.74,1
154.00,113.44,1
72.00,114.59,1
99.00,114.96,1
187.00,115.21,1
48.00,115.91,1
101.00,115.77,1
94.00,114.68,1
159.00,113.76,1
54.00,113.15,1
127.00,112.21,1
40.00,110.65,1
36.00,107.81,1
85.00,103.73,1
76.00,99.53,1
43.00,95.35,1
95.00,91.14,1
252.00,88.94,1
173.00,90.76,1
278.00,96.42,1
238.00,105.55,1
161.00,116.60,1
87.00,126.49,1
180.00,134.08,1
109.00,140.00,1
44.00,143.50,1
171.00,144.45,1
97.00,144.37,1
66.00,143.08,1
322.00,141.93,1
129.00,143.33,1
39.00,144.78,1
71.00,143.38,1
206.00,140.75,1
96.00,138.89,1
89.00,136.90,1
53.00,133.54,1
192.00,129.77,1
127.00,127.30,1
146.00,126.10,1
131.00,125.57,1
40.00,124.71,1
108.00,122.57,1
36.00,119.30,1
63.00,114.87,1
406.00,112.40,1
47.00,114.45,1
327.00,119.08,1
140.00,125.65,1
113.00,132.45,1
134.00,137.37,1
131.00,140.78,1
207.00,143.70,1
70.00,146.26,1
110.00,147.12,1
76.00,145.94,1
48.00,142.77,1
159.00,138.35,1
138.00,134.58,1
211.00,132.62,1
45.00,131.75,1
210.00,130.96,1
55.00,130.32,1
41.00,128.52,1
138.00,125.16,1
38.00,121.40,1
98.00,117.11,1
52.00,112.33,1
37.00,106.95,1
43.00,100.72,1
156.00,94.96,1
53.00,90.82,1
52.00,87.27,1
157.00,84.28,1
77.00,82.90,1
130.00,82.75,1
56.00,83.16,1
39.00,83.04,1
231.00,83.22,1
82.00,85.43,1
43.00,87.91,1
49.00,88.68,1
123.00,88.51,1
237.00,89.87,1
163.00,94.22,1
140.00,100.23,1
127.00,106.20,1
88.00,111.21,1
44.00,114.20,1
114.00,115.06,1
320.00,116.81,1
90.00,121.27,1
37.00,125.08,1
54.00,125.62,1
79.00,123.74,1
44.00,120.30,1
65.00,115.63,1
56.00,110.16,1
48.00,104.21,1
100.00,98.32,1
39.00,92.97,1
122.00,88.31,1
218.00,85.99,1
105.00,86.88,1
110.00,89.14,1
87.00,91.31,1
36.00,92.58,1
63.00,92.32,1
207.00,92.11,1
66.00,93.42,1
42.00,94.47,1
76.00,94.02,1
203.00,93.86,1
138.00,95.77,1
50.00,98.42,1
40.00,99.47,1
110.00,98.96,1
42.00,97.79,1
86.00,95.97,1
60.00,93.68,1
70.00,91.12,1
102.00,88.65,1
44.00,86.47,1
38.00,83.84,1
55.00,80.51,1
72.00,77.12,1
69.00,74.22,1
88.00,72.02,1
38.00,70.32,1
44.00,68.41,1
66.00,66.29,1
102.00,64.78,1
106.00,64.61,1
48.00,65.33,1
54.00,65.84,1
53.00,65.78,1
58.00,65.36,1
119.00,65.26,1
140.00,66.65,1
40.00,69.13,1
85.00,71.25,1
84.00,72.94,1
114.00,74.85,1
44.00,76.77,1
71.00,77.95,1
67.00,78.36,1
41.00,78.12,1
48.00,76.97,1
60.00,75.18,1
109.00,73.63,1
50.00,72.73,1
72.00,71.96,1
65.00,71.14,1
100.00,70.66,1
61.00,70.66,1
64.00,70.69,1
80.00,70.59,1
176.00,71.50,1
92.00,74.16,1
92.00,77.48,1
61.00,80.23,1
39.00,81.76,1
78.00,82.01,1
104.00,81.96,1
80.00,82.24,1
136.00,83.04,1
98.00,84.64,1
95.00,86.58,1
45.00,87.95,1
75.00,88.22,1
106.00,87.99,1
130.00,88.36,1
57.00,89.22,1
84.00,89.63,1
40.00,89.16,1
68.00,87.76,1
175.00,86.70,1
32.00,86.75,1
118.00,86.87,1
76.00,86.94,1
35.00,86.63,1
35.00,85.01,1
105.00,82.71,1
45.00,80.63,1
106.00,78.87,1
133.00,78.15,1
79.00,78.76,1
41.00,79.35,1
44.00,78.88,1
40.00,77.31,1
154.00,75.85,1
54.00,75.57,1
77.00,75.67,1
73.00,75.56,1
48.00,75.22,1
36.00,74.16,1
106.00,72.77,1
57.00,71.83,1
91.00,71.31,1
83.00,71.22,1
40.00,71.25,1
68.00,70.82,1
51.00,70.04,1
68.00,69.09,1
131.00,68.72,1
60.00,69.39,1
46.00,70.07,1
156.00,70.81,1
63.00,72.50,1
41.00,74.07,1
71.00,74.58,1
49.00,74.42,1
71.00,73.82,1
185.00,74.03,1
73.00,76.00,1
108.00,78.61,1
56.00,80.84,1
42.00,82.03,1
62.00,81.88,1
38.00,80.73,1
55.00,78.78,1
55.00,76.36,1
64.00,73.89,1
78.00,71.73,1
41.00,69.87,1
101.00,68.31,1
65.00,67.42,1
41.00,66.76,1
103.00,66.12,1
56.00,65.95,1
50.00,65.84,1
34.00,65.14,1
67.00,63.98,1
78.00,63.02,1
55.00,62.50,1
61.00,62.10,1
36.00,61.50,1
44.00,60.48,1
60.00,59.22,1
39.00,57.99,1
120.00,57.26,1
132.00,58.22,1
102.00,61.04,1
41.00,64.30,1
104.00,67.02,1
48.00,69.33,1
133.00,71.55,1
70.00,74.04,1
49.00,76.15,1
55.00,77.08,1
386.00,79.75,1
65.00,86.53,1
45.00,93.47,1
81.00,97.59,1
96.00,99.99,1
63.00,101.27,1
54.00,101.18,1
112.00,100.10,1
76.00,98.90,1
66.00,97.44,1
120.00,95.82,1
79.00,94.60,1
38.00,93.16,1
74.00,90.87,1
35.00,87.96,1
50.00,84.43,1
49.00,80.46,1
100.00,76.84,1
67.00,74.17,1
52.00,72.05,1
41.00,69.81,1
121.00,67.90,1
64.00,67.09,1
47.00,66.70,1
89.00,66.24,1
59.00,66.05,1
94.00,66.21,1
35.00,66.48,1
57.00,66.31,1
57.00,65.68,1
59.00,64.93,1
67.00,64.21,1
44.00,63.50,1
40.00,62.47,1
66.00,61.19,1
43.00,59.97,1
66.00,58.86,1
67.00,58.08,1
40.00,57.55,1
68.00,57.01,1
55.00,56.64,1
61.00,56.45,1
174.00,57.34,1
38.00,59.83,1
57.00,62.29,1
57.00,63.83,1
93.00,65.06,1
74.00,66.47,1
60.00,67.83,1
70.00,68.80,1
71.00,69.51,1
44.00,69.86,1
113.00,70.06,1
66.00,70.69,1
63.00,71.37,1
95.00,71.90,1
67.00,72.58,1
51.00,73.00,1
45.00,72.68,1
114.00,72.14,1
54.00,72.04,1
40.00,71.76,1
44.00,70.63,1
141.00,69.66,1
81.00,69.98,1
86.00,71.14,1
50.00,72.17,1
80.00,72.77,1
53.00,72.98,1
127.00,73.33,1
83.00,74.39,1
55.00,75.61,1
45.00,76.00,1
53.00,75.42,1
38.00,74.05,1
75.00,72.23,1
70.00,70.60,1
46.00,69.18,1
161.00,68.49,1
85.00,69.47,1
41.00,70.98,1
55.00,71.62,1
38.00,71.30,1
65.00,70.31,1
72.00,69.22,1
122.00,68.85,1
84.00,69.59,1
72.00,70.85,1
70.00,71.92,1
70.00,72.69,1
148.00,73.83,1
60.00,75.78,1
65.00,77.52,1
50.00,78.25,1
208.00,79.30,1
36.00,81.63,1
42.00,83.37,1
71.00,83.50,1
134.00,83.46,1
68.00,84.04,1
37.00,84.24,1
74.00,83.39,1
112.00,82.44,1
36.00,81.75,1
71.00,80.64,1
44.00,78.96,1
57.00,76.85,1
68.00,74.58,1
50.00,72.40,1
36.00,70.02,1
61.00,67.42,1
58.00,65.00,1
38.00,62.78,1
71.00,60.72,1
104.00,59.49,1
112.00,59.85,1
83.00,61.55,1
38.00,63.42,1
77.00,64.69,1
39.00,65.43,1
48.00,65.50,1
80.00,65.16,1
45.00,64.85,1
68.00,64.43,1
155.00,64.76,1
112.00,66.94,1
41.00,69.86,1
91.00,72.13,1
119.00,74.30,1
76.00,76.84,1
95.00,79.26,1
36.00,80.96,1
87.00,81.68,1
89.00,81.99,1
110.00,82.62,1
58.00,83.41,1
79.00,83.76,1
107.00,83.93,1
51.00,84.13,1
73.00,83.83,1
49.00,82.84,1
167.00,82.16,1
76.00,82.72,1
74.00,83.66,1
61.00,83.96,1
54.00,83.48,1
63.00,82.25,1
72.00,80.69,1
142.00,79.71,1
104.00,80.15,1
132.00,81.81,1
97.00,84.21,1
54.00,86.39,1
55.00,87.33,1
56.00,86.98,1
66.00,85.76,1
78.00,84.19,1
70.00,82.63,1
54.00,80.95,1
58.00,78.95,1
120.00,77.21,1
41.00,76.15,1
63.00,75.01,1
77.00,73.67,1
100.00,72.85,1
73.00,72.71,1
90.00,72.98,1
123.00,73.88,1
57.00,75.37,1
39.00,76.30,1
65.00,76.13,1
105.00,75.75,1
40.00,75.56,1
66.00,75.00,1
107.00,74.40,1
71.00,74.39,1
90.00,74.72,1
45.00,74.95,1
66.00,74.68,1
98.00,74.28,1
62.00,74.19,1
126.00,74.55,1
40.00,75.30,1
53.00,75.51,1
112.00,75.31,1
48.00,75.36,1
45.00,74.99,1
100.00,74.20,1
74.00,73.79,1
136.00,74.21,1
102.00,75.79,1
54.00,77.75,1
65.00,78.94,1
90.00,79.49,1
60.00,79.81,1
76.00,79.77,1
42.00,79.21,1
76.00,78.11,1
114.00,77.23,1
48.00,76.93,1
98.00,76.70,1
43.00,76.37,1
43.00,75.46,1
82.00,74.02,1
109.00,73.09,1
57.00,72.92,1
60.00,72.73,1
105.00,72.50,1
38.00,72.48,1
119.00,72.55,1
73.00,73.08,1
68.00,73.83,1
104.00,74.54,1
90.00,75.65,1
37.00,76.64,1
155.00,77.50,1
96.00,79.25,1
90.00,81.59,1
100.00,83.77,1
46.00,85.44,1
35.00,85.76,1
84.00,84.82,1
42.00,83.32,1
56.00,81.27,1
72.00,78.88,1
112.00,77.04,1
116.00,76.50,1
117.00,77.39,1
58.00,78.88,1
61.00,79.83,1
99.00,80.22,1
89.00,80.73,1
45.00,81.12,1
211.00,81.96,1
63.00,84.27,1
54.00,86.47,1
60.00,87.21,1
179.00,87.80,1
44.00,89.17,1
52.00,89.90,1
51.00,89.12,1
54.00,87.30,1
59.00,84.83,1
50.00,81.97,1
71.00,78.99,1
68.00,76.26,1
59.00,73.86,1
58.00,71.62,1
36.00,69.28,1
111.00,67.21,1
70.00,66.14,1
70.00,65.79,1
70.00,65.66,1
40.00,65.46,1
49.00,64.79,1
97.00,64.08,1
67.00,63.99,1
81.00,64.39,1
91.00,65.21,1
143.00,67.03,1
51.00,69.73,1
43.00,71.86,1
173.00,73.67,1
75.00,76.45,1
40.00,79.03,1
51.00,80.09,1
36.00,79.68,1
71.00,78.34,1
62.00,76.72,1
39.00,74.89,1
56.00,72.64,1
66.00,70.32,1
86.00,68.50,1
124.00,67.86,1
52.00,68.32,1
150.00,69.54,1
68.00,71.65,1
41.00,73.60,1
52.00,74.30,1
55.00,74.02,1
64.00,73.23,1
119.00,72.70,1
78.00,73.04,1
34.00,73.43,1
89.00,73.25,1
76.00,73.06,1
139.00,73.65,1
48.00,74.98,1
52.00,75.89,1
82.00,76.00,1
109.00,76.25,1
38.00,76.72,1
48.00,76.46,1
104.00,75.69,1
47.00,75.11,1
55.00,74.27,1
74.00,73.09,1
85.00,72.15,1
60.00,71.57,1
50.00,70.87,1
39.00,69.64,1
58.00,67.92,1
45.00,66.03,1
38.00,63.94,1
86.00,61.95,1
55.00,60.59,1
81.00,59.84,1
39.00,59.41,1
57.00,58.90,1
66.00,58.38,1
77.00,58.26,1
64.00,58.58,1
79.00,59.24,1
69.00,60.18,1
52.00,61.14,1
110.00,62.18,1
65.00,63.71,1
73.00,65.35,1
50.00,66.60,1
38.00,67.08,1
60.00,66.76,1
50.00,66.02,1
57.00,65.07,1
63.00,64.07,1
37.00,63.01,1
65.00,61.79,1
53.00,60.63,1
104.00,60.02,1
50.00,60.15,1
44.00,60.31,1
52.00,60.00,1
41.00,59.35,1
57.00,58.46,1
111.00,58.06,1
76.00,58.77,1
41.00,59.89,1
44.00,60.43,1
91.00,60.66,1
60.00,61.20,1
69.00,61.90,1
59.00,62.51,1
97.00,63.25,1
44.00,64.19,1
72.00,64.90,1
127.00,65.90,1
95.00,67.96,1
39.00,70.24,1
52.00,71.50,1
103.00,72.12,1
45.00,72.71,1
40.00,72.68,1
38.00,71.58,1
96.00,70.13,1
79.00,69.26,1
57.00,68.90,1
44.00,68.30,1
58.00,67.26,1
91.00,66.33,1
51.00,65.83,1
184.00,66.39,1
67.00,68.67,1
39.00,71.09,1
57.00,72.24,1
66.00,72.54,1
75.00,72.55,1
88.00,72.68,1
128.00,73.50,1
75.00,75.17,1
51.00,76.67,1
42.00,77.08,1
72.00,76.55,1
86.00,75.87,1
61.00,75.36,1
136.00,75.33,1
86.00,76.28,1
40.00,77.35,1
68.00,77.54,1
120.00,77.56,1
41.00,77.90,1
47.00,77.64,1
52.00,76.40,1
123.00,75.20,1
72.00,74.86,1
50.00,74.75,1
39.00,73.94,1
88.00,72.66,1
66.00,71.61,1
44.00,70.63,1
115.00,69.77,1
43.00,69.42,1
81.00,69.20,1
81.00,69.11,1
73.00,69.37,1
63.00,69.67,1
70.00,69.81,1
75.00,69.92,1
40.00,69.83,1
128.00,69.80,1
76.00,70.54,1
66.00,71.64,1
126.00,72.87,1
38.00,74.34,1
77.00,75.29,1
140.00,76.28,1
37.00,77.76,1
64.00,78.62,1
77.00,78.67,1
130.00,78.97,1
68.00,79.95,1
47.00,80.63,1
68.00,80.38,1
123.00,80.06,1
45.00,80.14,1
104.00,80.17,1
142.00,80.80,1
51.00,82.25,1
36.00,82.94,1
43.00,82.09,1
35.00,80.03,1
97.00,77.53,1
38.00,75.28,1
52.00,72.94,1
94.00,70.70,1
76.00,69.27,1
84.00,68.63,1
84.00,68.59,1
61.00,68.88,1
86.00,69.24,1
36.00,69.45,1
150.00,69.85,1
125.00,71.67,1
40.00,74.33,1
46.00,75.97,1
54.00,76.24,1
37.00,75.49,1
78.00,74.13,1
43.00,72.59,1
71.00,70.96,1
73.00,69.51,1
160.00,69.22,1
87.00,70.70,1
53.00,72.70,1
182.00,74.91,1
36.00,77.86,1
59.00,80.12,1
82.00,81.14,1
57.00,81.54,1
38.00,81.07,1
60.00,79.62,1
113.00,78.13,1
86.00,77.50,1
93.00,77.58,1
70.00,77.90,1
37.00,77.80,1
106.00,77.21,1
180.00,77.76,1
165.00,80.84,1
44.00,85.09,1
52.00,88.04,1
133.00,89.69,1
115.00,91.56,1
43.00,93.31,1
59.00,93.70,1
303.00,94.74,1
134.00,98.97,1
54.00,104.08,1
104.00,107.38,1
79.00,109.14,1
65.00,109.56,1
197.00,109.61,1
56.00,110.29,1
54.00,110.16,1
88.00,108.50,1
35.00,105.82,1
132.00,102.69,1
69.00,99.96,1
115.00,97.77,1
80.00,96.00,1
153.00,95.02,1
96.00,95.12,1
61.00,95.41,1
51.00,94.70,1
98.00,93.19,1
96.00,91.80,1
47.00,90.49,1
140.00,89.22,1
62.00,88.54,1
216.00,89.06,1
41.00,90.94,1
76.00,92.45,1
39.00,92.45,1
72.00,91.27,1
71.00,89.44,1
34.00,87.14,1
112.00,84.58,1
82.00,82.65,1
147.00,81.95,1
41.00,82.16,1
38.00,81.80,1
67.00,80.33,1
225.00,79.84,1
60.00,81.58,1
172.00,84.49,1
50.00,87.67,1
37.00,89.74,1
93.00,90.14,1
155.00,90.59,1
70.00,91.85,1
86.00,92.92,1
180.00,94.15,1
106.00,96.54,1
57.00,98.88,1
66.00,99.72,1
109.00,99.54,1
47.00,98.84,1
94.00,97.49,1
43.00,95.54,1
62.00,92.90,1
44.00,89.57,1
130.00,86.39,1
82.00,84.30,1
37.00,82.66,1
62.00,80.49,1
55.00,77.96,1
59.00,75.36,1
60.00,72.83,1
71.00,70.56,1
108.00,69.07,1
66.00,68.57,1
43.00,68.26,1
41.00,67.37,1
52.00,65.92,1
33.00,64.10,1
99.00,62.40,1
47.00,61.33,1
66.00,60.64,1
89.00,60.33,1
112.00,61.05,1
84.00,62.87,1
50.00,64.91,1
68.00,66.40,1
68.00,67.44,1
94.00,68.46,1
95.00,69.87,1
117.00,71.96,1
39.00,74.21,1
77.00,75.72,1
78.00,76.60,1
99.00,77.48,1
53.00,78.31,1
78.00,78.69,1
118.00,79.08,1
55.00,79.82,1
50.00,80.04,1
192.00,80.43,1
77.00,82.30,1
43.00,84.23,1
36.00,84.54,1
82.00,83.59,1
66.00,82.30,1
143.00,81.55,1
54.00,81.64,1
110.00,82.00,1
114.00,82.77,1
106.00,84.30,1
68.00,85.94,1
43.00,86.69,1
53.00,86.08,1
51.00,84.42,1
59.00,82.14,1
56.00,79.54,1
153.00,77.61,1
46.00,76.95,1
37.00,76.24,1
42.00,74.50,1
51.00,72.14,1
62.00,69.66,1
110.00,67.83,1
86.00,67.24,1
132.00,67.99,1
79.00,69.87,1
34.00,71.66,1
37.00,72.16,1
82.00,71.72,1
94.00,71.44,1
68.00,71.66,1
84.00,72.06,1
38.00,72.24,1
139.00,72.47,1
62.00,73.38,1
47.00,74.21,1
59.00,74.16,1
37.00,73.33,1
40.00,71.70,1
90.00,69.80,1
70.00,68.46,1
80.00,67.74,1
68.00,67.41,1
71.00,67.31,1
84.00,67.44,1
60.00,67.78,1
97.00,68.29,1
42.00,68.87,1
76.00,69.15,1
44.00,69.04,1
101.00,68.87,1
41.00,68.84,1
74.00,68.66,1
75.00,68.43,1
68.00,68.41,1
111.00,68.80,1
38.00,69.54,1
117.00,70.31,1
75.00,71.44,1
36.00,72.44,1
43.00,72.36,1
58.00,71.41,1
40.00,69.95,1
54.00,68.12,1
49.00,66.10,1
63.00,64.15,1
58.00,62.48,1
45.00,61.00,1
35.00,59.36,1
54.00,57.55,1
97.00,56.25,1
55.00,55.92,1
36.00,55.82,1
58.00,55.44,1
68.00,55.13,1
37.00,54.98,1
35.00,54.52,1
57.00,53.72,1
40.00,52.90,1
65.00,52.20,1
50.00,51.76,1
36.00,51.37,1
50.00,50.80,1
86.00,50.52,1
46.00,50.85,1
86.00,51.61,1
44.00,52.65,1
61.00,53.64,1
65.00,54.53,1
51.00,55.40,1
37.00,55.92,1
63.00,56.02,1
65.00,56.12,1
39.00,56.27,1
77.00,56.34,1
46.00,56.50,1
36.00,56.45,1
54.00,55.97,1
43.00,55.30,1
40.00,54.44,1
47.00,53.40,1
35.00,52.23,1
87.00,51.30,1
38.00,50.94,1
44.00,50.69,1
51.00,50.29,1
44.00,49.89,1
33.00,49.36,1
42.00,48.58,1
36.00,47.64,1
33.00,46.57,1
59.00,45.54,1
36.00,44.81,1
61.00,44.35,1
48.00,44.24,1
34.00,44.27,1
50.00,44.20,1
46.00,44.18,1
37.00,44.18,1
40.00,44.04,1
54.00,43.89,1
40.00,43.88,1
75.00,44.15,1
38.00,44.78,1
36.00,45.33,1
62.00,45.66,1
44.00,46.09,1
40.00,46.47,1
70.00,46.82,1
48.00,47.42,1
40.00,48.02,1
95.00,48.73,1
37.00,49.87,1
82.00,51.16,1
51.00,52.54,1
43.00,53.73,1
59.00,54.47,1
37.00,54.87,1
105.00,55.34,1
59.00,56.38,1
80.00,57.82,1
58.00,59.30,1
58.00,60.56,1
34.00,61.23,1
115.00,61.71,1
112.00,63.14,1
163.00,66.28,1
63.00,70.64,1
74.00,74.62,1
127.00,77.97,1
79.00,81.31,1
99.00,84.33,1
99.00,86.95,1
60.00,89.01,1
39.00,89.76,1
246.00,90.54,1
46.00,92.94,1
158.00,95.79,1
76.00,98.41,1
56.00,100.17,1
54.00,100.17,1
61.00,98.73,1
190.00,97.40,1
153.00,98.09,1
261.00,101.64,1
130.00,107.64,1
154.00,114.24,1
111.00,120.01,1
130.00,124.62,1
103.00,127.92,1
179.00,130.45,1
184.00,133.39,1
122.00,136.74,1
383.00,141.48,1
40.00,148.09,1
72.00,152.64,1
174.00,153.98,1
112.00,154.30,1
74.00,153.33,1
108.00,150.54,1
50.00,146.24,1
218.00,141.64,1
134.00,138.61,1
45.00,136.12,1
166.00,132.94,1
178.00,130.72,1
49.00,129.44,1
69.00,127.03,1
155.00,123.80,1
163.00,121.74,1
73.00,120.74,1
378.00,121.70,1
78.00,125.94,1
142.00,130.60,1
83.00,133.49,1
1023.00,142.30,1
515.00,166.60,1
129.00,197.67,1
334.00,223.89,1
744.00,249.20,1
262.00,277.46,1
204.00,301.92,1
195.00,317.60,1
84.00,324.62,1
184.00,323.70,1
162.00,317.29,1
67.00,306.72,1
202.00,292.64,1
254.00,278.24,1
268.00,266.18,1
51.00,255.17,1
191.00,243.00,1
61.00,229.78,1
179.00,216.20,1
83.00,202.87,1
225.00,190.74,1
240.00,181.62,1
206.00,176.22,1
303.00,174.25,1
96.00,174.49,1
58.00,173.47,1
115.00,169.62,1
168.00,164.86,1
45.00,159.89,1
338.00,155.75,1
92.00,154.18,1
38.00,152.51,1
128.00,148.62,1
198.00,144.81,1
62.00,141.98,1
144.00,138.98,1
336.00,137.79,1
253.00,141.18,1
144.00,147.29,1
72.00,152.12,1
77.00,153.79,1
186.00,153.33,1
602.00,156.62,1
458.00,169.20,1
262.00,187.89,1
130.00,205.07,1
120.00,216.66,1
530.00,225.73,1
638.00,240.24,1
132.00,259.36,1
105.00,273.63,1
169.00,279.64,1
451.00,282.37,1
501.00,288.14,1
163.00,296.37,1
121.00,300.65,1
50.00,297.68,1
134.00,288.48,1
375.00,277.64,1
163.00,268.88,1
88.00,259.86,1
148.00,248.36,1
90.00,235.33,1
113.00,221.31,1
57.00,206.39,1
253.00,192.19,1
49.00,180.10,1
65.00,168.39,1
936.00,163.15,1
73.00,170.39,1
282.00,181.63,1
67.00,189.97,1
48.00,193.85,1
276.00,194.03,1
106.00,193.59,1
144.00,192.09,1
324.00,190.53,1
274.00,191.91,1
526.00,198.18,1
369.00,210.42,1
146.00,224.42,1
154.00,234.38,1
170.00,239.35,1
272.00,241.53,1
232.00,243.02,1
270.00,244.43,1
234.00,245.74,1
537.00,249.18,1
97.00,255.16,1
108.00,258.19,1
250.00,256.56,1
180.00,253.37,1
187.00,249.15,1
54.00,242.72,1
109.00,233.16,1
226.00,222.31,1
392.00,214.60,1
264.00,212.21,1
287.00,213.36,1
71.00,214.69,1
150.00,213.37,1
232.00,210.29,1
482.00,210.06,1
219.00,214.64,1
40.00,218.96,1
112.00,218.40,1
58.00,213.39,1
44.00,204.71,1
204.00,194.26,1
391.00,186.86,1
288.00,185.64,1
97.00,187.38,1
197.00,188.12,1
274.00,188.79,1
294.00,191.63,1
94.00,195.37,1
104.00,196.58,1
45.00,193.82,1
235.00,188.86,1
105.00,183.97,1
116.00,178.80,1
127.00,172.79,1
154.00,166.84,1
102.00,161.23,1
45.00,154.96,1
86.00,147.38,1
239.00,140.51,1
276.00,137.63,1
45.00,137.78,1
84.00,137.06,1
316.00,136.35,1
385.00,140.44,1
127.00,148.90,1
83.00,156.37,1
383.00,162.47,1
62.00,169.27,1
114.00,173.96,1
219.00,175.98,1
200.00,177.91,1
163.00,179.96,1
335.00,182.70,1
53.00,186.07,1
67.00,186.67,1
350.00,185.35,1
70.00,185.15,1
89.00,183.66,1
145.00,179.66,1
592.00,178.72,1
52.00,183.53,1
342.00,189.72,1
242.00,196.23,1
93.00,202.29,1
62.00,204.19,1
48.00,201.04,1
103.00,194.13,1
81.00,185.19,1
276.00,176.74,1
168.00,171.11,1
217.00,168.05,1
95.00,165.94,1
93.00,162.98,1
266.00,159.85,1
76.00,157.99,1
72.00,155.40,1
70.00,150.65,1
127.00,144.86,1
281.00,140.68,1
158.00,139.87,1
200.00,141.25,1
70.00,142.82,1
199.00,143.74,1
180.00,145.05,1
172.00,147.30,1
188.00,150.02,1
472.00,155.59,1
456.00,167.85,1
166.00,184.45,1
259.00,199.62,1
101.00,211.05,1
128.00,217.63,1
106.00,219.22,1
139.00,217.10,1
451.00,215.21,1
301.00,217.77,1
135.00,222.32,1
160.00,224.47,1
96.00,223.23,1
39.00,218.09,1
222.00,210.26,1
137.00,202.50,1
127.00,195.05,1
156.00,187.46,1
149.00,180.35,1
93.00,173.50,1
313.00,167.92,1
45.00,164.45,1
152.00,160.96,1
181.00,157.36,1
174.00,155.12,1
34.00,152.93,1
134.00,149.29,1
47.00,144.48,1
37.00,138.23,1
260.00,132.05,1
141.00,128.79,1
64.00,127.06,1
58.00,124.25,1
74.00,120.08,1
95.00,115.42,1
186.00,111.79,1
93.00,109.97,1
96.00,108.83,1
80.00,107.38,1
144.00,106.03,1
128.00,105.60,1
142.00,106.27,1
56.00,107.13,1
98.00,107.16,1
63.00,106.23,1
70.00,104.43,1
52.00,101.73,1
36.00,98.04,1
136.00,94.15,1
120.00,91.62,1
169.00,91.19,1
68.00,92.19,1
106.00,93.31,1
200.00,95.04,1
122.00,98.40,1
78.00,102.03,1
44.00,104.07,1
72.00,104.13,1
105.00,103.14,1
107.00,102.19,1
112.00,101.66,1
59.00,101.12,1
127.00,100.31,1
60.00,99.46,1
77.00,98.20,1
284.00,98.12,1
87.00,100.88,1
176.00,104.90,1
123.00,109.14,1
102.00,113.09,1
136.00,116.17,1
166.00,119.14,1
182.00,122.84,1
83.00,126.66,1
65.00,128.79,1
84.00,128.62,1
45.00,126.50,1
43.00,122.49,1
119.00,117.45,1
281.00,114.41,1
37.00,114.27,1
109.00,114.22,1
60.00,112.99,1
94.00,110.98,1
39.00,108.16,1
130.00,104.92,1
98.00,102.28,1
78.00,100.22,1
118.00,98.43,1
36.00,96.70,1
154.00,95.03,1
78.00,94.12,1
61.00,93.38,1
125.00,92.42,1
137.00,92.34,1
65.00,93.05,1
69.00,93.30,1
65.00,92.61,1
76.00,91.29,1
122.00,90.07,1
87.00,89.54,1
69.00,89.19,1
103.00,88.68,1
144.00,88.83,1
52.00,89.67,1
140.00,90.56,1
145.00,92.18,1
87.00,94.63,1
222.00,97.85,1
39.00,101.77,1
183.00,105.38,1
156.00,109.28,1
210.00,114.48,1
126.00,120.45,1
75.00,125.44,1
71.00,127.95,1
53.00,127.85,1
44.00,125.32,1
68.00,121.00,1
40.00,115.55,1
102.00,109.65,1
124.00,104.58,1
151.00,101.42,1
75.00,99.81,1
75.00,98.40,1
95.00,96.71,1
86.00,95.14,1
86.00,93.71,1
92.00,92.42,1
217.00,92.42,1
107.00,94.63,1
84.00,97.44,1
200.00,100.29,1
57.00,103.62,1
79.00,105.97,1
95.00,106.82,1
167.00,107.54,1
246.00,110.10,1
44.00,114.23,1
134.00,117.46,1
78.00,119.24,1
98.00,119.85,1
89.00,119.36,1
108.00,118.21,1
69.00,116.52,1
50.00,113.84,1
47.00,109.83,1
96.00,105.12,1
87.00,100.76,1
86.00,97.05,1
255.00,95.30,1
49.00,96.16,1
48.00,96.95,1
59.00,96.01,1
105.00,94.35,1
79.00,92.85,1
66.00,91.36,1
91.00,89.70,1
100.00,88.35,1
39.00,87.13,1
122.00,85.81,1
230.00,86.21,1
58.00,88.94,1
56.00,91.41,1
148.00,92.88,1
86.00,94.56,1
47.00,95.73,1
50.00,95.35,1
64.00,93.65,1
42.00,91.06,1
52.00,87.73,1
138.00,84.65,1
44.00,82.59,1
123.00,81.19,1
41.00,80.17,1
64.00,78.97,1
114.00,77.78,1
40.00,77.06,1
91.00,76.31,1
41.00,75.39,1
104.00,74.49,1
49.00,73.81,1
82.00,73.20,1
170.00,73.48,1
48.00,75.16,1
91.00,76.90,1
54.00,78.03,1
63.00,78.48,1
68.00,78.27,1
62.00,77.67,1
86.00,76.95,1
109.00,76.70,1
40.00,76.82,1
112.00,76.86,1
72.00,77.13,1
114.00,77.84,1
97.00,79.09,1
38.00,80.29,1
103.00,80.81,1
44.00,80.92,1
78.00,80.56,1
59.00,79.75,1
83.00,78.81,1
68.00,77.92,1
49.00,76.87,1
59.00,75.39,1
42.00,73.50,1
133.00,71.92,1
56.00,71.34,1
90.00,71.32,1
153.00,72.16,1
60.00,74.21,1
88.00,76.30,1
91.00,78.06,1
160.00,80.38,1
95.00,83.69,1
62.00,86.84,1
77.00,88.81,1
166.00,90.53,1
93.00,92.99,1
78.00,95.35,1
121.00,97.04,1
73.00,98.36,1
92.00,99.08,1
55.00,98.93,1
66.00,97.75,1
38.00,95.48,1
104.00,92.64,1
96.00,90.24,1
40.00,88.21,1
65.00,85.74,1
93.00,83.21,1
192.00,82.19,1
60.00,83.16,1
90.00,84.47,1
98.00,85.46,1
41.00,86.10,1
52.00,85.65,1
56.00,84.14,1
107.00,82.45,1
109.00,81.57,1
77.00,81.54,1
39.00,81.32,1
106.00,80.61,1
56.00,79.95,1
103.00,79.46,1
113.00,79.56,1
76.00,80.34,1
148.00,81.71,1
82.00,83.81,1
63.00,85.73,1
62.00,86.58,1
82.00,86.58,1
71.00,86.18,1
97.00,85.67,1
78.00,85.29,1
53.00,84.70,1
65.00,83.51,1
55.00,81.81,1
40.00,79.59,1
54.00,76.82,1
49.00,73.80,1
54.00,70.76,1
65.00,67.95,1
52.00,65.52,1
162.00,64.24,1
217.00,66.09,1
85.00,70.93,1
140.00,76.63,1
52.00,81.87,1
97.00,85.96,1
105.00,89.13,1
55.00,91.57,1
42.00,92.51,1
72.00,91.91,1
114.00,90.88,1
49.00,89.98,1
54.00,88.52,1
75.00,86.39,1
104.00,84.46,1
114.00,83.48,1
46.00,83.11,1
127.00,82.83,1
38.00,82.68,1
57.00,81.97,1
39.00,80.29,1
69.00,78.05,1
100.00,76.05,1
69.00,74.82,1
101.00,74.22,1
96.00,74.34,1
69.00,74.97,1
40.00,75.24,1
127.00,75.23,1
42.00,75.52,1
72.00,75.58,1
163.00,76.02,1
39.00,77.46,1
101.00,78.83,1
165.00,80.62,1
128.00,83.93,1
141.00,88.31,1
40.00,92.44,1
83.00,95.04,1
71.00,96.14,1
66.00,96.20,1
44.00,95.10,1
82.00,93.07,1
38.00,90.49,1
41.00,87.18,1
50.00,83.19,1
99.00,79.39,1
71.00,76.52,1
142.00,74.97,1
44.00,74.62,1
123.00,74.80,1
98.00,75.67,1
143.00,77.65,1
230.00,81.69,1
41.00,87.38,1
121.00,92.40,1
291.00,97.91,1
113.00,105.63,1
50.00,112.69,1
110.00,116.99,1
288.00,121.00,1
85.00,126.44,1
129.00,131.25,1
84.00,134.09,1
72.00,134.85,1
47.00,133.20,1
100.00,129.73,1
123.00,125.86,1
97.00,122.42,1
51.00,118.80,1
89.00,114.50,1
39.00,109.64,1
181.00,105.21,1
54.00,102.11,1
158.00,100.09,1
69.00,98.87,1
84.00,97.81,1
66.00,96.28,1
68.00,94.29,1
265.00,93.52,1
323.00,97.46,1
74.00,105.42,1
42.00,112.22,1
44.00,115.33,1
60.00,115.46,1
60.00,113.55,1
42.00,110.18,1
142.00,106.34,1
50.00,103.01,1
58.00,99.55,1
97.00,95.80,1
154.00,93.16,1
68.00,91.98,1
108.00,91.34,1
52.00,90.60,1
52.00,89.22,1
128.00,87.57,1
100.00,86.79,1
45.00,86.41,1
172.00,86.26,1
65.00,87.05,1
110.00,88.18,1
84.00,89.18,1
63.00,89.80,1
146.00,90.25,1
109.00,91.45,1
212.00,94.09,1
95.00,98.20,1
96.00,102.19,1
90.00,104.96,1
198.00,107.51,1
53.00,110.36,1
47.00,111.77,1
77.00,110.95,1
69.00,108.89,1
140.00,106.66,1
58.00,104.80,1
154.00,103.31,1
98.00,102.60,1
85.00,102.27,1
69.00,101.42,1
54.00,99.71,1
84.00,97.26,1
53.00,94.46,1
110.00,91.68,1
77.00,89.43,1
48.00,87.34,1
42.00,84.64,1
47.00,81.26,1
92.00,77.89,1
62.00,75.17,1
92.00,73.16,1
53.00,71.70,1
96.00,70.64,1
93.00,70.30,1
112.00,70.98,1
82.00,72.45,1
89.00,74.19,1
145.00,76.41,1
42.00,79.06,1
44.00,80.72,1
46.00,80.76,1
43.00,79.60,1
95.00,77.95,1
136.00,77.18,1
70.00,77.67,1
122.00,78.76,1
63.00,80.10,1
46.00,80.90,1
88.00,80.85,1
117.00,80.93,1
145.00,82.19,1
70.00,84.38,1
60.00,86.11,1
99.00,86.96,1
95.00,87.65,1
42.00,88.01,1
84.00,87.55,1
81.00,86.70,1
100.00,86.05,1
49.00,85.43,1
96.00,84.57,1
38.00,83.43,1
184.00,82.74,1
69.00,83.40,1
129.00,84.89,1
58.00,86.40,1
103.00,87.56,1
212.00,89.50,1
44.00,92.74,1
100.00,95.44,1
92.00,97.11,1
58.00,97.99,1
62.00,97.65,1
33.00,95.92,1
67.00,93.05,1
138.00,90.31,1
56.00,88.56,1
97.00,87.16,1
136.00,86.41,1
124.00,87.06,1
160.00,89.19,1
43.00,91.88,1
166.00,94.29,1
109.00,97.02,1
108.00,99.95,1
62.00,102.07,1
44.00,102.60,1
38.00,101.15,1
143.00,98.87,1
70.00,97.13,1
100.00,95.76,1
59.00,94.27,1
45.00,92.19,1
79.00,89.44,1
70.00,86.64,1
96.00,84.26,1
144.00,83.03,1
59.00,83.01,1
38.00,82.73,1
64.00,81.42,1
55.00,79.55,1
108.00,77.83,1
90.00,76.94,1
98.00,76.91,1
220.00,78.54,1
58.00,82.15,1
60.00,85.45,1
75.00,87.22,1
78.00,88.05,1
160.00,89.01,1
147.00,91.30,1
45.00,94.17,1
142.00,96.36,1
158.00,98.87,1
39.00,101.62,1
160.00,103.62,1
52.00,105.11,1
38.00,105.25,1
145.00,104.13,1
134.00,103.65,1
195.00,104.91,1
104.00,107.60,1
104.00,110.28,1
75.00,111.86,1
130.00,112.53,1
164.00,113.45,1
42.00,114.53,1
80.00,114.27,1
202.00,113.63,1
130.00,114.49,1
142.00,116.36,1
74.00,117.96,1
60.00,118.16,1
208.00,117.72,1
93.00,118.21,1
60.00,118.41,1
77.00,117.06,1
306.00,116.47,1
124.00,118.90,1
71.00,121.99,1
152.00,123.75,1
152.00,125.35,1
103.00,127.05,1
39.00,127.42,1
145.00,126.18,1
123.00,124.80,1
72.00,123.45,1
167.00,121.93,1
120.00,121.09,1
133.00,120.92,1
167.00,121.35,1
45.00,121.90,1
53.00,120.83,1
80.00,117.94,1
52.00,114.02,1
55.00,109.22,1
54.00,103.75,1
43.00,97.86,1
40.00,91.63,1
93.00,85.65,1
76.00,80.78,1
68.00,76.99,1
50.00,73.74,1
77.00,70.85,1
139.00,69.15,1
43.00,68.86,1
59.00,68.70,1
104.00,68.51,1
118.00,69.28,1
111.00,71.32,1
77.00,73.96,1
98.00,76.52,1
118.00,79.17,1
85.00,82.03,1
40.00,84.21,1
68.00,84.99,1
39.00,84.55,1
63.00,83.14,1
59.00,81.16,1
82.00,79.16,1
74.00,77.47,1
129.00,76.60,1
102.00,77.00,1
39.00,77.83,1
110.00,78.29,1
116.00,79.15,1
67.00,80.56,1
109.00,81.95,1
71.00,83.23,1
87.00,84.25,1
40.00,84.59,1
57.00,83.91,1
68.00,82.45,1
40.00,80.54,1
102.00,78.49,1
97.00,77.15,1
57.00,76.51,1
70.00,75.81,1
84.00,75.10,1
94.00,74.81,1
56.00,74.84,1
128.00,75.15,1
41.00,75.82,1
39.00,75.87,1
82.00,75.06,1
76.00,74.27,1
52.00,73.58,1
42.00,72.45,1
68.00,70.89,1
67.00,69.38,1
62.00,68.13,1
82.00,67.18,1
118.00,67.08,1
42.00,67.77,1
55.00,68.18,1
152.00,68.75,1
105.00,70.75,1
155.00,74.21,1
60.00,78.31,1
68.00,81.67,1
60.00,83.64,1
127.00,84.98,1
73.00,86.38,1
49.00,87.25,1
51.00,86.86,1
88.00,85.66,1
159.00,85.11,1
192.00,86.83,1
52.00,90.20,1
151.00,93.48,1
100.00,96.63,1
57.00,99.21,1
197.00,101.28,1
64.00,103.76,1
46.00,105.28,1
67.00,104.76,1
122.00,103.39,1
202.00,103.19,1
54.00,104.43,1
40.00,104.81,1
80.00,103.41,1
55.00,101.05,1
54.00,97.92,1
43.00,94.00,1
145.00,90.27,1
170.00,88.64,1
113.00,89.42,1
99.00,91.16,1
105.00,92.91,1
77.00,94.36,1
55.00,94.94,1
43.00,94.12,1
40.00,91.87,1
99.00,88.96,1
114.00,86.71,1
71.00,85.43,1
64.00,84.28,1
39.00,82.58,1
83.00,80.42,1
172.00,79.24,1
40.00,79.59,1
119.00,80.29,1
60.00,80.97,1
83.00,81.47,1
54.00,81.46,1
114.00,81.28,1
90.00,81.53,1
69.00,82.03,1
122.00,82.59,1
56.00,83.34,1
46.00,83.46,1
159.00,83.33,1
73.00,84.10,1
44.00,84.78,1
96.00,84.62,1
138.00,84.79,1
52.00,85.62,1
67.00,85.98,1
115.00,85.89,1
43.00,85.80,1
102.00,85.40,1
75.00,84.93,1
82.00,84.53,1
50.00,83.81,1
146.00,83.20,1
66.00,83.36,1
116.00,83.99,1
50.00,84.56,1
150.00,85.23,1
130.00,86.90,1
56.00,89.15,1
176.00,91.36,1
122.00,94.42,1
90.00,97.84,1
243.00,101.72,1
55.00,106.53,1
72.00,110.16,1
53.00,111.36,1
108.00,110.96,1
69.00,109.76,1
42.00,107.60,1
55.00,104.12,1
61.00,99.77,1
50.00,95.04,1
77.00,90.27,1
43.00,85.69,1
231.00,82.65,1
102.00,82.63,1
148.00,84.70,1
43.00,87.13,1
68.00,88.60,1
44.00,88.61,1
150.00,88.22,1
51.00,88.27,1
39.00,87.79,1
74.00,86.19,1
78.00,84.31,1
94.00,82.78,1
125.00,82.11,1
99.00,82.54,1
61.00,83.32,1
74.00,83.59,1
79.00,83.41,1
70.00,83.02,1
132.00,82.87,1
139.00,83.92,1
42.00,85.69,1
51.00,86.47,1
70.00,85.95,1
178.00,85.77,1
47.00,86.71,1
89.00,87.54,1
82.00,87.81,1
99.00,88.03,1
51.00,88.01,1
57.00,87.22,1
44.00,85.45,1
68.00,83.03,1
112.00,80.86,1
39.00,79.27,1
65.00,77.55,1
73.00,75.67,1
68.00,74.05,1
59.00,72.59,1
92.00,71.37,1
110.00,71.00,1
80.00,71.62,1
42.00,72.30,1
152.00,73.04,1
59.00,74.54,1
45.00,75.81,1
62.00,76.03,1
49.00,75.47,1
79.00,74.53,1
53.00,73.49,1
103.00,72.66,1
138.00,72.92,1
102.00,74.68,1
45.00,76.75,1
144.00,78.56,1
83.00,80.77,1
68.00,82.91,1
104.00,84.47,1
51.00,85.55,1
50.00,85.67,1
156.00,85.46,1
50.00,85.89,1
50.00,85.90,1
68.00,84.88,1
45.00,83.19,1
49.00,80.86,1
83.00,78.29,1
89.00,76.26,1
78.00,75.00,1
170.00,75.00,1
72.00,76.59,1
70.00,78.44,1
57.00,79.47,1
41.00,79.49,1
90.00,78.77,1
160.00,78.77,1
81.00,80.22,1
135.00,82.46,1
43.00,84.70,1
149.00,86.65,1
135.00,89.21,1
78.00,92.32,1
102.00,94.88,1
68.00,96.59,1
228.00,98.55,1
91.00,101.87,1
145.00,105.62,1
127.00,109.18,1
122.00,112.58,1
56.00,114.97,1
57.00,115.36,1
53.00,113.70,1
71.00,110.61,1
72.00,106.80,1
65.00,102.68,1
112.00,98.75,1
65.00,95.43,1
72.00,92.34,1
84.00,89.36,1
66.00,86.67,1
43.00,83.89,1
83.00,80.95,1
88.00,78.49,1
40.00,76.50,1
75.00,74.47,1
123.00,73.05,1
104.00,73.08,1
188.00,74.99,1
152.00,79.21,1
78.00,84.52,1
134.00,89.43,1
45.00,93.43,1
68.00,95.78,1
114.00,96.84,1
44.00,97.24,1
142.00,97.17,1
101.00,97.46,1
128.00,98.36,1
46.00,99.12,1
52.00,98.66,1
72.00,96.86,1
73.00,94.51,1
95.00,92.18,1
40.00,89.87,1
52.00,87.00,1
89.00,83.87,1
77.00,81.26,1
83.00,79.29,1
44.00,77.54,1
57.00,75.52,1
64.00,73.32,1
63.00,71.28,1
80.00,69.60,1
83.00,68.56,1
51.00,67.96,1
72.00,67.38,1
61.00,66.82,1
67.00,66.35,1
93.00,66.18,1
106.00,66.85,1
67.00,68.21,1
74.00,69.59,1
61.00,70.62,1
100.00,71.51,1
174.00,73.44,1
95.00,76.97,1
105.00,81.00,1
106.00,84.78,1
146.00,88.69,1
96.00,92.81,1
177.00,97.14,1
82.00,101.63,1
75.00,105.11,1
91.00,106.94,1
63.00,107.44,1
111.00,106.95,1
118.00,106.38,1
80.00,105.95,1
154.00,105.70,1
66.00,105.77,1
54.00,105.13,1
46.00,102.95,1
102.00,99.93,1
91.00,97.16,1
44.00,94.54,1
55.00,91.35,1
57.00,87.65,1
170.00,84.75,1
91.00,83.77,1
50.00,83.58,1
58.00,82.71,1
94.00,81.46,1
41.00,80.19,1
127.00,79.08,1
48.00,78.46,1
106.00,78.11,1
53.00,77.86,1
109.00,77.74,1
100.00,78.15,1
121.00,79.46,1
56.00,81.12,1
127.00,82.67,1
43.00,84.04,1
51.00,84.47,1
57.00,83.67,1
76.00,82.27,1
73.00,80.82,1
44.00,79.25,1
62.00,77.26,1
149.00,75.81,1
43.00,75.55,1
92.00,75.55,1
49.00,75.34,1
94.00,75.03,1
88.00,75.00,1
66.00,75.28,1
82.00,75.50,1
103.00,75.93,1
91.00,76.88,1
80.00,78.08,1
43.00,78.84,1
220.00,80.00,1
78.00,82.89,1
118.00,86.44,1
66.00,89.41,1
52.00,91.20,1
87.00,91.66,1
72.00,91.44,1
87.00,90.88,1
80.00,90.14,1
52.00,89.06,1
64.00,87.35,1
78.00,85.28,1
46.00,83.08,1
253.00,82.17,1
149.00,84.57,1
321.00,90.83,1
46.00,99.53,1
98.00,107.06,1
82.00,111.94,1
46.00,114.49,1
50.00,114.48,1
137.00,113.02,1
149.00,112.09,1
122.00,112.29,1
192.00,113.56,1
107.00,115.85,1
94.00,117.89,1
135.00,119.08,1
48.00,119.45,1
82.00,118.36,1
72.00,115.95,1
45.00,112.52,1
86.00,108.23,1
95.00,103.97,1
68.00,100.13,1
79.00,96.46,1
78.00,92.99,1
50.00,89.63,1
93.00,86.35,1
105.00,83.83,1
111.00,82.57,1
89.00,82.34,1
92.00,82.59,1
86.00,83.02,1
52.00,83.21,1
128.00,83.23,1
87.00,83.76,1
125.00,84.94,1
76.00,86.44,1
43.00,87.36,1
150.00,87.74,1
57.00,88.44,1
99.00,89.05,1
96.00,89.47,1
127.00,90.29,1
92.00,91.58,1
118.00,93.09,1
84.00,94.56,1
170.00,96.33,1
74.00,98.62,1
63.00,100.24,1
52.00,100.24,1
48.00,98.68,1
78.00,96.08,1
49.00,93.01,1
134.00,90.16,1
62.00,88.15,1
48.00,86.24,1
66.00,83.77,1
56.00,81.08,1
164.00,79.18,1
87.00,79.03,1
80.00,79.77,1
64.00,80.26,1
65.00,80.23,1
160.00,80.49,1
210.00,82.96,1
58.00,87.40,1
91.00,91.34,1
79.00,93.94,1
95.00,95.65,1
88.00,96.73,1
144.00,97.79,1
76.00,99.10,1
63.00,99.79,1
77.00,99.31,1
80.00,98.10,1
152.00,97.16,1
103.00,97.26,1
42.00,97.43,1
52.00,96.31,1
93.00,94.24,1
88.00,92.25,1
78.00,90.56,1
61.00,88.79,1
130.00,87.24,1
127.00,86.89,1
73.00,87.54,1
48.00,87.79,1
52.00,86.90,1
270.00,86.83,1
43.00,89.20,1
84.00,91.69,1
62.00,92.80,1
41.00,92.62,1
49.00,91.00,1
86.00,88.62,1
41.00,86.04,1
203.00,84.29,1
60.00,84.38,1
44.00,84.70,1
64.00,83.88,1
100.00,82.74,1
74.00,81.93,1
46.00,81.04,1
46.00,79.43,1
130.00,77.81,1
112.00,77.46,1
45.00,77.93,1
90.00,78.13,1
44.00,77.92,1
41.00,76.99,1
117.00,75.74,1
51.00,74.99,1
97.00,74.55,1
114.00,74.72,1
135.00,76.18,1
57.00,78.42,1
82.00,80.26,1
52.00,81.25,1
70.00,81.43,1
395.00,83.75,1
57.00,90.45,1
55.00,97.20,1
97.00,101.28,1
116.00,104.04,1
101.00,106.25,1
88.00,107.76,1
182.00,109.14,1
50.00,110.74,1
83.00,111.30,1
107.00,110.70,1
44.00,109.39,1
82.00,107.07,1
46.00,103.84,1
56.00,99.84,1
96.00,95.58,1
55.00,91.69,1
78.00,88.04,1
65.00,84.64,1
141.00,82.15,1
72.00,81.00,1
158.00,81.11,1
106.00,82.61,1
123.00,85.08,1
154.00,88.32,1
70.00,92.00,1
54.00,94.64,1
50.00,95.39,1
55.00,94.53,1
148.00,93.30,1
86.00,92.90,1
117.00,93.13,1
68.00,93.44,1
65.00,93.21,1
100.00,92.43,1
49.00,91.36,1
55.00,89.62,1
70.00,87.22,1
44.00,84.47,1
73.00,81.50,1
83.00,78.80,1
50.00,76.53,1
70.00,74.37,1
55.00,72.29,1
104.00,70.67,1
85.00,69.98,1
45.00,69.78,1
59.00,69.25,1
127.00,68.96,1
62.00,69.57,1
46.00,70.18,1
127.00,70.65,1
91.00,71.91,1
106.00,73.94,1
48.00,75.93,1
74.00,77.22,1
46.00,77.64,1
130.00,77.84,1
111.00,78.87,1
42.00,80.31,1
81.00,81.02,1
82.00,81.25,1
72.00,81.35,1
74.00,81.22,1
61.00,80.76,1
64.00,79.87,1
80.00,78.78,1
92.00,77.96,1
63.00,77.47,1
62.00,76.84,1
67.00,75.92,1
51.00,74.75,1
99.00,73.60,1
45.00,72.72,1
46.00,71.59,1
80.00,70.16,1
83.00,69.15,1
47.00,68.51,1
80.00,67.89,1
54.00,67.33,1
71.00,66.81,1
116.00,66.80,1
107.00,67.99,1
132.00,70.47,1
144.00,74.30,1
70.00,78.83,1
43.00,82.37,1
44.00,83.98,1
68.00,84.07,1
81.00,83.51,1
61.00,82.72,1
66.00,81.61,1
101.00,80.50,1
83.00,79.90,1
50.00,79.42,1
72.00,78.53,1
76.00,77.49,1
45.00,76.36,1
44.00,74.70,1
84.00,72.76,1
64.00,71.17,1
89.00,70.10,1
47.00,69.36,1
54.00,68.45,1
175.00,68.24,1
57.00,69.63,1
76.00,71.42,1
47.00,72.54,1
47.00,72.77,1
67.00,72.26,1
50.00,71.39,1
124.00,70.77,1
53.00,70.87,1
47.00,70.89,1
141.00,70.95,1
108.00,72.28,1
53.00,74.31,1
56.00,75.62,1
43.00,75.85,1
44.00,75.04,1
162.00,74.37,1
43.00,74.81,1
66.00,75.27,1
45.00,74.93,1
47.00,73.88,1
81.00,72.45,1
224.00,72.56,1
47.00,75.01,1
75.00,77.66,1
46.00,79.10,1
80.00,79.61,1
59.00,79.56,1
55.00,78.97,1
54.00,77.74,1
51.00,76.00,1
96.00,74.25,1
109.00,73.38,1
80.00,73.56,1
52.00,73.92,1
88.00,74.00,1
76.00,74.12,1
43.00,74.10,1
42.00,73.30,1
112.00,72.24,1
42.00,71.60,1
77.00,70.99,1
57.00,70.28,1
175.00,70.44,1
53.00,72.06,1
49.00,73.64,1
71.00,74.24,1
56.00,74.27,1
48.00,73.74,1
55.00,72.61,1
40.00,70.98,1
43.00,68.86,1
47.00,66.39,1
62.00,63.96,1
121.00,62.42,1
87.00,62.43,1
69.00,63.39,1
64.00,64.42,1
43.00,65.04,1
81.00,65.28,1
45.00,65.36,1
96.00,65.47,1
179.00,66.84,1
44.00,69.80,1
127.00,73.00,1
43.00,75.84,1
40.00,77.58,1
63.00,77.86,1
56.00,77.31,1
91.00,76.54,1
44.00,75.76,1
80.00,74.79,1
89.00,74.01,1
57.00,73.57,1
43.00,72.84,1
55.00,71.52,1
196.00,71.05,1
93.00,72.83,1
52.00,75.37,1
91.00,77.18,1
59.00,78.43,1
100.00,79.33,1
84.00,80.24,1
72.00,81.08,1
71.00,81.51,1
49.00,81.30,1
75.00,80.47,1
59.00,79.30,1
43.00,77.73,1
59.00,75.65,1
69.00,73.47,1
58.00,71.49,1
41.00,69.49,1
82.00,67.50,1
79.00,66.11,1
77.00,65.49,1
94.00,65.56,1
124.00,66.66,1
73.00,68.73,1
88.00,70.99,1
66.00,72.97,1
45.00,74.24,1
49.00,74.45,1
74.00,73.92,1
44.00,73.07,1
86.00,72.05,1
120.00,71.68,1
41.00,72.07,1
61.00,72.16,1
54.00,71.62,1
42.00,70.58,1
71.00,69.18,1
49.00,67.76,1
66.00,66.37,1
85.00,65.33,1
55.00,64.79,1
55.00,64.30,1
43.00,63.52,1
43.00,62.34,1
65.00,60.99,1
45.00,59.74,1
71.00,58.69,1
80.00,58.16,1
47.00,58.13,1
74.00,58.24,1
44.00,58.38,1
62.00,58.40,1
59.00,58.36,1
102.00,58.73,1
67.00,59.80,1
56.00,61.06,1
53.00,61.91,1
86.00,62.56,1
84.00,63.54,1
88.00,65.01,1
66.00,66.68,1
54.00,68.01,1
68.00,68.76,1
72.00,69.23,1
82.00,69.72,1
110.00,70.66,1
99.00,72.36,1
57.00,74.28,1
56.00,75.50,1
96.00,76.12,1
115.00,77.08,1
46.00,78.34,1
58.00,78.89,1
117.00,79.01,1
81.00,79.57,1
135.00,80.78,1
69.00,82.50,1
58.00,83.82,1
87.00,84.29,1
101.00,84.62,1
68.00,85.02,1
174.00,85.91,1
136.00,88.32,1
52.00,91.35,1
77.00,93.25,1
84.00,94.01,1
44.00,93.86,1
53.00,92.49,1
80.00,90.30,1
70.00,87.99,1
48.00,85.54,1
51.00,82.63,1
78.00,79.57,1
57.00,76.80,1
102.00,74.58,1
71.00,73.17,1
52.00,72.14,1
98.00,71.22,1
97.00,71.02,1
42.00,71.29,1
80.00,71.29,1
45.00,70.98,1
42.00,70.14,1
74.00,68.87,1
45.00,67.56,1
49.00,66.09,1
60.00,64.47,1
131.00,63.58,1
64.00,64.01,1
88.00,65.09,1
73.00,66.34,1
55.00,67.49,1
51.00,68.06,1
96.00,68.34,1
86.00,69.00,1
47.00,69.84,1
91.00,70.40,1
98.00,71.21,1
86.00,72.56,1
99.00,74.24,1
49.00,75.82,1
48.00,76.54,1
41.00,76.09,1
279.00,76.61,1
129.00,80.50,1
50.00,85.67,1
88.00,89.38,1
46.00,91.50,1
78.00,92.20,1
46.00,91.73,1
59.00,90.23,1
175.00,88.91,1
88.00,89.08,1
110.00,90.08,1
66.00,90.95,1
47.00,90.99,1
44.00,89.71,1
70.00,87.45,1
106.00,85.24,1
62.00,83.59,1
65.00,82.01,1
44.00,80.04,1
118.00,78.14,1
54.00,76.87,1
74.00,75.84,1
58.00,74.70,1
73.00,73.54,1
42.00,72.26,1
66.00,70.73,1
56.00,69.13,1
47.00,67.49,1
45.00,65.62,1
137.00,64.28,1
42.00,64.13,1
44.00,64.08,1
48.00,63.40,1
116.00,62.90,1
68.00,63.33,1
84.00,64.34,1
140.00,66.10,1
44.00,68.64,1
158.00,71.50,1
79.00,74.95,1
155.00,79.00,1
65.00,83.22,1
44.00,86.40,1
110.00,88.11,1
101.00,89.51,1
56.00,90.66,1
59.00,90.77,1
120.00,90.28,1
44.00,89.76,1
50.00,88.52,1
53.00,86.26,1
112.00,83.91,1
58.00,82.13,1
57.00,80.41,1
56.00,78.32,1
44.00,75.91,1
71.00,73.34,1
53.00,70.93,1
72.00,68.82,1
45.00,66.94,1
65.00,65.17,1
43.00,63.47,1
79.00,61.99,1
55.00,60.92,1
45.00,60.03,1
61.00,59.08,1
61.00,58.28,1
51.00,57.68,1
67.00,57.22,1
49.00,56.91,1
54.00,56.61,1
46.00,56.18,1
56.00,55.67,1
47.00,55.13,1
84.00,54.84,1
46.00,54.96,1
54.00,55.14,1
95.00,55.51,1
52.00,56.41,1
84.00,57.57,1
43.00,58.72,1
46.00,59.44,1
59.00,59.63,1
78.00,59.80,1
39.00,60.05,1
43.00,59.90,1
43.00,59.19,1
84.00,58.45,1
43.00,58.06,1
43.00,57.60,1
120.00,57.41,1
45.00,58.09,1
45.00,58.80,1
56.00,58.97,1
50.00,58.86,1
48.00,58.51,1
49.00,57.93,1
49.00,57.18,1
82.00,56.61,1
53.00,56.50,1
74.00,56.73,1
66.00,57.23,1
47.00,57.81,1
44.00,58.02,1
46.00,57.76,1
55.00,57.23,1
59.00,56.71,1
62.00,56.38,1
51.00,56.21,1
100.00,56.40,1
51.00,57.18,1
42.00,57.91,1
149.00,58.89,1
41.00,60.84,1
44.00,62.58,1
68.00,63.46,1
134.00,64.64,1
48.00,66.57,1
60.00,68.23,1
59.00,69.12,1
84.00,69.67,1
51.00,70.08,1
55.00,70.07,1
152.00,70.33,1
56.00,71.65,1
41.00,72.80,1
98.00,73.21,1
62.00,73.58,1
114.00,74.20,1
78.00,75.27,1
126.00,76.87,1
56.00,78.73,1
89.00,80.24,1
67.00,81.23,1
67.00,81.69,1
94.00,81.77,1
48.00,81.64,1
60.00,80.90,1
109.00,79.95,1
114.00,79.83,1
102.00,80.73,1
99.00,82.20,1
146.00,84.29,1
189.00,87.89,1
100.00,92.91,1
154.00,98.15,1
106.00,103.13,1
262.00,108.72,1
88.00,115.32,1
110.00,121.05,1
121.00,124.95,1
115.00,127.63,1
55.00,128.79,1
107.00,128.16,1
128.00,126.72,1
128.00,125.49,1
70.00,124.15,1
78.00,121.89,1
123.00,119.01,1
108.00,116.46,1
65.00,114.01,1
91.00,111.10,1
54.00,107.70,1
52.00,103.61,1
74.00,99.00,1
206.00,95.57,1
106.00,94.70,1
86.00,95.08,1
104.00,95.37,1
112.00,95.80,1
88.00,96.40,1
87.00,96.77,1
53.00,96.45,1
46.00,94.98,1
110.00,92.83,1
75.00,90.94,1
56.00,89.11,1
57.00,86.78,1
82.00,84.23,1
45.00,81.71,1
50.00,78.91,1
74.00,75.99,1
49.00,73.30,1
51.00,70.67,1
54.00,68.03,1
127.00,66.14,1
336.00,67.90,1
66.00,74.12,1
80.00,80.93,1
231.00,87.21,1
63.00,94.09,1
92.00,99.93,1
173.00,104.52,1
60.00,108.68,1
91.00,111.42,1
183.00,113.33,1
50.00,115.23,1
138.00,116.35,1
216.00,117.83,1
129.00,120.85,1
83.00,123.75,1
184.00,125.82,1
49.00,127.37,1
127.00,127.71,1
139.00,127.39,1
53.00,126.73,1
98.00,124.86,1
215.00,123.15,1
66.00,122.69,1
150.00,122.40,1
253.00,123.25,1
46.00,125.63,1
124.00,127.16,1
42.00,126.88,1
179.00,125.67,1
281.00,126.22,1
81.00,129.29,1
81.00,131.68,1
91.00,131.91,1
241.00,131.89,1
47.00,132.65,1
244.00,133.62,1
165.00,135.75,1
183.00,139.13,1
197.00,143.11,1
115.00,147.13,1
62.00,149.35,1
104.00,148.95,1
119.00,146.93,1
131.00,144.45,1
142.00,142.11,1
52.00,139.48,1
63.00,135.40,1
53.00,129.71,1
137.00,123.63,1
106.00,118.50,1
45.00,113.95,1
55.00,108.78,1
67.00,103.08,1
51.00,97.31,1
58.00,91.59,1
58.00,86.06,1
80.00,81.11,1
52.00,76.90,1
95.00,73.47,1
263.00,72.61,1
168.00,76.10,1
121.00,82.18,1
192.00,89.06,1
80.00,96.19,1
49.00,101.74,1
43.00,104.41,1
188.00,105.64,1
124.00,107.57,1
54.00,109.54,1
45.00,109.71,1
94.00,108.17,1
178.00,106.82,1
81.00,106.66,1
78.00,106.46,1
44.00,105.10,1
129.00,103.02,1
42.00,100.89,1
54.00,98.12,1
66.00,94.56,1
112.00,91.18,1
117.00,88.98,1
143.00,88.40,1
74.00,88.99,1
124.00,89.93,1
54.00,90.78,1
51.00,90.75,1
109.00,89.92,1
53.00,88.98,1
129.00,88.16,1
66.00,87.74,1
162.00,88.02,1
47.00,88.94,1
151.00,90.06,1
167.00,92.22,1
281.00,97.16,1
90.00,104.46,1
68.00,110.93,1
88.00,114.78,1
86.00,116.64,1
60.00,116.83,1
76.00,115.44,1
60.00,112.81,1
47.00,109.07,1
46.00,104.26,1
55.00,98.76,1
56.00,93.07,1
60.00,87.53,1
55.00,82.34,1
103.00,77.93,1
174.00,75.62,1
108.00,76.00,1
73.00,77.60,1
123.00,79.37,1
85.00,81.44,1
75.00,83.36,1
44.00,84.36,1
111.00,84.59,1
84.00,84.86,1
55.00,85.02,1
81.00,84.60,1
99.00,84.09,1
96.00,84.03,1
86.00,84.32,1
124.00,85.00,1
43.00,85.82,1
47.00,85.71,1
61.00,84.44,1
66.00,82.62,1
98.00,80.91,1
184.00,80.61,1
95.00,82.35,1
79.00,84.72,1
54.00,86.25,1
64.00,86.64,1
55.00,86.02,1
61.00,84.64,1
128.00,83.31,1
97.00,82.97,1
92.00,83.40,1
52.00,83.72,1
149.00,84.05,1
67.00,84.98,1
145.00,86.41,1
61.00,88.10,1
62.00,89.19,1
92.00,89.35,1
82.00,89.23,1
44.00,88.66,1
130.00,87.78,1
92.00,87.48,1
50.00,87.37,1
67.00,86.53,1
85.00,85.26,1
48.00,83.82,1
62.00,81.97,1
84.00,79.97,1
53.00,78.14,1
192.00,77.32,1
44.00,78.13,1
180.00,79.96,1
76.00,82.68,1
57.00,85.22,1
42.00,86.25,1
82.00,86.00,1
69.00,85.24,1
54.00,84.11,1
73.00,82.53,1
45.00,80.62,1
139.00,79.00,1
77.00,78.48,1
41.00,78.26,1
60.00,77.31,1
138.00,76.50,1
164.00,77.50,1
70.00,80.14,1
115.00,82.96,1
81.00,85.51,1
64.00,87.44,1
183.00,89.25,1
111.00,92.16,1
66.00,95.21,1
44.00,96.75,1
57.00,96.45,1
134.00,95.44,1
42.00,94.56,1
49.00,92.95,1
71.00,90.41,1
92.00,87.83,1
52.00,85.50,1
58.00,83.00,1
134.00,80.86,1
129.00,80.34,1
48.00,80.93,1
52.00,80.99,1
191.00,81.19,1
55.00,82.71,1
75.00,84.24,1
128.00,85.36,1
88.00,86.87,1
101.00,88.48,1
63.00,89.70,1
76.00,90.16,1
110.00,90.21,1
103.00,90.57,1
183.00,91.99,1
157.00,95.20,1
45.00,98.99,1
56.00,101.08,1
59.00,101.11,1
196.00,100.84,1
46.00,101.43,1
79.00,101.56,1
68.00,100.54,1
91.00,98.96,1
136.00,97.68,1
184.00,98.00,1
127.00,100.22,1
44.00,102.58,1
65.00,103.31,1
151.00,103.13,1
200.00,104.28,1
114.00,107.22,1
63.00,109.97,1
168.00,111.79,1
315.00,115.39,1
64.00,121.44,1
122.00,126.68,1
153.00,130.28,1
143.00,133.43,1
77.00,135.67,1
45.00,135.70,1
79.00,133.26,1
182.00,130.19,1
95.00,127.99,1
84.00,125.86,1
43.00,122.62,1
54.00,117.92,1
62.00,112.21,1
46.00,106.01,1
79.00,99.71,1
65.00,93.85,1
46.00,88.40,1
84.00,83.32,1
44.00,78.84,1
125.00,75.28,1
73.00,73.14,1
120.00,72.34,1
68.00,72.50,1
54.00,72.79,1
54.00,72.50,1
52.00,71.65,1
104.00,70.79,1
100.00,70.78,1
128.00,72.02,1
44.00,73.89,1
71.00,75.25,1
62.00,75.82,1
92.00,76.13,1
43.00,76.22,1
59.00,75.73,1
185.00,75.70,1
85.00,77.45,1
95.00,79.96,1
68.00,82.06,1
42.00,83.18,1
53.00,82.96,1
128.00,82.32,1
227.00,83.55,1
112.00,87.52,1
85.00,92.08,1
74.00,95.44,1
106.00,97.63,1
86.00,99.14,1
77.00,99.94,1
87.00,99.94,1
63.00,99.22,1
47.00,97.51,1
98.00,95.11,1
86.00,92.85,1
218.00,92.11,1
73.00,93.45,1
65.00,94.92,1
72.00,95.16,1
90.00,94.66,1
91.00,93.99,1
90.00,93.36,1
89.00,92.77,1
148.00,92.69,1
70.00,93.33,1
42.00,93.45,1
46.00,92.10,1
64.00,89.66,1
166.00,87.65,1
71.00,87.10,1
71.00,86.93,1
47.00,86.07,1
89.00,84.67,1
95.00,83.45,1
93.00,82.84,1
53.00,82.40,1
109.00,81.89,1
67.00,81.59,1
51.00,81.10,1
42.00,79.78,1
85.00,77.95,1
88.00,76.46,1
60.00,75.45,1
62.00,74.42,1
117.00,73.67,1
44.00,73.46,1
144.00,73.77,1
63.00,74.82,1
82.00,76.06,1
160.00,77.69,1
64.00,80.23,1
46.00,82.27,1
65.00,82.92,1
57.00,82.60,1
89.00,81.84,1
61.00,81.00,1
72.00,80.03,1
94.00,79.11,1
71.00,78.53,1
45.00,77.82,1
76.00,76.66,1
61.00,75.37,1
61.00,74.04,1
61.00,72.60,1
49.00,71.01,1
74.00,69.39,1
74.00,68.10,1
42.00,67.05,1
78.00,65.99,1
68.00,65.20,1
82.00,64.89,1
77.00,65.07,1
65.00,65.54,1
94.00,66.21,1
72.00,67.23,1
105.00,68.61,1
75.00,70.36,1
87.00,72.18,1
110.00,74.15,1
46.00,76.11,1
153.00,78.02,1
43.00,80.16,1
54.00,81.56,1
47.00,81.56,1
69.00,80.64,1
151.00,80.06,1
46.00,80.42,1
52.00,80.48,1
80.00,79.76,1
56.00,78.78,1
56.00,77.48,1
132.00,76.42,1
70.00,76.31,1
72.00,76.55,1
44.00,76.33,1
71.00,75.55,1
116.00,74.96,1
87.00,75.25,1
47.00,75.77,1
80.00,75.82,1
58.00,75.53,1
43.00,74.79,1
57.00,73.41,1
44.00,71.59,1
70.00,69.61,1
88.00,68.06,1
43.00,67.02,1
47.00,65.84,1
55.00,64.35,1
72.00,62.99,1
136.00,62.64,1
106.00,64.04,1
75.00,66.49,1
51.00,68.70,1
56.00,70.03,1
60.00,70.56,1
54.00,70.53,1
88.00,70.29,1
90.00,70.43,1
112.00,71.36,1
44.00,72.66,1
90.00,73.65,1
46.00,74.19,1
127.00,74.71,1
70.00,75.69,1
58.00,76.63,1
87.00,77.06,1
118.00,77.73,1
59.00,78.84,1
72.00,79.62,1
122.00,80.26,1
62.00,81.23,1
128.00,82.36,1
44.00,83.50,1
43.00,83.73,1
102.00,83.07,1
42.00,82.20,1
52.00,80.78,1
46.00,78.62,1
42.00,75.91,1
291.00,74.84,1
54.00,77.18,1
57.00,80.18,1
56.00,81.65,1
49.00,81.87,1
47.00,81.00,1
60.00,79.33,1
46.00,77.19,1
69.00,74.84,1
80.00,72.76,1
53.00,71.11,1
103.00,69.89,1
47.00,69.18,1
77.00,68.63,1
70.00,68.17,1
62.00,67.88,1
85.00,67.72,1
68.00,67.85,1
76.00,68.15,1
94.00,68.73,1
50.00,69.49,1
42.00,69.73,1
72.00,69.30,1
76.00,68.85,1
64.00,68.61,1
103.00,68.70,1
62.00,69.25,1
52.00,69.68,1
43.00,69.42,1
87.00,68.78,1
174.00,69.26,1
60.00,71.46,1
54.00,73.65,1
52.00,74.70,1
118.00,75.31,1
82.00,76.35,1
50.00,77.36,1
46.00,77.45,1
115.00,77.09,1
63.00,77.07,1
46.00,76.87,1
132.00,76.55,1
61.00,76.85,1
153.00,77.90,1
99.00,79.99,1
105.00,82.70,1
61.00,85.09,1
88.00,86.69,1
44.00,87.36,1
182.00,87.94,1
157.00,90.15,1
42.00,93.31,1
75.00,95.23,1
127.00,96.18,1
63.00,96.97,1
115.00,97.40,1
54.00,97.37,1
77.00,96.61,1
66.00,95.11,1
57.00,93.01,1
73.00,90.43,1
55.00,87.61,1
41.00,84.41,1
89.00,81.06,1
98.00,78.46,1
63.00,76.77,1
90.00,75.54,1
49.00,74.52,1
44.00,73.20,1
148.00,72.13,1
113.00,72.68,1
95.00,74.57,1
67.00,76.61,1
45.00,77.88,1
75.00,78.19,1
84.00,78.14,1
182.00,79.04,1
68.00,81.38,1
159.00,84.41,1
56.00,87.58,1
99.00,90.15,1
90.00,91.96,1
49.00,93.01,1
86.00,92.97,1
58.00,92.17,1
103.00,91.03,1
188.00,90.90,1
49.00,92.17,1
140.00,93.61,1
76.00,94.96,1
90.00,96.00,1
80.00,96.40,1
193.00,97.17,1
111.00,99.34,1
82.00,101.80,1
84.00,103.27,1
44.00,103.38,1
86.00,102.17,1
46.00,100.03,1
74.00,97.16,1
58.00,93.85,1
44.00,90.17,1
66.00,86.13,1
60.00,82.16,1
67.00,78.51,1
102.00,75.60,1
89.00,73.87,1
72.00,73.02,1
43.00,72.24,1
97.00,71.37,1
72.00,70.91,1
156.00,71.50,1
72.00,73.37,1
62.00,75.36,1
50.00,76.40,1
145.00,77.21,1
91.00,78.83,1
98.00,80.97,1
68.00,82.85,1
57.00,83.95,1
110.00,84.42,1
80.00,84.94,1
56.00,85.22,1
42.00,84.55,1
85.00,83.10,1
62.00,81.51,1
183.00,80.85,1
144.00,82.43,1
102.00,85.65,1
216.00,89.94,1
61.00,95.16,1
44.00,99.14,1
215.00,101.89,1
53.00,104.99,1
48.00,106.90,1
109.00,106.94,1
76.00,106.24,1
62.00,104.87,1
48.00,102.41,1
139.00,99.59,1
107.00,97.74,1
54.00,96.46,1
97.00,94.88,1
56.00,93.05,1
48.00,90.70,1
73.00,87.77,1
61.00,84.75,1
77.00,81.90,1
57.00,79.27,1
47.00,76.62,1
46.00,73.70,1
175.00,71.64,1
115.00,71.94,1
48.00,73.55,1
58.00,74.57,1
65.00,74.76,1
148.00,75.21,1
83.00,76.74,1
50.00,78.38,1
68.00,79.10,1
96.00,79.37,1
66.00,79.64,1
116.00,80.06,1
112.00,81.12,1
136.00,83.19,1
62.00,85.70,1
69.00,87.50,1
87.00,88.35,1
82.00,88.76,1
84.00,88.90,1
42.00,88.48,1
193.00,88.22,1
50.00,89.07,1
46.00,89.58,1
82.00,88.85,1
206.00,88.81,1
59.00,90.42,1
73.00,91.94,1
133.00,92.84,1
53.00,93.69,1
47.00,93.61,1
100.00,92.48,1
115.00,91.56,1
47.00,90.95,1
100.00,90.03,1
79.00,89.04,1
113.00,88.42,1
110.00,88.45,1
94.00,89.08,1
41.00,89.42,1
67.00,88.73,1
122.00,87.73,1
44.00,87.00,1
65.00,85.84,1
105.00,84.43,1
55.00,83.29,1
48.00,81.85,1
44.00,79.65,1
104.00,77.32,1
45.00,75.45,1
47.00,73.53,1
114.00,71.73,1
58.00,70.74,1
62.00,70.07,1
73.00,69.35,1
92.00,68.98,1
43.00,68.91,1
114.00,68.99,1
51.00,69.43,1
112.00,70.18,1
55.00,71.16,1
39.00,71.70,1
85.00,71.54,1
47.00,71.18,1
66.00,70.56,1
113.00,70.17,1
43.00,70.33,1
101.00,70.61,1
78.00,71.15,1
73.00,71.94,1
53.00,72.45,1
128.00,72.98,1
55.00,73.98,1
87.00,74.99,1
44.00,75.53,1
162.00,76.22,1
52.00,77.72,1
59.00,78.98,1
42.00,79.07,1
46.00,78.06,1
92.00,76.58,1
77.00,75.46,1
77.00,74.79,1
195.00,75.33,1
48.00,77.52,1
55.00,79.47,1
91.00,80.39,1
91.00,81.14,1
67.00,81.83,1
92.00,82.28,1
57.00,82.44,1
116.00,82.49,1
180.00,83.69,1
47.00,86.16,1
44.00,87.82,1
128.00,88.35,1
44.00,88.68,1
62.00,88.28,1
71.00,87.03,1
41.00,85.21,1
78.00,82.93,1
44.00,80.43,1
75.00,77.87,1
55.00,75.40,1
51.00,72.99,1
42.00,70.38,1
86.00,67.89,1
86.00,66.25,1
138.00,66.08,1
139.00,67.93,1
45.00,70.91,1
49.00,73.12,1
44.00,73.93,1
45.00,73.60,1
83.00,72.70,1
69.00,71.93,1
64.00,71.33,1
94.00,70.91,1
143.00,71.52,1
104.00,73.61,1
49.00,76.09,1
52.00,77.56,1
121.00,78.38,1
44.00,79.20,1
61.00,79.43,1
127.00,79.41,1
44.00,79.74,1
46.00,79.50,1
65.00,78.35,1
60.00,76.83,1
101.00,75.50,1
76.00,74.79,1
148.00,75.10,1
68.00,76.49,1
138.00,78.50,1
72.00,80.88,1
72.00,82.93,1
48.00,83.93,1
103.00,84.15,1
44.00,84.00,1
110.00,83.59,1
64.00,83.22,1
50.00,82.57,1
74.00,81.31,1
73.00,79.91,1
78.00,78.66,1
44.00,77.37,1
72.00,75.80,1
67.00,74.20,1
108.00,73.14,1
130.00,73.33,1
49.00,74.49,1
118.00,75.77,1
76.00,77.22,1
241.00,80.00,1
102.00,84.94,1
74.00,90.18,1
70.00,93.82,1
100.00,96.08,1
258.00,99.00,1
44.00,103.40,1
60.00,106.68,1
135.00,108.12,1
70.00,108.94,1
113.00,109.17,1
66.00,108.72,1
175.00,108.26,1
62.00,108.27,1
72.00,107.77,1
99.00,106.34,1
108.00,104.86,1
62.00,103.38,1
81.00,101.43,1
66.00,98.99,1
94.00,96.39,1
113.00,94.27,1
56.00,92.64,1
178.00,91.67,1
84.00,92.00,1
76.00,92.69,1
106.00,92.97,1
157.00,93.80,1
43.00,95.16,1
78.00,95.69,1
59.00,95.07,1
147.00,94.28,1
100.00,94.31,1
172.00,95.51,1
99.00,97.77,1
182.00,100.82,1
117.00,104.60,1
75.00,108.07,1
67.00,109.91,1
201.00,111.06,1
104.00,112.99,1
96.00,114.90,1
260.00,117.15,1
133.00,121.19,1
64.00,125.14,1
57.00,126.62,1
51.00,125.45,1
108.00,122.60,1
100.00,119.41,1
86.00,116.30,1
83.00,113.03,1
85.00,109.59,1
80.00,106.10,1
54.00,102.41,1
141.00,98.94,1
173.00,97.24,1
107.00,97.63,1
40.00,98.23,1
105.00,97.84,1
45.00,96.74,1
47.00,94.71,1
68.00,91.73,1
153.00,89.22,1
48.00,87.85,1
86.00,86.67,1
128.00,85.79,1
90.00,85.86,1
71.00,86.21,1
72.00,86.13,1
57.00,85.47,1
139.00,84.83,1
99.00,85.13,1
129.00,86.40,1
64.00,88.00,1
78.00,89.07,1
47.00,89.16,1
101.00,88.53,1
87.00,87.90,1
72.00,87.39,1
77.00,86.65,1
73.00,85.70,1
125.00,85.02,1
44.00,84.72,1
81.00,84.12,1
166.00,83.96,1
86.00,85.19,1
61.00,86.60,1
72.00,87.13,1
63.00,86.86,1
162.00,86.76,1
69.00,87.61,1
73.00,88.44,1
66.00,88.47,1
90.00,87.99,1
68.00,87.32,1
49.00,86.19,1
48.00,84.24,1
91.00,81.91,1
61.00,79.85,1
74.00,78.01,1
52.00,76.18,1
48.00,74.15,1
93.00,72.14,1
43.00,70.52,1
56.00,68.90,1
68.00,67.23,1
96.00,66.13,1
43.00,65.61,1
55.00,65.00,1
69.00,64.23,1
146.00,64.32,1
130.00,66.33,1
55.00,69.50,1
64.00,72.13,1
72.00,73.84,1
64.00,74.94,1
76.00,75.58,1
56.00,75.82,1
121.00,76.04,1
42.00,76.51,1
71.00,76.61,1
84.00,76.37,1
66.00,76.19,1
97.00,76.12,1
82.00,76.37,1
90.00,76.95,1
55.00,77.46,1
43.00,77.30,1
82.00,76.45,1
53.00,75.43,1
71.00,74.29,1
121.00,73.59,1
65.00,73.76,1
110.00,74.44,1
221.00,76.69,1
45.00,80.79,1
63.00,84.33,1
52.00,86.08,1
110.00,86.86,1
101.00,87.67,1
100.00,88.79,1
46.00,89.58,1
109.00,89.69,1
44.00,89.36,1
85.00,88.48,1
55.00,87.11,1
42.00,85.14,1
130.00,83.05,1
70.00,81.80,1
54.00,80.82,1
102.00,79.71,1
64.00,78.90,1
69.00,78.14,1
45.00,77.03,1
72.00,75.55,1
68.00,74.04,1
41.00,72.51,1
48.00,70.58,1
60.00,68.41,1
82.00,66.56,1
53.00,65.25,1
85.00,64.35,1
105.00,64.25,1
110.00,65.40,1
65.00,67.35,1
188.00,70.15,1
67.00,74.17,1
68.00,78.00,1
88.00,80.73,1
72.00,82.74,1
127.00,84.51,1
44.00,86.11,1
42.00,86.60,1
133.00,86.27,1
49.00,86.12,1
51.00,85.48,1
127.00,84.47,1
42.00,83.77,1
55.00,82.68,1
96.00,81.16,1
171.00,80.78,1
52.00,81.87,1
69.00,82.83,1
46.00,82.78,1
73.00,81.94,1
69.00,80.75,1
100.00,79.74,1
119.00,79.56,1
58.00,80.06,1
66.00,80.27,1
53.00,79.79,1
139.00,79.36,1
43.00,79.50,1
60.00,79.34,1
53.00,78.37,1
42.00,76.75,1
107.00,75.00,1
75.00,73.93,1
42.00,73.15,1
121.00,72.45,1
44.00,72.23,1
70.00,71.99,1
44.00,71.30,1
56.00,70.19,1
86.00,69.03,1
44.00,68.11,1
40.00,66.92,1
178.00,66.31,1
54.00,67.39,1
54.00,68.79,1
92.00,69.68,1
46.00,70.40,1
64.00,70.67,1
46.00,70.35,1
97.00,69.87,1
62.00,69.69,1
183.00,70.60,1
76.00,73.15,1
66.00,76.00,1
51.00,77.78,1
81.00,78.61,1
52.00,78.83,1
62.00,78.42,1
67.00,77.53,1
111.00,76.82,1
74.00,76.74,1
89.00,77.02,1
61.00,77.27,1
158.00,77.96,1
44.00,79.40,1
60.00,80.39,1
112.00,80.77,1
89.00,81.48,1
71.00,82.31,1
74.00,82.74,1
69.00,82.70,1
85.00,82.39,1
72.00,82.01,1
63.00,81.41,1
50.00,80.31,1
61.00,78.67,1
83.00,76.93,1
44.00,75.29,1
96.00,73.77,1
182.00,73.64,1
48.00,75.30,1
49.00,76.78,1
133.00,77.67,1
113.00,79.33,1
45.00,81.31,1
81.00,82.48,1
45.00,82.71,1
43.00,81.91,1
58.00,80.16,1
60.00,77.99,1
224.00,77.08,1
76.00,78.68,1
60.00,80.91,1
76.00,82.18,1
69.00,82.75,1
208.00,83.95,1
104.00,86.96,1
67.00,90.37,1
118.00,92.90,1
73.00,94.87,1
127.00,96.46,1
166.00,98.56,1
55.00,101.15,1
137.00,103.19,1
61.00,104.56,1
69.00,104.84,1
41.00,103.57,1
54.00,100.88,1
63.00,97.24,1
194.00,94.35,1
74.00,93.36,1
130.00,93.44,1
58.00,93.65,1
120.00,93.74,1
115.00,94.13,1
97.00,95.00,1
115.00,96.02,1
48.00,96.73,1
135.00,96.92,1
75.00,97.11,1
37.00,96.70,1
86.00,95.12,1
131.00,93.59,1
106.00,93.08,1
145.00,93.65,1
55.00,94.72,1
96.00,95.30,1
81.00,95.29,1
74.00,94.88,1
92.00,94.08,1
42.00,92.85,1
101.00,91.11,1
174.00,90.24,1
104.00,91.17,1
111.00,92.95,1
101.00,94.77,1
48.00,96.00,1
126.00,96.42,1
59.00,96.52,1
64.00,95.95,1
194.00,95.50,1
52.00,96.17,1
57.00,96.43,1
290.00,97.22,1
206.00,101.58,1
44.00,107.72,1
43.00,111.59,1
41.00,112.24,1
169.00,111.46,1
42.00,110.65,1
187.00,110.02,1
103.00,110.20,1
102.00,110.79,1
81.00,110.78,1
115.00,110.24,1
46.00,109.12,1
154.00,107.64,1
186.00,107.43,1
103.00,108.93,1
146.00,110.92,1
41.00,112.37,1
161.00,112.97,1
262.00,114.87,1
43.00,118.54,1
119.00,121.27,1
92.00,122.41,1
235.00,123.68,1
78.00,125.84,1
157.00,127.86,1
45.00,128.77,1
159.00,128.55,1
71.00,127.72,1
71.00,125.93,1
191.00,123.75,1
314.00,124.38,1
66.00,128.06,1
108.00,131.21,1
246.00,133.62,1
92.00,136.77,1
107.00,139.08,1
65.00,139.30,1
111.00,137.73,1
156.00,135.64,1
113.00,134.00,1
170.00,132.89,1
202.00,133.08,1
70.00,134.14,1
48.00,133.71,1
319.00,132.98,1
314.00,136.29,1
80.00,142.85,1
175.00,148.48,1
56.00,151.85,1
81.00,152.41,1
148.00,150.81,1
44.00,148.10,1
190.00,144.67,1
108.00,141.68,1
92.00,138.83,1
145.00,135.69,1
244.00,134.00,1
45.00,133.89,1
156.00,133.44,1
198.00,133.27,1
59.00,133.79,1
100.00,133.19,1
65.00,131.01,1
120.00,127.90,1
69.00,124.39,1
260.00,121.90,1
145.00,122.07,1
103.00,123.56,1
78.00,124.15,1
106.00,123.49,1
49.00,121.70,1
68.00,118.55,1
109.00,114.65,1
305.00,112.78,1
158.00,114.89,1
94.00,118.63,1
54.00,120.86,1
117.00,121.17,1
49.00,120.17,1
174.00,118.65,1
220.00,118.68,1
204.00,121.60,1
127.00,126.06,1
162.00,130.40,1
237.00,135.10,1
204.00,141.16,1
108.00,147.33,1
55.00,151.06,1
59.00,151.16,1
50.00,148.05,1
91.00,142.83,1
84.00,136.75,1
58.00,130.21,1
124.00,123.61,1
162.00,118.37,1
47.00,114.57,1
107.00,110.89,1
54.00,107.03,1
105.00,103.20,1
121.00,100.06,1
49.00,97.64,1
210.00,96.12,1
96.00,96.49,1
158.00,98.22,1
76.00,100.32,1
49.00,101.55,1
159.00,101.88,1
144.00,102.99,1
252.00,106.26,1
117.00,111.57,1
159.00,117.26,1
100.00,122.12,1
88.00,125.47,1
60.00,126.62,1
61.00,125.51,1
243.00,124.03,1
55.00,123.78,1
52.00,122.83,1
52.00,119.78,1
99.00,115.61,1
125.00,111.72,1
76.00,108.58,1
126.00,105.93,1
62.00,103.65,1
62.00,101.06,1
155.00,98.57,1
57.00,96.98,1
54.00,95.23,1
364.00,95.13,1
69.00,99.04,1
116.00,103.85,1
133.00,107.65,1
73.00,110.74,1
86.00,112.43,1
60.00,112.52,1
126.00,111.59,1
180.00,111.27,1
57.00,111.84,1
132.00,112.09,1
62.00,111.74,1
74.00,110.49,1
88.00,108.34,1
124.00,106.21,1
102.00,104.70,1
180.00,104.31,1
142.00,105.56,1
83.00,107.56,1
92.00,108.81,1
86.00,109.09,1
54.00,108.31,1
184.00,107.25,1
49.00,106.80,1
73.00,105.86,1
73.00,103.84,1
104.00,101.53,1
44.00,99.10,1
93.00,96.33,1
64.00,93.46,1
46.00,90.40,1
59.00,86.84,1
208.00,84.34,1
93.00,84.34,1
93.00,85.61,1
63.00,86.57,1
85.00,86.96,1
51.00,86.71,1
69.00,85.76,1
192.00,85.36,1
45.00,86.37,1
52.00,87.04,1
52.00,86.33,1
112.00,85.15,1
127.00,84.78,1
150.00,85.97,1
81.00,88.25,1
165.00,91.00,1
82.00,94.16,1
69.00,96.74,1
48.00,97.71,1
51.00,97.00,1
72.00,95.06,1
85.00,92.76,1
70.00,90.52,1
77.00,88.32,1
61.00,86.08,1
91.00,83.93,1
104.00,82.39,1
79.00,81.63,1
55.00,80.97,1
98.00,80.17,1
55.00,79.43,1
51.00,78.39,1
79.00,76.95,1
88.00,75.77,1
222.00,76.31,1
63.00,79.14,1
77.00,82.19,1
57.00,84.06,1
127.00,85.32,1
67.00,86.58,1
57.00,87.31,1
94.00,87.24,1
64.00,86.86,1
226.00,87.41,1
80.00,89.87,1
69.00,92.54,1
127.00,94.36,1
98.00,96.10,1
108.00,97.81,1
72.00,99.07,1
65.00,99.36,1
126.00,99.00,1
66.00,98.62,1
67.00,97.74,1
83.00,96.18,1
57.00,94.21,1
121.00,92.22,1
59.00,90.61,1
56.00,88.83,1
96.00,86.74,1
100.00,85.16,1
55.00,84.05,1
83.00,82.84,1
207.00,82.71,1
98.00,84.81,1
47.00,87.32,1
80.00,88.58,1
99.00,89.13,1
158.00,90.21,1
131.00,92.59,1
121.00,95.82,1
148.00,99.44,1
110.00,103.25,1
57.00,106.25,1
45.00,107.23,1
91.00,106.38,1
68.00,104.67,1
77.00,102.41,1
119.00,100.13,1
151.00,98.93,1
253.00,100.33,1
138.00,104.71,1
79.00,109.59,1
75.00,112.75,1
109.00,114.21,1
85.00,114.66,1
58.00,114.00,1
86.00,112.09,1
185.00,110.36,1
86.00,109.87,1
299.00,111.30,1
106.00,115.25,1
61.00,119.18,1
103.00,120.94,1
132.00,121.56,1
44.00,121.42,1
52.00,119.55,1
67.00,115.95,1
72.00,111.50,1
70.00,106.76,1
45.00,101.75,1
51.00,96.32,1
70.00,90.79,1
66.00,85.71,1
58.00,81.17,1
39.00,76.85,1
75.00,72.78,1
43.00,69.19,1
61.00,66.02,1
90.00,63.53,1
186.00,63.07,1
114.00,65.45,1
62.00,69.02,1
122.00,72.44,1
154.00,76.45,1
39.00,80.85,1
238.00,85.41,1
94.00,91.11,1
134.00,97.07,1
175.00,102.82,1
69.00,108.37,1
70.00,112.18,1
82.00,113.75,1
138.00,114.25,1
135.00,114.93,1
73.00,115.62,1
60.00,115.14,1
57.00,113.01,1
278.00,111.40,1
41.00,111.90,1
47.00,111.95,1
152.00,110.66,1
42.00,109.27,1
192.00,108.14,1
66.00,107.77,1
68.00,107.17,1
106.00,105.71,1
132.00,104.51,1
95.00,103.99,1
90.00,103.56,1
191.00,103.67,1
118.00,105.22,1
89.00,107.19,1
37.00,107.87,1
70.00,106.75,1
48.00,104.22,1
177.00,101.68,1
104.00,100.58,1
65.00,100.14,1
44.00,98.77,1
215.00,97.51,1
83.00,97.92,1
51.00,98.57,1
209.00,99.07,1
105.00,100.92,1
50.00,102.86,1
106.00,103.50,1
193.00,104.33,1
70.00,106.15,1
117.00,107.75,1
53.00,108.36,1
47.00,107.45,1
60.00,104.89,1
55.00,101.30,1
266.00,98.83,1
49.00,98.96,1
76.00,99.43,1
73.00,98.76,1
53.00,97.24,1
50.00,94.76,1
127.00,92.06,1
49.00,89.88,1
55.00,87.56,1
100.00,85.04,1
214.00,84.19,1
102.00,86.02,1
324.00,90.71,1
310.00,100.08,1
217.00,113.61,1
157.00,127.59,1
72.00,138.98,1
152.00,146.73,1
68.00,151.43,1
80.00,153.01,1
83.00,151.70,1
97.00,148.50,1
153.00,144.70,1
52.00,140.79,1
88.00,136.01,1
116.00,130.72,1
129.00,126.08,1
191.00,123.06,1
82.00,121.61,1
97.00,120.23,1
67.00,118.02,1
58.00,114.83,1
147.00,111.32,1
61.00,108.39,1
123.00,105.81,1
62.00,103.41,1
178.00,101.68,1
105.00,101.33,1
97.00,101.73,1
91.00,101.89,1
126.00,102.00,1
48.00,101.93,1
67.00,100.89,1
94.00,99.02,1
100.00,97.26,1
71.00,95.73,1
76.00,94.02,1
120.00,92.45,1
46.00,91.19,1
99.00,89.78,1
59.00,88.25,1
126.00,87.00,1
103.00,86.61,1
93.00,86.96,1
73.00,87.35,1
96.00,87.52,1
158.00,88.26,1
230.00,91.23,1
86.00,96.32,1
54.00,100.78,1
85.00,103.14,1
161.00,104.70,1
53.00,106.22,1
78.00,106.72,1
148.00,106.52,1
123.00,106.97,1
230.00,108.94,1
118.00,112.64,1
100.00,116.41,1
55.00,118.51,1
59.00,118.40,1
103.00,116.67,1
51.00,114.09,1
135.00,111.18,1
76.00,108.56,1
170.00,106.77,1
51.00,105.74,1
212.00,105.47,1
52.00,106.14,1
85.00,106.45,1
47.00,105.37,1
175.00,103.98,1
53.00,103.21,1
66.00,102.08,1
128.00,100.43,1
171.00,99.93,1
100.00,100.99,1
157.00,102.82,1
60.00,104.73,1
56.00,105.46,1
105.00,104.81,1
108.00,103.95,1
114.00,103.45,1
52.00,102.85,1
300.00,103.29,1
79.00,106.27,1
128.00,109.87,1
81.00,112.42,1
55.00,113.47,1
136.00,113.22,1
315.00,114.59,1
51.00,118.61,1
66.00,121.74,1
155.00,122.89,1
70.00,123.38,1
152.00,123.36,1
85.00,123.07,1
234.00,123.37,1
102.00,124.96,1
168.00,127.05,1
62.00,128.57,1
324.00,130.58,1
49.00,134.06,1
68.00,136.32,1
160.00,136.36,1
223.00,136.93,1
91.00,138.60,1
88.00,139.35,1
188.00,139.07,1
211.00,139.84,1
155.00,142.13,1
206.00,145.19,1
55.00,147.86,1
85.00,148.31,1
69.00,146.11,1
96.00,142.25,1
127.00,137.81,1
52.00,133.19,1
111.00,128.11,1
327.00,124.97,1
178.00,126.26,1
342.00,131.56,1
97.00,139.18,1
140.00,145.95,1
364.00,152.40,1
107.00,160.34,1
54.00,166.28,1
53.00,167.44,1
380.00,167.25,1
117.00,169.25,1
357.00,173.23,1
237.00,179.35,1
351.00,187.87,1
227.00,197.80,1
412.00,208.88,1
67.00,219.63,1
168.00,226.41,1
86.00,228.10,1
233.00,226.54,1
66.00,222.95,1
77.00,216.51,1
57.00,206.71,1
88.00,194.73,1
421.00,184.59,1
586.00,183.36,1
90.00,190.22,1
437.00,199.09,1
292.00,209.67,1
102.00,220.06,1
212.00,226.50,1
994.00,236.49,1
297.00,256.92,1
160.00,278.45,1
65.00,291.22,1
390.00,296.93,1
913.00,306.00,1
204.00,322.85,1
65.00,336.45,1
408.00,341.76,1
264.00,343.91,1
458.00,345.70,1
264.00,347.57,1
493.00,349.73,1
55.00,350.59,1
79.00,345.25,1
572.00,336.25,1
400.00,331.73,1
121.00,329.67,1
739.00,328.63,1
384.00,333.37,1
546.00,342.93,1
420.00,354.51,1
342.00,365.88,1
467.00,375.41,1
54.00,381.21,1
365.00,380.73,1
326.00,376.95,1
508.00,374.21,1
52.00,371.28,1
89.00,362.58,1
475.00,349.78,1
184.00,338.60,1
192.00,327.47,1
125.00,313.89,1
74.00,297.44,1
457.00,281.12,1
497.00,271.71,1
75.00,268.18,1
58.00,262.45,1
266.00,253.17,1
339.00,245.42,1
62.00,239.76,1
195.00,232.97,1
471.00,227.74,1
87.00,226.39,1
304.00,225.73,1
176.00,224.96,1
463.00,226.18,1
497.00,232.93,1
105.00,243.28,1
329.00,251.67,1
123.00,257.01,1
359.00,260.29,1
376.00,264.23,1
72.00,268.28,1
136.00,267.89,1
583.00,266.39,1
75.00,267.81,1
111.00,267.01,1
247.00,262.05,1
150.00,255.87,1
312.00,249.82,1
53.00,243.80,1
395.00,237.88,1
492.00,236.54,1
103.00,239.99,1
120.00,241.43,1
53.00,237.76,1
84.00,229.65,1
381.00,220.86,1
354.00,216.85,1
75.00,216.25,1
53.00,213.21,1
305.00,207.86,1
127.00,203.46,1
112.00,198.92,1
52.00,192.21,1
312.00,185.09,1
48.00,179.55,1
76.00,173.41,1
230.00,166.55,1
129.00,161.33,1
82.00,156.73,1
49.00,150.85,1
149.00,144.10,1
159.00,138.39,1
93.00,134.11,1
92.00,130.04,1
60.00,125.42,1
66.00,120.04,1
207.00,115.28,1
163.00,113.19,1
159.00,113.60,1
113.00,115.07,1
168.00,116.95,1
146.00,119.44,1
170.00,122.60,1
132.00,126.06,1
70.00,128.68,1
148.00,129.88,1
81.00,130.19,1
44.00,129.02,1
101.00,126.09,1
153.00,122.99,1
88.00,120.66,1
112.00,118.55,1
193.00,117.20,1
43.00,116.77,1
128.00,115.94,1
61.00,114.46,1
68.00,112.17,1
69.00,108.90,1
40.00,104.86,1
35.00,99.84,1
117.00,94.59,1
141.00,90.86,1
78.00,88.97,1
