132.00,173.23,1
164.00,171.15,1
79.00,168.36,1
47.00,163.67,1
63.00,156.64,1
99.00,148.34,1
154.00,140.54,1
46.00,133.72,1
144.00,127.33,1
83.00,121.71,1
191.00,117.56,1
131.00,115.46,1
151.00,115.04,1
513.00,118.75,1
68.00,127.95,1
52.00,136.50,1
65.00,140.44,1
229.00,142.19,1
55.00,143.59,1
121.00,143.70,1
235.00,143.43,1
64.00,143.90,1
226.00,144.37,1
54.00,144.67,1
187.00,144.41,1
392.00,146.26,1
127.00,151.91,1
204.00,158.22,1
127.00,163.25,1
52.00,165.88,1
51.00,164.75,1
234.00,161.64,1
85.00,158.92,1
289.00,157.34,1
58.00,156.89,1
42.00,155.05,1
416.00,153.14,1
408.00,157.33,1
142.00,166.71,1
185.00,175.57,1
76.00,181.36,1
189.00,184.09,1
69.00,184.37,1
53.00,181.63,1
64.00,175.46,1
41.00,166.80,1
389.00,159.13,1
87.00,155.55,1
218.00,154.14,1
53.00,152.73,1
94.00,150.05,1
557.00,149.65,1
552.00,159.04,1
135.00,175.90,1
204.00,191.37,1
129.00,202.35,1
224.00,209.65,1
104.00,213.87,1
57.00,214.05,1
130.00,209.88,1
107.00,203.26,1
152.00,195.60,1
57.00,187.14,1
234.00,178.66,1
404.00,174.00,1
43.00,173.72,1
91.00,172.56,1
487.00,171.86,1
85.00,175.21,1
93.00,178.16,1
82.00,177.41,1
162.00,174.42,1
52.00,170.13,1
69.00,164.02,1
225.00,157.37,1
118.00,152.38,1
454.00,151.12,1
150.00,154.86,1
389.00,162.07,1
199.00,171.53,1
48.00,179.94,1
75.00,183.41,1
185.00,183.18,1
237.00,182.58,1
391.00,184.79,1
662.00,194.31,1
56.00,209.82,1
352.00,223.97,1
406.00,236.97,1
118.00,249.62,1
232.00,258.19,1
256.00,263.07,1
277.00,266.52,1
53.00,267.45,1
45.00,262.89,1
158.00,253.24,1
49.00,240.92,1
55.00,226.13,1
186.00,210.23,1
235.00,196.67,1
236.00,187.23,1
303.00,182.25,1
211.00,181.15,1
414.00,183.76,1
78.00,188.94,1
139.00,192.49,1
220.00,193.58,1
70.00,193.37,1
56.00,190.25,1
340.00,185.89,1
123.00,183.53,1
92.00,181.27,1
126.00,177.13,1
54.00,171.40,1
117.00,164.26,1
49.00,156.18,1
73.00,147.26,1
198.00,138.85,1
228.00,133.63,1
114.00,131.59,1
101.00,130.31,1
202.00,129.31,1
55.00,128.90,1
78.00,127.55,1
145.00,125.24,1
99.00,123.21,1
160.00,121.74,1
149.00,121.31,1
204.00,122.45,1
140.00,125.03,1
107.00,127.74,1
107.00,129.39,1
59.00,129.51,1
144.00,128.35,1
42.00,126.44,1
127.00,123.74,1
43.00,120.40,1
164.00,116.99,1
70.00,114.18,1
132.00,111.87,1
184.00,110.71,1
225.00,112.17,1
86.00,115.54,1
158.00,118.87,1
49.00,121.21,1
92.00,121.86,1
148.00,121.47,1
53.00,120.81,1
151.00,119.65,1
122.00,118.76,1
47.00,117.80,1
121.00,115.96,1
167.00,114.50,1
44.00,113.73,1
168.00,112.88,1
59.00,112.13,1
41.00,110.55,1
222.00,108.69,1
42.00,108.03,1
50.00,106.90,1
58.00,104.17,1
166.00,101.40,1
58.00,99.64,1
82.00,98.02,1
205.00,97.08,1
130.00,98.31,1
89.00,100.59,1
49.00,101.94,1
140.00,102.30,1
244.00,103.94,1
117.00,107.92,1
214.00,113.09,1
248.00,119.90,1
42.00,127.32,1
113.00,132.43,1
111.00,135.04,1
85.00,136.03,1
134.00,135.71,1
46.00,134.28,1
59.00,131.09,1
157.00,126.99,1
58.00,123.23,1
92.00,119.31,1
61.00,114.90,1
74.00,110.12,1
122.00,105.59,1
52.00,101.70,1
37.00,97.56,1
142.00,93.40,1
204.00,91.49,1
84.00,92.24,1
86.00,93.56,1
72.00,94.17,1
71.00,94.00,1
75.00,93.16,1
49.00,91.67,1
66.00,89.47,1
169.00,87.74,1
52.00,87.31,1
96.00,87.15,1
50.00,86.57,1
114.00,85.83,1
75.00,85.35,1
141.00,85.51,1
100.00,86.58,1
55.00,87.80,1
37.00,87.87,1
55.00,86.53,1
75.00,84.49,1
161.00,83.17,1
69.00,83.27,1
114.00,84.02,1
35.00,84.55,1
40.00,84.01,1
64.00,82.30,1
51.00,80.09,1
91.00,77.89,1
46.00,75.94,1
127.00,74.52,1
218.00,75.27,1
57.00,78.48,1
262.00,83.28,1
59.00,89.46,1
80.00,95.01,1
60.00,98.36,1
139.00,100.46,1
296.00,103.99,1
201.00,111.00,1
96.00,119.22,1
178.00,126.25,1
430.00,134.73,1
65.00,145.85,1
42.00,154.44,1
60.00,157.51,1
54.00,156.40,1
128.00,152.83,1
141.00,148.77,1
36.00,144.46,1
62.00,138.69,1
73.00,131.61,1
66.00,124.14,1
100.00,116.88,1
103.00,110.55,1
54.00,105.06,1
43.00,99.51,1
118.00,94.14,1
152.00,90.51,1
126.00,89.29,1
127.00,89.81,1
61.00,90.88,1
40.00,91.08,1
37.00,89.69,1
141.00,87.77,1
86.00,86.77,1
96.00,86.52,1
78.00,86.41,1
114.00,86.50,1
104.00,87.10,1
53.00,87.77,1
55.00,87.56,1
46.00,86.23,1
68.00,84.15,1
86.00,81.99,1
132.00,80.72,1
108.00,80.88,1
73.00,81.82,1
72.00,82.53,1
50.00,82.54,1
107.00,82.12,1
81.00,81.93,1
36.00,81.60,1
71.00,80.50,1
67.00,79.01,1
104.00,77.83,1
64.00,77.16,1
119.00,77.00,1
84.00,77.54,1
136.00,78.89,1
102.00,81.11,1
133.00,84.02,1
56.00,86.97,1
81.00,89.03,1
60.00,89.95,1
190.00,90.91,1
68.00,92.86,1
57.00,94.43,1
110.00,94.90,1
65.00,94.95,1
78.00,94.48,1
42.00,93.17,1
54.00,90.87,1
56.00,87.81,1
55.00,84.41,1
48.00,80.80,1
47.00,77.02,1
37.00,73.08,1
56.00,69.13,1
46.00,65.46,1
112.00,62.65,1
107.00,61.57,1
40.00,61.74,1
72.00,61.98,1
48.00,62.02,1
39.00,61.71,1
108.00,61.37,1
116.00,62.15,1
161.00,64.85,1
94.00,69.16,1
66.00,73.58,1
123.00,77.40,1
53.00,80.75,1
91.00,83.27,1
62.00,84.88,1
48.00,85.46,1
128.00,85.44,1
68.00,85.66,1
55.00,85.64,1
123.00,85.28,1
50.00,85.08,1
37.00,84.26,1
70.00,82.44,1
37.00,80.10,1
54.00,77.30,1
139.00,74.96,1
55.00,73.90,1
98.00,73.54,1
50.00,73.31,1
38.00,72.67,1
70.00,71.40,1
74.00,70.15,1
68.00,69.25,1
127.00,69.06,1
99.00,70.13,1
59.00,71.79,1
123.00,73.49,1
41.00,75.22,1
39.00,76.06,1
97.00,75.96,1
127.00,76.35,1
66.00,77.57,1
110.00,78.98,1
64.00,80.33,1
76.00,81.31,1
65.00,81.68,1
39.00,81.27,1
68.00,80.01,1
75.00,78.47,1
66.00,77.05,1
127.00,76.19,1
55.00,76.11,1
70.00,76.08,1
146.00,76.35,1
136.00,78.16,1
69.00,80.98,1
37.00,83.01,1
239.00,84.96,1
52.00,88.33,1
73.00,91.41,1
153.00,93.62,1
51.00,95.76,1
94.00,97.10,1
42.00,97.25,1
106.00,96.49,1
67.00,95.37,1
74.00,93.97,1
158.00,92.88,1
101.00,93.04,1
211.00,94.81,1
164.00,98.70,1
43.00,103.21,1
48.00,105.67,1
39.00,105.51,1
127.00,103.98,1
131.00,102.89,1
86.00,102.59,1
51.00,101.90,1
102.00,100.40,1
129.00,99.11,1
41.00,98.18,1
43.00,96.31,1
36.00,93.04,1
229.00,90.32,1
39.00,89.69,1
100.00,89.62,1
100.00,89.40,1
117.00,89.73,1
96.00,90.58,1
56.00,91.24,1
107.00,91.34,1
48.00,91.02,1
54.00,89.89,1
56.00,87.79,1
129.00,85.74,1
36.00,84.24,1
98.00,82.79,1
59.00,81.35,1
65.00,79.89,1
55.00,78.15,1
66.00,76.24,1
55.00,74.26,1
76.00,72.39,1
49.00,70.68,1
111.00,69.41,1
70.00,68.97,1
81.00,69.10,1
35.00,69.12,1
199.00,69.75,1
62.00,72.01,1
53.00,74.46,1
103.00,76.10,1
36.00,77.26,1
116.00,78.00,1
74.00,78.81,1
90.00,79.74,1
71.00,80.50,1
120.00,81.33,1
85.00,82.55,1
101.00,83.97,1
43.00,85.01,1
80.00,85.18,1
41.00,84.52,1
235.00,84.50,1
207.00,87.63,1
51.00,92.92,1
215.00,98.20,1
122.00,103.95,1
90.00,109.43,1
39.00,112.77,1
89.00,113.69,1
123.00,113.46,1
63.00,112.81,1
70.00,111.23,1
35.00,108.30,1
181.00,105.15,1
62.00,103.08,1
44.00,100.98,1
134.00,98.38,1
105.00,96.60,1
70.00,95.47,1
78.00,94.13,1
87.00,92.58,1
93.00,91.20,1
114.00,90.33,1
77.00,89.98,1
87.00,89.67,1
88.00,89.27,1
47.00,88.58,1
46.00,87.01,1
60.00,84.58,1
92.00,82.07,1
58.00,79.95,1
42.00,77.76,1
47.00,75.09,1
125.00,72.74,1
48.00,71.40,1
60.00,70.34,1
92.00,69.36,1
50.00,68.75,1
79.00,68.26,1
38.00,67.66,1
40.00,66.57,1
48.00,64.91,1
40.00,62.96,1
38.00,60.77,1
119.00,59.03,1
138.00,59.18,1
64.00,61.16,1
57.00,63.32,1
70.00,64.91,1
118.00,66.59,1
46.00,68.58,1
123.00,70.57,1
57.00,72.64,1
92.00,74.54,1
47.00,75.89,1
63.00,76.47,1
106.00,76.69,1
195.00,78.21,1
67.00,81.44,1
77.00,84.56,1
108.00,86.85,1
126.00,89.19,1
48.00,91.39,1
75.00,92.49,1
36.00,92.19,1
162.00,91.47,1
63.00,91.39,1
50.00,91.10,1
79.00,89.86,1
55.00,88.12,1
56.00,85.91,1
237.00,84.73,1
45.00,85.80,1
77.00,87.11,1
150.00,88.12,1
104.00,89.96,1
44.00,91.71,1
76.00,92.22,1
128.00,92.23,1
42.00,92.28,1
57.00,91.50,1
160.00,90.48,1
52.00,90.27,1
92.00,90.06,1
150.00,90.12,1
92.00,91.19,1
107.00,92.64,1
134.00,94.32,1
224.00,97.42,1
36.00,101.68,1
78.00,104.63,1
37.00,105.30,1
41.00,103.92,1
162.00,101.76,1
53.00,100.21,1
35.00,98.22,1
99.00,95.29,1
115.00,92.79,1
79.00,91.20,1
52.00,89.66,1
127.00,88.09,1
124.00,87.54,1
52.00,87.76,1
90.00,87.65,1
68.00,87.15,1
62.00,86.27,1
105.00,85.20,1
64.00,84.36,1
165.00,84.22,1
152.00,85.85,1
73.00,88.74,1
87.00,91.19,1
57.00,92.54,1
48.00,92.55,1
68.00,91.32,1
101.00,89.71,1
75.00,88.38,1
64.00,87.05,1
126.00,85.88,1
99.00,85.58,1
107.00,86.09,1
170.00,87.62,1
63.00,90.11,1
38.00,91.78,1
52.00,91.59,1
168.00,90.98,1
48.00,91.12,1
44.00,90.76,1
110.00,89.52,1
76.00,88.43,1
124.00,87.87,1
43.00,87.57,1
77.00,86.82,1
97.00,85.80,1
113.00,85.37,1
120.00,85.87,1
75.00,86.97,1
128.00,88.21,1
64.00,89.50,1
96.00,90.43,1
66.00,90.81,1
63.00,90.50,1
38.00,89.17,1
78.00,87.00,1
142.00,85.26,1
93.00,84.89,1
58.00,84.99,1
42.00,84.34,1
37.00,82.52,1
103.00,80.22,1
121.00,78.83,1
51.00,78.44,1
58.00,77.88,1
49.00,76.65,1
195.00,76.10,1
108.00,77.70,1
88.00,80.47,1
42.00,82.60,1
55.00,83.38,1
38.00,82.75,1
99.00,81.44,1
95.00,80.49,1
98.00,80.31,1
82.00,80.60,1
56.00,80.79,1
74.00,80.46,1
73.00,79.85,1
90.00,79.31,1
63.00,78.89,1
68.00,78.30,1
44.00,77.28,1
53.00,75.67,1
179.00,74.66,1
38.00,75.15,1
64.00,75.67,1
75.00,75.55,1
48.00,75.12,1
72.00,74.32,1
72.00,73.44,1
38.00,72.44,1
65.00,71.04,1
46.00,69.40,1
55.00,67.61,1
238.00,67.26,1
53.00,69.62,1
116.00,72.94,1
51.00,75.82,1
53.00,77.75,1
74.00,78.53,1
45.00,78.56,1
190.00,78.91,1
82.00,80.78,1
63.00,82.98,1
251.00,85.70,1
42.00,89.98,1
114.00,93.96,1
145.00,97.31,1
56.00,100.45,1
37.00,101.94,1
65.00,101.31,1
312.00,101.45,1
56.00,104.36,1
184.00,108.15,1
137.00,112.08,1
91.00,115.91,1
47.00,118.02,1
66.00,117.80,1
84.00,115.88,1
154.00,113.80,1
41.00,112.04,1
64.00,109.46,1
91.00,106.01,1
169.00,103.33,1
133.00,102.52,1
38.00,102.43,1
55.00,101.15,1
119.00,99.04,1
115.00,97.53,1
64.00,96.57,1
73.00,95.26,1
39.00,93.17,1
119.00,90.74,1
59.00,88.66,1
62.00,86.62,1
140.00,84.88,1
100.00,84.41,1
68.00,84.64,1
107.00,84.86,1
37.00,84.85,1
119.00,84.51,1
103.00,84.59,1
51.00,84.96,1
41.00,84.46,1
87.00,83.09,1
176.00,82.54,1
114.00,84.00,1
89.00,86.42,1
53.00,88.25,1
36.00,88.61,1
44.00,87.34,1
53.00,84.94,1
55.00,81.98,1
80.00,79.03,1
49.00,76.35,1
62.00,73.78,1
38.00,71.12,1
73.00,68.48,1
49.00,66.14,1
43.00,63.95,1
182.00,62.79,1
39.00,63.55,1
49.00,64.58,1
71.00,64.95,1
82.00,65.33,1
45.00,65.78,1
44.00,65.73,1
59.00,65.10,1
100.00,64.63,1
43.00,64.64,1
37.00,64.35,1
116.00,63.93,1
35.00,64.02,1
36.00,63.80,1
71.00,63.00,1
39.00,62.10,1
71.00,61.19,1
76.00,60.59,1
121.00,60.98,1
84.00,62.60,1
97.00,64.96,1
59.00,67.38,1
71.00,69.36,1
136.00,71.36,1
56.00,73.82,1
57.00,75.76,1
100.00,76.97,1
44.00,77.82,1
46.00,77.83,1
70.00,76.96,1
71.00,75.87,1
49.00,74.70,1
86.00,73.44,1
94.00,72.65,1
84.00,72.62,1
40.00,72.69,1
93.00,72.46,1
37.00,72.07,1
42.00,71.10,1
96.00,69.82,1
101.00,69.30,1
104.00,69.96,1
73.00,71.31,1
65.00,72.58,1
62.00,73.33,1
86.00,73.74,1
60.00,74.05,1
60.00,74.04,1
72.00,73.66,1
57.00,73.09,1
59.00,72.27,1
40.00,71.02,1
42.00,69.22,1
70.00,67.17,1
64.00,65.42,1
254.00,65.67,1
105.00,69.29,1
91.00,74.37,1
88.00,78.87,1
66.00,82.43,1
63.00,84.75,1
88.00,86.02,1
168.00,87.51,1
38.00,89.56,1
40.00,90.50,1
43.00,89.55,1
140.00,88.06,1
119.00,87.68,1
47.00,88.01,1
112.00,88.03,1
81.00,88.05,1
34.00,87.70,1
147.00,86.98,1
119.00,87.25,1
38.00,88.08,1
155.00,88.69,1
54.00,89.55,1
49.00,89.81,1
50.00,88.71,1
57.00,86.65,1
92.00,84.34,1
48.00,82.18,1
122.00,80.38,1
69.00,79.35,1
102.00,78.93,1
51.00,78.68,1
88.00,78.31,1
50.00,77.72,1
115.00,77.21,1
209.00,78.31,1
70.00,81.58,1
40.00,84.59,1
120.00,86.30,1
64.00,87.59,1
56.00,88.18,1
36.00,87.47,1
121.00,86.08,1
87.00,85.20,1
105.00,85.02,1
62.00,85.04,1
68.00,84.70,1
71.00,83.85,1
60.00,82.67,1
84.00,81.30,1
43.00,79.82,1
130.00,78.53,1
94.00,78.24,1
88.00,78.79,1
53.00,79.27,1
82.00,79.30,1
135.00,79.61,1
146.00,81.32,1
37.00,83.78,1
37.00,85.01,1
73.00,84.64,1
87.00,83.79,1
138.00,83.56,1
62.00,84.13,1
56.00,84.42,1
68.00,83.84,1
137.00,83.35,1
87.00,83.79,1
52.00,84.35,1
36.00,83.85,1
49.00,82.13,1
59.00,79.69,1
39.00,76.91,1
38.00,73.70,1
90.00,70.52,1
63.00,68.09,1
118.00,66.75,1
44.00,66.38,1
43.00,65.96,1
94.00,65.31,1
96.00,65.36,1
52.00,66.05,1
42.00,66.38,1
41.00,65.89,1
94.00,65.14,1
171.00,65.73,1
38.00,67.94,1
65.00,69.96,1
38.00,70.88,1
151.00,71.64,1
44.00,73.03,1
38.00,73.97,1
80.00,73.88,1
71.00,73.58,1
41.00,73.11,1
76.00,72.22,1
74.00,71.36,1
57.00,70.67,1
48.00,69.76,1
40.00,68.35,1
36.00,66.37,1
56.00,64.06,1
79.00,62.07,1
69.00,60.85,1
117.00,60.67,1
110.00,61.96,1
170.00,65.09,1
37.00,69.34,1
43.00,72.65,1
216.00,75.56,1
52.00,79.64,1
82.00,83.43,1
92.00,86.08,1
103.00,88.30,1
132.00,90.63,1
133.00,93.54,1
114.00,96.89,1
68.00,99.79,1
41.00,101.07,1
204.00,101.63,1
129.00,103.46,1
51.00,105.68,1
127.00,106.83,1
114.00,107.63,1
105.00,108.49,1
127.00,109.28,1
96.00,110.03,1
96.00,110.39,1
53.00,109.82,1
37.00,107.72,1
69.00,104.17,1
67.00,100.03,1
39.00,95.57,1
37.00,90.53,1
74.00,85.25,1
168.00,81.35,1
39.00,79.43,1
49.00,77.77,1
57.00,75.54,1
58.00,73.17,1
51.00,70.80,1
101.00,68.81,1
74.00,67.73,1
98.00,67.54,1
75.00,68.02,1
137.00,69.32,1
82.00,71.58,1
37.00,73.73,1
89.00,74.95,1
57.00,75.64,1
115.00,76.29,1
119.00,77.62,1
42.00,79.33,1
121.00,80.68,1
84.00,82.09,1
49.00,83.24,1
88.00,83.59,1
60.00,83.45,1
70.00,82.88,1
51.00,81.78,1
50.00,80.06,1
96.00,78.15,1
93.00,76.89,1
169.00,77.13,1
74.00,78.94,1
36.00,80.62,1
95.00,81.22,1
57.00,81.33,1
92.00,81.21,1
112.00,81.36,1
49.00,81.80,1
46.00,81.55,1
247.00,81.86,1
124.00,84.93,1
101.00,89.37,1
64.00,93.02,1
76.00,95.21,1
40.00,95.85,1
53.00,94.88,1
106.00,93.08,1
54.00,91.26,1
45.00,89.00,1
147.00,86.74,1
59.00,85.45,1
43.00,84.19,1
87.00,82.35,1
59.00,80.51,1
172.00,79.58,1
72.00,80.17,1
40.00,80.92,1
49.00,80.47,1
86.00,79.30,1
64.00,78.15,1
49.00,76.86,1
45.00,75.05,1
127.00,73.38,1
64.00,72.70,1
94.00,72.67,1
72.00,72.92,1
142.00,73.84,1
69.00,75.63,1
42.00,77.16,1
182.00,78.53,1
42.00,80.70,1
145.00,83.08,1
37.00,85.19,1
48.00,86.17,1
82.00,85.84,1
36.00,84.80,1
36.00,82.78,1
79.00,80.04,1
198.00,78.54,1
36.00,79.05,1
138.00,80.20,1
104.00,81.87,1
74.00,83.90,1
51.00,85.16,1
62.00,85.28,1
76.00,84.62,1
84.00,83.78,1
45.00,82.76,1
194.00,82.29,1
186.00,84.34,1
38.00,88.12,1
90.00,90.99,1
86.00,92.67,1
40.00,93.38,1
75.00,92.82,1
36.00,91.19,1
80.00,88.80,1
58.00,86.15,1
71.00,83.49,1
127.00,81.41,1
61.00,80.34,1
67.00,79.49,1
73.00,78.42,1
42.00,77.13,1
40.00,75.22,1
62.00,72.81,1
118.00,70.91,1
48.00,69.97,1
85.00,69.42,1
103.00,69.36,1
88.00,70.17,1
94.00,71.54,1
76.00,73.13,1
64.00,74.48,1
57.00,75.20,1
54.00,75.17,1
68.00,74.59,1
74.00,73.86,1
109.00,73.55,1
73.00,73.91,1
76.00,74.47,1
51.00,74.72,1
42.00,74.24,1
54.00,72.99,1
82.00,71.54,1
79.00,70.53,1
166.00,70.79,1
75.00,72.65,1
77.00,74.91,1
89.00,76.78,1
129.00,78.83,1
60.00,81.15,1
54.00,82.73,1
91.00,83.33,1
91.00,83.74,1
63.00,84.06,1
63.00,83.84,1
67.00,83.01,1
43.00,81.62,1
73.00,79.72,1
68.00,77.77,1
42.00,75.79,1
37.00,73.33,1
122.00,71.01,1
87.00,69.94,1
86.00,69.98,1
236.00,71.80,1
167.00,76.83,1
44.00,83.21,1
186.00,88.96,1
82.00,94.50,1
41.00,98.81,1
41.00,100.50,1
113.00,100.41,1
54.00,99.67,1
130.00,98.71,1
39.00,97.63,1
80.00,95.95,1
50.00,93.55,1
150.00,91.35,1
58.00,90.04,1
68.00,88.83,1
93.00,87.35,1
182.00,86.93,1
65.00,88.08,1
41.00,88.95,1
55.00,88.33,1
120.00,87.19,1
194.00,87.47,1
56.00,89.45,1
154.00,91.80,1
39.00,93.89,1
74.00,94.90,1
52.00,94.50,1
39.00,92.85,1
100.00,90.42,1
155.00,88.85,1
60.00,88.62,1
40.00,88.11,1
40.00,86.30,1
106.00,83.93,1
60.00,81.94,1
112.00,80.51,1
62.00,79.62,1
36.00,78.56,1
90.00,77.00,1
60.00,75.56,1
121.00,74.70,1
49.00,74.48,1
67.00,74.22,1
57.00,73.54,1
104.00,72.96,1
105.00,73.16,1
60.00,73.99,1
73.00,74.64,1
61.00,74.88,1
127.00,75.24,1
69.00,76.21,1
116.00,77.58,1
50.00,78.96,1
49.00,79.58,1
98.00,79.45,1
102.00,79.59,1
43.00,79.93,1
42.00,79.43,1
130.00,78.55,1
58.00,78.27,1
40.00,77.83,1
85.00,76.76,1
58.00,75.63,1
115.00,74.89,1
80.00,74.88,1
42.00,75.03,1
38.00,74.32,1
53.00,72.73,1
37.00,70.63,1
71.00,68.32,1
57.00,66.26,1
71.00,64.63,1
69.00,63.46,1
69.00,62.77,1
64.00,62.42,1
55.00,62.17,1
59.00,61.85,1
47.00,61.37,1
60.00,60.75,1
37.00,59.95,1
58.00,58.94,1
86.00,58.20,1
92.00,58.39,1
164.00,60.18,1
48.00,63.41,1
48.00,66.32,1
45.00,67.88,1
70.00,68.54,1
118.00,69.28,1
82.00,70.76,1
49.00,72.28,1
92.00,73.30,1
81.00,74.24,1
77.00,75.24,1
127.00,76.50,1
119.00,78.66,1
63.00,81.25,1
56.00,83.01,1
38.00,83.36,1
74.00,82.57,1
46.00,81.16,1
108.00,79.66,1
46.00,78.44,1
104.00,77.43,1
57.00,76.67,1
65.00,75.90,1
49.00,74.75,1
49.00,73.15,1
120.00,71.72,1
79.00,71.31,1
46.00,71.32,1
68.00,70.94,1
66.00,70.36,1
58.00,69.73,1
155.00,69.73,1
66.00,71.02,1
93.00,72.80,1
46.00,74.20,1
138.00,75.48,1
83.00,77.31,1
39.00,78.98,1
96.00,79.76,1
105.00,80.49,1
48.00,81.31,1
103.00,81.76,1
90.00,82.25,1
36.00,82.53,1
88.00,82.08,1
84.00,81.47,1
94.00,81.21,1
53.00,81.01,1
56.00,80.30,1
42.00,78.80,1
132.00,77.31,1
50.00,76.56,1
49.00,75.79,1
135.00,75.03,1
48.00,75.01,1
84.00,75.12,1
40.00,74.83,1
67.00,74.04,1
112.00,73.35,1
79.00,73.47,1
116.00,74.32,1
84.00,75.77,1
45.00,77.09,1
79.00,77.63,1
40.00,77.48,1
91.00,76.87,1
55.00,76.15,1
99.00,75.57,1
50.00,75.13,1
57.00,74.43,1
79.00,73.44,1
151.00,73.29,1
42.00,74.26,1
134.00,75.59,1
48.00,77.07,1
142.00,78.72,1
96.00,80.91,1
68.00,83.23,1
200.00,85.81,1
91.00,89.57,1
62.00,93.12,1
95.00,95.31,1
157.00,97.19,1
46.00,99.18,1
119.00,100.44,1
174.00,101.88,1
72.00,104.04,1
37.00,105.18,1
206.00,105.47,1
37.00,106.22,1
79.00,106.24,1
276.00,106.64,1
108.00,109.54,1
114.00,113.14,1
62.00,115.42,1
142.00,116.48,1
92.00,117.05,1
115.00,117.26,1
110.00,117.10,1
232.00,117.80,1
97.00,119.99,1
171.00,122.63,1
62.00,124.73,1
100.00,125.45,1
38.00,124.30,1
128.00,121.83,1
127.00,119.41,1
162.00,118.13,1
50.00,117.39,1
76.00,115.73,1
66.00,112.85,1
156.00,109.93,1
169.00,108.60,1
105.00,108.98,1
134.00,109.90,1
227.00,111.93,1
259.00,116.83,1
160.00,124.18,1
82.00,131.13,1
502.00,138.93,1
258.00,151.41,1
95.00,165.11,1
170.00,175.12,1
62.00,181.04,1
107.00,182.86,1
140.00,181.59,1
230.00,179.70,1
42.00,177.64,1
234.00,174.71,1
79.00,171.57,1
185.00,168.29,1
89.00,164.68,1
361.00,162.47,1
40.00,162.46,1
395.00,163.99,1
67.00,167.17,1
209.00,170.16,1
235.00,172.76,1
48.00,175.03,1
42.00,174.04,1
60.00,169.13,1
66.00,161.69,1
56.00,152.72,1
84.00,143.03,1
98.00,133.59,1
182.00,125.82,1
72.00,120.17,1
387.00,117.81,1
110.00,120.05,1
48.00,123.20,1
59.00,123.69,1
61.00,121.85,1
144.00,119.09,1
46.00,116.32,1
125.00,113.35,1
48.00,110.19,1
116.00,106.93,1
66.00,103.77,1
242.00,102.02,1
55.00,102.32,1
150.00,103.32,1
109.00,104.50,1
60.00,105.48,1
45.00,104.99,1
76.00,102.99,1
64.00,100.22,1
70.00,97.06,1
76.00,93.75,1
40.00,90.31,1
100.00,86.82,1
71.00,83.88,1
75.00,81.48,1
45.00,79.17,1
67.00,76.71,1
175.00,75.24,1
228.00,76.97,1
85.00,81.68,1
82.00,86.53,1
41.00,89.75,1
44.00,90.94,1
37.00,90.19,1
80.00,88.26,1
119.00,86.50,1
203.00,86.60,1
48.00,88.55,1
51.00,90.00,1
138.00,90.50,1
76.00,91.23,1
116.00,92.12,1
107.00,93.18,1
56.00,94.10,1
105.00,94.36,1
127.00,94.68,1
42.00,95.12,1
115.00,94.99,1
148.00,95.23,1
119.00,96.65,1
72.00,98.33,1
71.00,99.11,1
46.00,98.57,1
42.00,96.59,1
141.00,94.13,1
60.00,92.32,1
90.00,90.80,1
143.00,89.81,1
101.00,90.04,1
41.00,90.42,1
93.00,90.01,1
58.00,89.07,1
60.00,87.63,1
155.00,86.39,1
118.00,86.64,1
86.00,87.92,1
122.00,89.39,1
132.00,91.38,1
215.00,94.85,1
206.00,100.71,1
99.00,107.85,1
64.00,113.58,1
132.00,117.13,1
107.00,119.56,1
40.00,120.64,1
85.00,119.72,1
219.00,118.60,1
38.00,118.47,1
270.00,119.14,1
86.00,121.19,1
58.00,122.88,1
146.00,122.96,1
85.00,122.55,1
145.00,122.00,1
57.00,121.12,1
120.00,119.57,1
380.00,120.03,1
112.00,124.62,1
85.00,129.70,1
111.00,132.51,1
35.00,133.10,1
94.00,131.43,1
172.00,129.07,1
372.00,129.72,1
104.00,134.38,1
233.00,140.23,1
398.00,148.05,1
109.00,158.50,1
108.00,167.18,1
102.00,171.78,1
136.00,173.31,1
102.00,172.64,1
74.00,169.83,1
43.00,164.48,1
202.00,157.94,1
71.00,152.03,1
106.00,146.23,1
59.00,139.80,1
158.00,133.44,1
47.00,127.69,1
71.00,121.75,1
106.00,115.64,1
120.00,110.51,1
147.00,107.04,1
295.00,106.73,1
50.00,109.47,1
69.00,111.76,1
115.00,112.30,1
52.00,111.90,1
210.00,111.43,1
127.00,112.37,1
216.00,114.99,1
127.00,118.86,1
56.00,122.23,1
43.00,123.07,1
47.00,121.21,1
81.00,117.58,1
41.00,113.00,1
61.00,107.64,1
262.00,103.52,1
48.00,102.19,1
57.00,101.23,1
50.00,98.91,1
85.00,95.87,1
60.00,92.70,1
104.00,89.78,1
47.00,87.20,1
66.00,84.53,1
64.00,81.72,1
69.00,79.06,1
81.00,76.76,1
84.00,75.08,1
132.00,74.47,1
107.00,75.32,1
67.00,76.89,1
108.00,78.43,1
229.00,81.25,1
128.00,86.46,1
74.00,92.19,1
36.00,96.05,1
172.00,98.45,1
75.00,100.78,1
49.00,102.29,1
48.00,101.87,1
71.00,99.96,1
53.00,97.21,1
334.00,96.13,1
185.00,99.62,1
105.00,105.66,1
116.00,110.98,1
147.00,115.35,1
104.00,119.11,1
64.00,121.50,1
281.00,123.54,1
127.00,127.24,1
269.00,132.49,1
109.00,138.52,1
48.00,142.94,1
89.00,143.99,1
108.00,142.80,1
100.00,140.50,1
84.00,137.34,1
377.00,135.74,1
110.00,137.92,1
110.00,140.87,1
156.00,142.46,1
46.00,142.82,1
126.00,141.46,1
151.00,139.46,1
207.00,138.59,1
609.00,143.09,1
46.00,153.96,1
96.00,163.72,1
415.00,171.13,1
248.00,180.79,1
333.00,192.46,1
140.00,203.68,1
326.00,213.23,1
405.00,223.33,1
127.00,234.10,1
97.00,240.77,1
514.00,244.78,1
102.00,249.89,1
286.00,253.82,1
291.00,256.38,1
219.00,258.84,1
350.00,261.06,1
402.00,265.04,1
104.00,269.72,1
123.00,270.42,1
38.00,265.26,1
439.00,257.83,1
203.00,252.91,1
344.00,250.65,1
440.00,251.67,1
117.00,255.24,1
178.00,256.55,1
69.00,253.52,1
191.00,246.97,1
84.00,238.23,1
186.00,228.21,1
63.00,217.31,1
59.00,204.92,1
102.00,191.03,1
127.00,177.37,1
82.00,164.74,1
45.00,152.48,1
109.00,140.42,1
72.00,129.39,1
59.00,119.30,1
87.00,109.98,1
94.00,101.97,1
50.00,95.19,1
445.00,92.21,1
70.00,95.27,1
68.00,99.85,1
40.00,102.03,1
127.00,102.57,1
38.00,102.34,1
69.00,101.01,1
338.00,100.92,1
104.00,104.54,1
76.00,108.98,1
65.00,111.37,1
139.00,112.35,1
148.00,113.44,1
192.00,115.72,1
126.00,119.06,1
79.00,121.99,1
38.00,122.85,1
84.00,121.40,1
51.00,118.39,1
142.00,114.90,1
105.00,112.09,1
103.00,110.01,1
126.00,108.40,1
79.00,107.19,1
42.00,105.41,1
84.00,102.60,1
40.00,99.13,1
252.00,96.65,1
68.00,96.64,1
44.00,97.02,1
397.00,98.67,1
304.00,106.14,1
83.00,117.39,1
53.00,126.37,1
55.00,131.01,1
44.00,131.88,1
387.00,132.56,1
53.00,135.87,1
87.00,138.69,1
59.00,138.60,1
49.00,136.04,1
60.00,131.37,1
171.00,126.29,1
63.00,122.10,1
69.00,117.91,1
46.00,112.84,1
178.00,108.06,1
558.00,108.84,1
96.00,117.45,1
33.00,126.59,1
73.00,131.31,1
43.00,132.32,1
39.00,130.33,1
42.00,125.84,1
39.00,119.56,1
78.00,112.47,1
57.00,105.45,1
73.00,98.82,1
79.00,92.84,1
80.00,87.80,1
85.00,83.75,1
130.00,81.05,1
36.00,79.47,1
81.00,77.98,1
85.00,76.60,1
110.00,76.02,1
308.00,78.13,1
95.00,83.97,1
49.00,90.16,1
70.00,94.06,1
43.00,95.81,1
330.00,98.00,1
103.00,103.08,1
40.00,108.31,1
93.00,110.99,1
68.00,111.78,1
138.00,111.72,1
84.00,111.51,1
88.00,110.92,1
113.00,109.88,1
70.00,108.63,1
41.00,106.51,1
40.00,102.96,1
39.00,98.15,1
59.00,92.70,1
146.00,88.00,1
51.00,84.85,1
38.00,82.02,1
75.00,78.82,1
147.00,76.56,1
58.00,75.84,1
202.00,76.64,1
66.00,79.10,1
145.00,82.33,1
119.00,85.98,1
61.00,89.59,1
56.00,91.83,1
40.00,92.24,1
181.00,92.11,1
162.00,93.64,1
155.00,97.16,1
75.00,101.17,1
229.00,105.29,1
86.00,110.07,1
79.00,114.03,1
128.00,116.33,1
67.00,117.55,1
114.00,117.69,1
126.00,117.38,1
60.00,116.79,1
57.00,114.95,1
49.00,111.59,1
58.00,107.11,1
56.00,101.96,1
161.00,97.41,1
93.00,94.62,1
194.00,93.88,1
64.00,94.71,1
56.00,95.34,1
74.00,94.71,1
80.00,93.46,1
196.00,92.97,1
80.00,94.12,1
106.00,95.70,1
122.00,97.16,1
126.00,98.99,1
143.00,101.39,1
104.00,104.13,1
41.00,106.01,1
118.00,106.43,1
101.00,106.37,1
111.00,106.36,1
45.00,105.87,1
203.00,105.34,1
63.00,105.71,1
264.00,107.42,1
84.00,110.74,1
70.00,113.76,1
102.00,114.96,1
94.00,115.12,1
45.00,114.20,1
159.00,112.54,1
42.00,110.91,1
205.00,109.71,1
96.00,109.70,1
258.00,111.51,1
132.00,115.34,1
323.00,121.43,1
416.00,131.98,1
206.00,146.94,1
203.00,161.97,1
132.00,174.18,1
44.00,181.90,1
119.00,184.56,1
93.00,183.50,1
560.00,183.77,1
120.00,188.94,1
158.00,194.56,1
98.00,196.80,1
74.00,195.51,1
154.00,191.30,1
90.00,185.65,1
306.00,180.51,1
245.00,178.50,1
42.00,178.02,1
59.00,174.94,1
213.00,169.85,1
58.00,164.85,1
119.00,159.28,1
58.00,152.68,1
126.00,145.59,1
81.00,138.60,1
140.00,132.25,1
121.00,127.03,1
181.00,123.53,1
486.00,124.80,1
180.00,132.73,1
56.00,141.87,1
182.00,148.06,1
73.00,151.92,1
175.00,153.97,1
87.00,154.63,1
104.00,153.77,1
314.00,153.06,1
83.00,154.21,1
109.00,154.85,1
151.00,153.93,1
175.00,152.98,1
295.00,153.78,1
658.00,161.16,1
169.00,176.21,1
118.00,191.03,1
75.00,199.89,1
92.00,202.97,1
41.00,201.07,1
166.00,195.81,1
108.00,189.30,1
55.00,181.70,1
57.00,172.17,1
72.00,161.21,1
122.00,150.21,1
86.00,140.21,1
124.00,131.42,1
165.00,124.53,1
246.00,120.97,1
115.00,120.67,1
175.00,121.84,1
135.00,123.67,1
113.00,125.59,1
94.00,126.65,1
51.00,126.17,1
98.00,124.05,1
372.00,123.45,1
72.00,126.45,1
73.00,129.43,1
98.00,130.02,1
244.00,130.41,1
67.00,131.81,1
119.00,132.63,1
146.00,132.58,1
143.00,132.74,1
43.00,132.40,1
70.00,130.22,1
45.00,126.10,1
119.00,121.10,1
275.00,117.92,1
167.00,118.60,1
40.00,120.58,1
57.00,120.60,1
93.00,118.64,1
186.00,116.77,1
70.00,115.94,1
72.00,114.75,1
121.00,112.83,1
55.00,110.68,1
116.00,108.26,1
94.00,105.99,1
116.00,104.23,1
58.00,102.63,1
48.00,100.32,1
232.00,98.45,1
65.00,98.55,1
115.00,99.31,1
40.00,99.38,1
132.00,98.84,1
46.00,98.05,1
254.00,98.17,1
62.00,100.10,1
118.00,102.37,1
154.00,104.45,1
225.00,107.94,1
92.00,112.79,1
108.00,117.02,1
41.00,119.25,1
67.00,119.09,1
66.00,117.02,1
226.00,115.10,1
42.00,114.47,1
70.00,113.35,1
73.00,110.85,1
116.00,108.02,1
42.00,105.17,1
67.00,101.72,1
76.00,97.81,1
49.00,93.81,1
88.00,89.84,1
68.00,86.27,1
47.00,82.94,1
204.00,80.70,1
153.00,81.35,1
64.00,83.93,1
145.00,86.64,1
105.00,89.63,1
49.00,92.27,1
185.00,94.44,1
64.00,96.96,1
41.00,98.58,1
89.00,98.50,1
49.00,97.40,1
64.00,95.40,1
47.00,92.58,1
122.00,89.69,1
80.00,87.60,1
43.00,85.80,1
308.00,85.51,1
123.00,88.96,1
149.00,94.47,1
207.00,100.73,1
63.00,107.33,1
122.00,112.54,1
113.00,116.25,1
74.00,118.71,1
126.00,119.84,1
77.00,120.06,1
166.00,119.95,1
108.00,120.17,1
78.00,120.17,1
66.00,118.93,1
124.00,116.80,1
305.00,116.44,1
174.00,119.85,1
314.00,126.49,1
92.00,134.77,1
103.00,141.57,1
225.00,146.38,1
57.00,150.24,1
87.00,151.70,1
72.00,150.28,1
113.00,147.03,1
129.00,143.21,1
117.00,139.61,1
101.00,136.08,1
72.00,132.14,1
53.00,127.22,1
37.00,121.04,1
258.00,115.52,1
91.00,112.84,1
198.00,112.38,1
56.00,112.81,1
156.00,113.26,1
87.00,113.62,1
123.00,113.88,1
230.00,114.98,1
61.00,117.34,1
62.00,118.68,1
138.00,118.44,1
89.00,117.86,1
84.00,116.83,1
204.00,115.99,1
86.00,116.31,1
35.00,116.09,1
131.00,114.46,1
43.00,112.24,1
61.00,109.11,1
47.00,104.88,1
64.00,100.00,1
41.00,94.76,1
129.00,89.92,1
48.00,86.14,1
127.00,83.33,1
92.00,81.70,1
36.00,80.63,1
78.00,79.15,1
98.00,77.80,1
62.00,76.99,1
111.00,76.57,1
47.00,76.46,1
54.00,75.99,1
70.00,74.98,1
46.00,73.71,1
111.00,72.57,1
61.00,72.03,1
40.00,71.49,1
122.00,70.88,1
62.00,70.94,1
58.00,71.15,1
38.00,70.73,1
222.00,71.02,1
57.00,73.36,1
54.00,75.94,1
61.00,77.26,1
171.00,78.58,1
42.00,80.66,1
101.00,82.51,1
56.00,83.68,1
119.00,84.54,1
194.00,86.44,1
100.00,90.06,1
62.00,93.60,1
48.00,95.43,1
187.00,96.51,1
130.00,98.71,1
41.00,101.14,1
38.00,101.72,1
82.00,100.44,1
40.00,98.15,1
51.00,94.90,1
94.00,91.25,1
37.00,87.73,1
68.00,84.11,1
52.00,80.43,1
48.00,76.79,1
69.00,73.27,1
66.00,70.26,1
43.00,67.67,1
50.00,65.13,1
106.00,63.10,1
55.00,62.10,1
83.00,61.76,1
50.00,61.70,1
156.00,62.41,1
99.00,64.70,1
38.00,67.55,1
36.00,69.22,1
48.00,69.50,1
37.00,68.80,1
73.00,67.60,1
145.00,67.18,1
100.00,68.45,1
65.00,70.54,1
130.00,72.78,1
77.00,75.40,1
131.00,78.33,1
55.00,81.23,1
36.00,83.03,1
53.00,83.14,1
156.00,82.93,1
156.00,84.34,1
116.00,87.48,1
144.00,91.38,1
140.00,95.81,1
83.00,100.21,1
36.00,103.07,1
63.00,103.62,1
131.00,103.01,1
86.00,102.53,1
125.00,102.32,1
41.00,101.89,1
57.00,100.37,1
46.00,97.54,1
67.00,93.94,1
198.00,91.23,1
131.00,91.08,1
130.00,92.88,1
48.00,94.81,1
85.00,95.71,1
81.00,95.69,1
46.00,94.93,1
131.00,93.73,1
181.00,93.77,1
134.00,95.89,1
58.00,98.52,1
126.00,100.36,1
45.00,101.38,1
50.00,101.00,1
94.00,99.35,1
99.00,97.59,1
108.00,96.34,1
38.00,95.11,1
135.00,93.67,1
46.00,92.41,1
65.00,90.80,1
241.00,90.02,1
112.00,91.93,1
81.00,94.86,1
198.00,97.85,1
105.00,101.71,1
280.00,106.97,1
76.00,113.57,1
77.00,119.02,1
58.00,121.61,1
57.00,121.61,1
66.00,119.52,1
79.00,116.20,1
51.00,112.10,1
123.00,107.78,1
71.00,103.98,1
233.00,101.77,1
40.00,101.51,1
66.00,101.09,1
53.00,99.30,1
53.00,96.50,1
80.00,93.15,1
83.00,89.97,1
72.00,87.21,1
48.00,84.50,1
51.00,81.45,1
64.00,78.22,1
154.00,75.93,1
37.00,75.08,1
64.00,74.36,1
69.00,73.28,1
114.00,72.65,1
78.00,72.88,1
45.00,73.25,1
304.00,75.01,1
114.00,80.23,1
54.00,86.40,1
81.00,90.73,1
55.00,93.26,1
54.00,94.09,1
127.00,94.01,1
159.00,94.70,1
56.00,96.24,1
127.00,97.52,1
52.00,98.26,1
74.00,98.10,1
123.00,97.40,1
61.00,96.79,1
58.00,95.64,1
323.00,95.73,1
55.00,98.92,1
107.00,102.54,1
88.00,104.84,1
68.00,106.01,1
77.00,105.87,1
40.00,104.41,1
63.00,101.66,1
75.00,98.19,1
109.00,94.97,1
39.00,92.13,1
101.00,89.30,1
92.00,86.95,1
86.00,85.36,1
193.00,85.10,1
174.00,87.43,1
68.00,91.35,1
35.00,94.16,1
89.00,95.07,1
132.00,95.46,1
60.00,96.02,1
90.00,96.09,1
158.00,96.26,1
100.00,97.40,1
55.00,98.46,1
47.00,98.12,1
69.00,96.41,1
140.00,94.61,1
82.00,93.69,1
49.00,92.81,1
85.00,91.26,1
76.00,89.49,1
60.00,87.65,1
36.00,85.26,1
64.00,82.23,1
87.00,79.28,1
47.00,76.78,1
48.00,74.22,1
114.00,71.95,1
122.00,71.13,1
60.00,71.64,1
90.00,72.41,1
96.00,73.38,1
138.00,75.17,1
128.00,78.19,1
150.00,82.40,1
178.00,87.91,1
181.00,94.87,1
49.00,101.89,1
62.00,106.65,1
108.00,109.06,1
43.00,109.93,1
77.00,109.17,1
53.00,107.05,1
125.00,104.44,1
178.00,102.99,1
37.00,102.78,1
53.00,101.74,1
70.00,99.35,1
104.00,96.69,1
47.00,94.16,1
57.00,91.23,1
78.00,87.97,1
37.00,84.64,1
83.00,81.26,1
122.00,78.70,1
242.00,78.86,1
139.00,82.55,1
88.00,87.68,1
128.00,92.35,1
151.00,96.93,1
95.00,101.57,1
47.00,104.93,1
190.00,107.15,1
64.00,109.35,1
109.00,110.94,1
102.00,111.65,1
65.00,111.62,1
98.00,110.63,1
110.00,109.28,1
114.00,108.21,1
119.00,107.61,1
69.00,107.07,1
85.00,105.95,1
88.00,104.29,1
94.00,102.52,1
42.00,100.41,1
216.00,98.74,1
108.00,99.05,1
216.00,101.37,1
92.00,105.03,1
198.00,109.28,1
184.00,114.46,1
303.00,121.78,1
82.00,130.53,1
134.00,137.84,1
40.00,142.05,1
153.00,143.55,1
53.00,143.24,1
78.00,141.07,1
139.00,137.61,1
244.00,135.40,1
249.00,136.47,1
102.00,139.78,1
98.00,142.23,1
67.00,142.39,1
132.00,140.78,1
71.00,138.22,1
127.00,135.01,1
45.00,131.14,1
57.00,126.13,1
70.00,120.03,1
157.00,114.35,1
44.00,109.79,1
80.00,105.38,1
71.00,100.82,1
40.00,96.19,1
154.00,92.00,1
196.00,90.28,1
218.00,92.36,1
168.00,97.51,1
98.00,103.59,1
103.00,108.65,1
82.00,112.09,1
98.00,114.02,1
133.00,115.10,1
67.00,115.68,1
38.00,114.81,1
131.00,112.61,1
68.00,110.25,1
88.00,107.74,1
139.00,105.44,1
48.00,103.63,1
46.00,101.14,1
224.00,98.91,1
54.00,98.50,1
132.00,98.76,1
225.00,100.21,1
98.00,103.61,1
231.00,108.17,1
41.00,113.03,1
63.00,116.08,1
35.00,116.21,1
74.00,114.17,1
57.00,110.80,1
84.00,106.83,1
132.00,103.23,1
182.00,101.48,1
51.00,101.32,1
193.00,101.79,1
151.00,103.66,1
136.00,106.87,1
149.00,110.51,1
73.00,113.81,1
80.00,115.66,1
83.00,115.85,1
246.00,116.24,1
67.00,118.02,1
148.00,119.83,1
70.00,120.82,1
168.00,121.35,1
38.00,121.40,1
100.00,120.28,1
124.00,118.42,1
90.00,116.72,1
86.00,114.79,1
47.00,112.07,1
156.00,109.07,1
91.00,106.90,1
64.00,105.04,1
151.00,103.22,1
74.00,102.06,1
66.00,100.82,1
80.00,98.90,1
239.00,98.02,1
268.00,100.92,1
40.00,106.59,1
82.00,110.92,1
100.00,113.05,1
155.00,114.53,1
161.00,116.59,1
60.00,118.75,1
116.00,119.72,1
69.00,119.48,1
94.00,118.24,1
66.00,116.05,1
168.00,113.81,1
179.00,113.16,1
42.00,113.62,1
76.00,113.02,1
41.00,110.77,1
290.00,109.10,1
50.00,109.78,1
89.00,110.62,1
64.00,110.01,1
100.00,108.52,1
52.00,106.41,1
70.00,103.55,1
107.00,100.42,1
65.00,97.61,1
57.00,94.68,1
122.00,91.81,1
58.00,89.56,1
44.00,87.22,1
49.00,84.17,1
80.00,80.89,1
58.00,77.94,1
319.00,77.38,1
196.00,81.81,1
89.00,89.09,1
119.00,95.74,1
81.00,101.00,1
135.00,105.10,1
45.00,108.01,1
281.00,110.84,1
57.00,114.83,1
115.00,118.28,1
49.00,119.77,1
82.00,119.35,1
167.00,118.22,1
196.00,118.52,1
44.00,119.83,1
72.00,119.79,1
61.00,117.86,1
79.00,114.72,1
83.00,111.04,1
42.00,106.94,1
46.00,102.03,1
70.00,96.60,1
81.00,91.49,1
112.00,87.43,1
88.00,84.71,1
60.00,82.71,1
84.00,80.87,1
85.00,79.38,1
125.00,78.76,1
58.00,78.94,1
68.00,79.01,1
122.00,79.07,1
91.00,79.84,1
139.00,81.45,1
190.00,84.61,1
360.00,91.52,1
155.00,102.60,1
93.00,113.94,1
101.00,122.45,1
177.00,128.76,1
73.00,133.65,1
118.00,136.59,1
43.00,137.22,1
36.00,135.11,1
102.00,130.82,1
106.00,126.08,1
85.00,121.61,1
46.00,116.85,1
108.00,111.72,1
64.00,106.82,1
55.00,101.96,1
48.00,96.73,1
100.00,91.63,1
40.00,87.10,1
63.00,82.78,1
43.00,78.49,1
59.00,74.35,1
223.00,71.92,1
39.00,72.22,1
132.00,73.64,1
77.00,75.43,1
176.00,78.12,1
148.00,82.36,1
69.00,87.33,1
48.00,90.98,1
68.00,92.65,1
51.00,92.80,1
45.00,91.62,1
140.00,90.02,1
51.00,88.94,1
70.00,87.75,1
178.00,87.00,1
93.00,87.85,1
219.00,90.41,1
157.00,95.04,1
39.00,100.16,1
144.00,103.88,1
116.00,106.93,1
38.00,109.13,1
89.00,109.51,1
71.00,108.54,1
89.00,106.87,1
56.00,104.58,1
75.00,101.66,1
44.00,98.14,1
121.00,94.57,1
41.00,91.42,1
38.00,88.00,1
112.00,84.38,1
84.00,81.70,1
131.00,80.37,1
61.00,80.06,1
43.00,79.63,1
122.00,78.89,1
53.00,78.53,1
39.00,77.87,1
87.00,76.60,1
75.00,75.47,1
50.00,74.50,1
101.00,73.57,1
36.00,72.82,1
57.00,71.74,1
48.00,70.18,1
86.00,68.65,1
70.00,67.62,1
45.00,66.83,1
204.00,67.03,1
126.00,69.73,1
144.00,74.47,1
113.00,79.95,1
40.00,84.87,1
45.00,87.77,1
59.00,88.63,1
133.00,88.81,1
143.00,89.88,1
52.00,91.62,1
94.00,92.74,1
91.00,93.25,1
37.00,93.14,1
61.00,91.84,1
120.00,90.12,1
40.00,88.65,1
73.00,86.86,1
39.00,84.48,1
40.00,81.45,1
40.00,77.76,1
47.00,73.76,1
76.00,70.02,1
69.00,67.08,1
40.00,64.72,1
100.00,62.86,1
49.00,61.75,1
47.00,60.89,1
71.00,59.99,1
43.00,59.25,1
91.00,58.77,1
68.00,58.89,1
36.00,59.21,1
184.00,60.18,1
49.00,62.68,1
50.00,65.26,1
49.00,66.69,1
104.00,67.66,1
85.00,68.99,1
98.00,70.79,1
102.00,72.99,1
81.00,75.42,1
98.00,77.77,1
36.00,79.56,1
75.00,80.31,1
41.00,80.10,1
114.00,79.53,1
92.00,79.45,1
81.00,79.90,1
215.00,81.48,1
60.00,84.70,1
86.00,87.82,1
81.00,89.88,1
77.00,91.16,1
120.00,92.04,1
131.00,93.38,1
107.00,95.36,1
119.00,97.54,1
62.00,99.34,1
94.00,100.21,1
109.00,100.51,1
46.00,100.37,1
53.00,99.06,1
67.00,96.61,1
54.00,93.53,1
45.00,89.91,1
36.00,85.66,1
65.00,81.09,1
38.00,76.62,1
108.00,72.75,1
94.00,70.30,1
55.00,69.01,1
155.00,68.73,1
70.00,69.85,1
114.00,71.79,1
43.00,73.71,1
48.00,74.77,1
120.00,75.25,1
102.00,76.35,1
140.00,78.53,1
111.00,81.66,1
432.00,87.91,1
62.00,98.42,1
58.00,108.23,1
75.00,114.20,1
45.00,117.04,1
82.00,117.35,1
61.00,115.92,1
175.00,114.14,1
103.00,113.26,1
89.00,112.74,1
59.00,111.42,1
37.00,108.74,1
134.00,105.31,1
74.00,102.36,1
43.00,99.41,1
61.00,95.71,1
77.00,91.72,1
40.00,87.76,1
88.00,83.87,1
54.00,80.38,1
104.00,77.55,1
66.00,75.55,1
86.00,74.19,1
37.00,72.97,1
79.00,71.61,1
47.00,70.21,1
109.00,69.15,1
52.00,68.69,1
60.00,68.33,1
112.00,68.14,1
53.00,68.53,1
102.00,69.20,1
100.00,70.38,1
47.00,71.83,1
156.00,73.45,1
72.00,75.82,1
124.00,78.62,1
70.00,81.37,1
94.00,83.74,1
53.00,85.33,1
38.00,85.69,1
165.00,85.57,1
40.00,86.01,1
104.00,86.39,1
66.00,86.42,1
97.00,86.34,1
109.00,86.47,1
127.00,87.37,1
40.00,88.50,1
141.00,89.30,1
82.00,90.31,1
78.00,91.25,1
64.00,91.44,1
110.00,91.18,1
53.00,90.75,1
84.00,89.90,1
92.00,88.86,1
117.00,88.32,1
67.00,88.24,1
49.00,87.74,1
116.00,86.77,1
41.00,85.83,1
68.00,84.47,1
83.00,82.79,1
143.00,81.90,1
126.00,82.62,1
99.00,84.54,1
46.00,86.26,1
44.00,86.65,1
52.00,85.60,1
114.00,84.13,1
98.00,83.36,1
89.00,83.32,1
54.00,83.27,1
48.00,82.50,1
41.00,80.75,1
67.00,78.37,1
58.00,75.90,1
108.00,73.92,1
58.00,72.72,1
89.00,71.99,1
110.00,71.92,1
80.00,72.70,1
126.00,74.15,1
70.00,76.14,1
102.00,78.18,1
226.00,81.29,1
74.00,86.15,1
44.00,90.46,1
71.00,92.67,1
70.00,93.40,1
107.00,93.49,1
44.00,93.18,1
63.00,91.99,1
40.00,89.76,1
48.00,86.68,1
50.00,83.01,1
74.00,79.30,1
70.00,76.08,1
46.00,73.27,1
63.00,70.57,1
132.00,68.71,1
86.00,68.43,1
164.00,69.82,1
127.00,73.06,1
70.00,77.15,1
37.00,80.21,1
80.00,81.75,1
41.00,82.18,1
138.00,82.26,1
160.00,83.54,1
56.00,86.01,1
95.00,88.08,1
58.00,89.26,1
98.00,89.74,1
278.00,91.55,1
43.00,95.68,1
37.00,98.95,1
196.00,100.76,1
66.00,102.90,1
90.00,104.57,1
90.00,105.17,1
45.00,104.74,1
63.00,102.93,1
94.00,100.34,1
91.00,97.89,1
144.00,96.25,1
67.00,95.52,1
128.00,95.16,1
177.00,95.88,1
118.00,98.23,1
43.00,100.54,1
43.00,101.01,1
111.00,99.98,1
72.00,98.68,1
123.00,97.56,1
104.00,96.97,1
63.00,96.57,1
74.00,95.59,1
49.00,93.81,1
84.00,91.47,1
213.00,90.22,1
71.00,91.11,1
62.00,92.21,1
54.00,92.06,1
68.00,90.86,1
77.00,89.15,1
73.00,87.34,1
60.00,85.42,1
40.00,83.05,1
54.00,80.10,1
124.00,77.46,1
78.00,76.06,1
49.00,75.19,1
47.00,73.89,1
35.00,71.92,1
75.00,69.63,1
78.00,67.76,1
114.00,66.97,1
64.00,67.21,1
38.00,67.49,1
54.00,67.05,1
109.00,66.61,1
96.00,67.12,1
102.00,68.63,1
135.00,71.11,1
68.00,74.29,1
120.00,77.48,1
174.00,81.33,1
86.00,86.16,1
83.00,90.53,1
108.00,93.82,1
70.00,96.27,1
69.00,97.57,1
48.00,97.41,1
131.00,96.52,1
35.00,95.50,1
90.00,93.97,1
52.00,91.90,1
54.00,89.33,1
168.00,87.14,1
51.00,86.24,1
84.00,85.63,1
74.00,84.76,1
103.00,84.06,1
65.00,83.60,1
98.00,83.23,1
42.00,82.69,1
83.00,81.74,1
60.00,80.53,1
113.00,79.55,1
66.00,79.09,1
91.00,78.91,1
68.00,78.78,1
87.00,78.66,1
245.00,80.02,1
115.00,84.10,1
44.00,88.72,1
76.00,91.60,1
64.00,92.90,1
164.00,93.86,1
59.00,95.21,1
69.00,95.99,1
51.00,95.46,1
120.00,94.31,1
118.00,93.69,1
123.00,94.09,1
87.00,95.01,1
56.00,95.49,1
94.00,95.11,1
261.00,95.85,1
117.00,99.36,1
59.00,103.33,1
88.00,105.61,1
68.00,106.33,1
46.00,105.59,1
197.00,104.49,1
49.00,104.25,1
40.00,103.38,1
42.00,100.70,1
48.00,96.75,1
119.00,92.67,1
47.00,89.25,1
140.00,86.62,1
106.00,85.35,1
43.00,84.84,1
181.00,84.73,1
70.00,85.78,1
124.00,87.42,1
51.00,88.83,1
41.00,89.16,1
93.00,88.33,1
90.00,87.39,1
116.00,87.02,1
61.00,87.02,1
73.00,86.72,1
82.00,86.01,1
67.00,85.14,1
53.00,83.89,1
66.00,82.14,1
82.00,80.29,1
66.00,78.68,1
157.00,77.93,1
107.00,78.84,1
54.00,80.44,1
35.00,81.06,1
68.00,80.42,1
95.00,79.46,1
68.00,78.81,1
42.00,77.96,1
120.00,76.98,1
45.00,76.39,1
44.00,75.51,1
72.00,74.04,1
56.00,72.48,1
40.00,70.75,1
165.00,69.59,1
35.00,69.77,1
73.00,70.14,1
37.00,69.90,1
115.00,69.57,1
147.00,70.45,1
74.00,72.80,1
65.00,75.16,1
60.00,76.65,1
38.00,77.08,1
56.00,76.45,1
93.00,75.44,1
41.00,74.52,1
56.00,73.26,1
72.00,71.75,1
99.00,70.70,1
63.00,70.31,1
81.00,70.23,1
260.00,71.86,1
35.00,75.98,1
158.00,80.65,1
69.00,85.00,1
76.00,88.57,1
66.00,90.72,1
58.00,91.55,1
93.00,91.42,1
59.00,90.79,1
40.00,89.38,1
136.00,87.63,1
65.00,86.52,1
37.00,85.32,1
52.00,83.16,1
51.00,80.35,1
66.00,77.38,1
110.00,74.98,1
176.00,74.51,1
68.00,76.06,1
70.00,77.88,1
52.00,78.84,1
57.00,78.85,1
56.00,78.09,1
55.00,76.78,1
96.00,75.41,1
69.00,74.48,1
78.00,73.89,1
102.00,73.71,1
59.00,73.95,1
100.00,74.34,1
73.00,74.92,1
42.00,75.27,1
72.00,74.94,1
69.00,74.32,1
67.00,73.67,1
166.00,73.80,1
118.00,75.73,1
54.00,78.49,1
150.00,81.10,1
76.00,83.95,1
81.00,86.52,1
82.00,88.25,1
75.00,89.29,1
111.00,89.96,1
92.00,90.71,1
50.00,91.14,1
71.00,90.61,1
41.00,89.13,1
105.00,87.19,1
51.00,85.33,1
42.00,83.15,1
84.00,80.56,1
97.00,78.46,1
53.00,77.01,1
55.00,75.49,1
86.00,73.89,1
72.00,72.71,1
38.00,71.62,1
41.00,69.99,1
61.00,67.93,1
36.00,65.77,1
78.00,63.69,1
39.00,61.92,1
69.00,60.39,1
37.00,58.99,1
38.00,57.48,1
62.00,55.87,1
36.00,54.44,1
47.00,53.05,1
75.00,51.93,1
51.00,51.42,1
47.00,51.18,1
95.00,51.30,1
150.00,52.89,1
74.00,56.21,1
50.00,59.76,1
41.00,62.26,1
65.00,63.73,1
41.00,64.49,1
35.00,64.44,1
51.00,63.61,1
101.00,62.85,1
72.00,62.88,1
69.00,63.42,1
79.00,64.13,1
56.00,64.89,1
78.00,65.54,1
91.00,66.37,1
44.00,67.33,1
119.00,68.29,1
93.00,69.86,1
83.00,71.96,1
107.00,74.20,1
39.00,76.22,1
93.00,77.54,1
86.00,78.54,1
38.00,79.21,1
71.00,79.03,1
70.00,78.34,1
70.00,77.55,1
38.00,76.43,1
158.00,75.57,1
72.00,75.94,1
106.00,77.09,1
60.00,78.26,1
37.00,78.73,1
62.00,78.09,1
110.00,77.26,1
158.00,77.72,1
157.00,80.33,1
46.00,83.95,1
48.00,86.38,1
150.00,87.78,1
61.00,89.32,1
56.00,90.25,1
111.00,90.31,1
83.00,90.35,1
133.00,90.79,1
148.00,92.22,1
42.00,94.15,1
64.00,94.95,1
98.00,94.63,1
90.00,94.14,1
68.00,93.52,1
131.00,92.91,1
44.00,92.47,1
123.00,91.90,1
64.00,91.36,1
51.00,90.42,1
62.00,88.60,1
40.00,86.07,1
94.00,83.24,1
66.00,80.77,1
72.00,78.69,1
39.00,76.56,1
54.00,74.08,1
70.00,71.54,1
64.00,69.38,1
38.00,67.39,1
39.00,65.13,1
49.00,62.63,1
136.00,60.91,1
90.00,61.00,1
70.00,62.23,1
38.00,63.33,1
181.00,64.78,1
60.00,67.54,1
74.00,70.51,1
80.00,72.82,1
70.00,74.67,1
49.00,75.84,1
74.00,76.20,1
59.00,76.08,1
44.00,75.42,1
73.00,74.24,1
97.00,73.26,1
40.00,72.63,1
64.00,71.74,1
87.00,70.80,1
118.00,70.69,1
72.00,71.53,1
59.00,72.46,1
93.00,73.11,1
41.00,73.55,1
43.00,73.24,1
95.00,72.42,1
130.00,72.40,1
86.00,73.66,1
57.00,75.15,1
88.00,76.17,1
113.00,77.29,1
59.00,78.68,1
43.00,79.39,1
37.00,78.81,1
92.00,77.49,1
96.00,76.55,1
111.00,76.56,1
125.00,77.72,1
60.00,79.52,1
51.00,80.70,1
100.00,81.10,1
78.00,81.44,1
78.00,81.77,1
96.00,82.04,1
41.00,82.10,1
62.00,81.42,1
47.00,79.95,1
54.00,77.92,1
42.00,75.43,1
60.00,72.68,1
39.00,69.84,1
48.00,66.92,1
46.00,63.98,1
48.00,61.19,1
51.00,58.63,1
42.00,56.34,1
67.00,54.41,1
97.00,53.39,1
127.00,54.05,1
45.00,56.04,1
76.00,58.13,1
62.00,59.93,1
70.00,61.55,1
75.00,63.04,1
92.00,64.67,1
118.00,66.89,1
48.00,69.47,1
128.00,71.96,1
179.00,75.47,1
55.00,80.12,1
105.00,84.27,1
46.00,87.20,1
57.00,88.65,1
105.00,89.00,1
36.00,88.83,1
131.00,88.30,1
43.00,87.79,1
37.00,86.60,1
100.00,84.62,1
82.00,82.95,1
184.00,82.66,1
57.00,83.91,1
41.00,84.89,1
68.00,84.53,1
107.00,83.81,1
62.00,83.34,1
113.00,83.06,1
163.00,83.84,1
70.00,85.89,1
42.00,87.46,1
53.00,87.46,1
65.00,86.31,1
48.00,84.50,1
55.00,82.10,1
100.00,79.70,1
77.00,77.98,1
48.00,76.60,1
39.00,74.75,1
94.00,72.69,1
120.00,71.59,1
71.00,71.75,1
90.00,72.42,1
43.00,72.96,1
37.00,72.72,1
60.00,71.59,1
128.00,70.72,1
43.00,70.69,1
73.00,70.70,1
69.00,70.51,1
53.00,70.21,1
37.00,69.41,1
41.00,67.89,1
70.00,66.05,1
68.00,64.53,1
61.00,63.45,1
36.00,62.40,1
75.00,61.26,1
43.00,60.26,1
83.00,59.52,1
60.00,59.22,1
47.00,59.10,1
126.00,59.37,1
63.00,60.60,1
58.00,62.10,1
81.00,63.34,1
90.00,64.75,1
40.00,66.16,1
54.00,66.91,1
144.00,67.67,1
86.00,69.56,1
161.00,72.64,1
36.00,76.26,1
60.00,78.90,1
50.00,80.00,1
128.00,80.56,1
105.00,81.73,1
51.00,83.13,1
87.00,83.87,1
37.00,83.83,1
48.00,82.74,1
71.00,80.87,1
87.00,79.06,1
88.00,77.83,1
92.00,77.26,1
65.00,77.05,1
89.00,76.92,1
160.00,77.62,1
62.00,79.48,1
49.00,81.01,1
98.00,81.62,1
170.00,82.82,1
63.00,85.14,1
101.00,87.37,1
51.00,88.79,1
65.00,89.15,1
42.00,88.31,1
56.00,86.45,1
46.00,83.82,1
61.00,80.78,1
39.00,77.51,1
54.00,74.05,1
131.00,71.28,1
104.00,70.27,1
76.00,70.63,1
137.00,71.81,1
70.00,73.81,1
123.00,76.21,1
142.00,79.29,1
55.00,82.83,1
38.00,85.17,1
92.00,85.97,1
80.00,86.23,1
76.00,86.29,1
164.00,86.75,1
44.00,87.94,1
94.00,88.79,1
48.00,88.81,1
73.00,88.07,1
134.00,87.30,1
188.00,88.20,1
61.00,90.68,1
91.00,92.88,1
288.00,95.89,1
79.00,101.18,1
95.00,106.32,1
258.00,111.08,1
116.00,117.04,1
77.00,122.38,1
37.00,124.93,1
49.00,124.34,1
70.00,121.47,1
84.00,117.51,1
154.00,113.86,1
54.00,111.00,1
143.00,108.51,1
81.00,106.51,1
36.00,104.29,1
47.00,100.79,1
40.00,96.21,1
74.00,91.21,1
40.00,86.26,1
114.00,81.87,1
75.00,78.66,1
65.00,76.34,1
57.00,74.22,1
107.00,72.52,1
150.00,72.31,1
95.00,73.90,1
92.00,76.24,1
59.00,78.30,1
55.00,79.45,1
92.00,79.86,1
47.00,79.89,1
168.00,80.21,1
62.00,81.48,1
117.00,83.13,1
100.00,84.92,1
110.00,87.00,1
39.00,88.67,1
108.00,89.45,1
69.00,89.76,1
55.00,89.51,1
49.00,88.25,1
80.00,86.28,1
83.00,84.35,1
65.00,82.66,1
44.00,80.77,1
53.00,78.36,1
86.00,75.88,1
77.00,73.99,1
110.00,73.01,1
90.00,73.04,1
84.00,73.75,1
79.00,74.63,1
77.00,75.47,1
57.00,76.02,1
29.00,75.73,1
89.00,74.69,1
40.00,73.47,1
193.00,73.11,1
89.00,74.70,1
44.00,76.87,1
65.00,77.98,1
40.00,78.01,1
143.00,77.83,1
77.00,78.45,1
42.00,79.13,1
39.00,78.68,1
138.00,77.86,1
56.00,77.73,1
96.00,77.93,1
85.00,78.25,1
54.00,78.56,1
78.00,78.43,1
36.00,77.77,1
77.00,76.57,1
62.00,75.20,1
36.00,73.64,1
108.00,72.01,1
44.00,70.84,1
80.00,69.89,1
65.00,69.08,1
82.00,68.60,1
111.00,68.78,1
56.00,69.61,1
81.00,70.46,1
49.00,70.98,1
70.00,71.09,1
35.00,70.67,1
58.00,69.65,1
164.00,69.18,1
93.00,70.50,1
57.00,72.55,1
100.00,74.24,1
39.00,75.52,1
91.00,76.22,1
87.00,76.78,1
56.00,77.31,1
62.00,77.32,1
47.00,76.65,1
42.00,75.23,1
62.00,73.26,1
111.00,71.64,1
41.00,70.73,1
56.00,69.75,1
125.00,69.00,1
67.00,69.25,1
94.00,70.06,1
44.00,70.83,1
66.00,71.13,1
62.00,70.97,1
39.00,70.39,1
63.00,69.30,1
85.00,68.24,1
60.00,67.61,1
110.00,67.50,1
67.00,68.06,1
78.00,68.91,1
88.00,69.84,1
135.00,71.45,1
69.00,73.86,1
60.00,76.00,1
152.00,77.94,1
153.00,81.09,1
50.00,85.03,1
66.00,87.84,1
56.00,89.03,1
140.00,89.62,1
49.00,90.28,1
39.00,90.09,1
77.00,88.64,1
126.00,87.23,1
50.00,86.41,1
38.00,85.12,1
84.00,83.05,1
51.00,80.86,1
67.00,78.62,1
58.00,76.31,1
106.00,74.42,1
92.00,73.52,1
38.00,73.12,1
109.00,72.69,1
143.00,73.25,1
74.00,75.16,1
68.00,77.09,1
96.00,78.54,1
181.00,80.70,1
75.00,84.07,1
47.00,86.97,1
46.00,88.08,1
39.00,87.47,1
76.00,85.77,1
89.00,83.96,1
200.00,83.58,1
36.00,84.87,1
67.00,85.85,1
153.00,86.43,1
47.00,87.47,1
91.00,88.17,1
101.00,88.51,1
41.00,88.60,1
78.00,87.90,1
84.00,86.77,1
47.00,85.47,1
203.00,84.80,1
90.00,85.98,1
70.00,87.79,1
79.00,88.82,1
90.00,89.29,1
97.00,89.64,1
56.00,89.75,1
37.00,88.90,1
67.00,86.91,1
106.00,84.82,1
116.00,83.69,1
231.00,84.79,1
71.00,88.21,1
40.00,91.30,1
156.00,93.17,1
176.00,95.89,1
77.00,99.63,1
62.00,102.42,1
45.00,103.16,1
38.00,101.87,1
106.00,99.40,1
170.00,97.71,1
84.00,97.57,1
66.00,97.58,1
52.00,96.57,1
46.00,94.39,1
94.00,91.57,1
158.00,89.65,1
227.00,90.51,1
86.00,93.95,1
116.00,97.71,1
132.00,101.07,1
72.00,104.01,1
92.00,105.84,1
161.00,107.18,1
38.00,108.39,1
230.00,109.59,1
124.00,112.04,1
136.00,115.27,1
152.00,118.45,1
78.00,121.23,1
71.00,122.46,1
185.00,122.69,1
60.00,122.95,1
98.00,122.42,1
145.00,121.27,1
177.00,121.07,1
39.00,121.37,1
72.00,120.28,1
116.00,117.92,1
58.00,115.22,1
65.00,111.81,1
148.00,108.28,1
82.00,105.68,1
51.00,103.22,1
93.00,100.20,1
174.00,98.00,1
90.00,97.46,1
194.00,98.39,1
68.00,100.36,1
314.00,103.86,1
37.00,109.19,1
76.00,113.45,1
79.00,115.17,1
108.00,115.47,1
290.00,116.72,1
258.00,121.64,1
143.00,129.25,1
124.00,136.28,1
84.00,141.03,1
90.00,143.13,1
236.00,144.11,1
55.00,145.19,1
121.00,145.07,1
122.00,143.63,1
159.00,142.12,1
88.00,140.63,1
198.00,139.26,1
39.00,137.93,1
52.00,135.07,1
46.00,129.98,1
126.00,124.03,1
130.00,118.95,1
135.00,115.46,1
103.00,113.15,1
175.00,111.93,1
241.00,113.02,1
98.00,116.40,1
59.00,119.22,1
48.00,119.62,1
68.00,117.79,1
280.00,116.35,1
116.00,117.55,1
58.00,119.29,1
95.00,119.36,1
36.00,117.82,1
105.00,115.00,1
56.00,111.54,1
45.00,107.39,1
88.00,102.63,1
110.00,98.35,1
65.00,94.93,1
56.00,91.64,1
97.00,88.37,1
228.00,86.93,1
173.00,88.96,1
65.00,92.83,1
60.00,95.69,1
98.00,97.05,1
106.00,97.87,1
67.00,98.36,1
224.00,99.33,1
117.00,101.99,1
55.00,104.88,1
127.00,106.53,1
43.00,107.17,1
55.00,106.32,1
284.00,105.78,1
49.00,107.42,1
60.00,108.78,1
64.00,108.11,1
226.00,107.45,1
161.00,108.99,1
68.00,111.68,1
44.00,112.84,1
154.00,112.55,1
316.00,114.16,1
72.00,118.70,1
108.00,122.93,1
166.00,125.82,1
86.00,128.21,1
78.00,129.23,1
72.00,128.33,1
76.00,125.85,1
79.00,122.32,1
162.00,118.86,1
154.00,116.91,1
184.00,116.98,1
64.00,118.02,1
149.00,118.71,1
44.00,118.66,1
80.00,117.30,1
90.00,114.82,1
148.00,112.51,1
64.00,110.75,1
38.00,108.34,1
118.00,105.04,1
45.00,101.71,1
40.00,97.86,1
104.00,93.57,1
52.00,89.70,1
70.00,86.09,1
84.00,82.78,1
68.00,80.05,1
187.00,78.69,1
122.00,79.74,1
168.00,82.86,1
39.00,86.61,1
55.00,89.08,1
116.00,90.20,1
37.00,90.74,1
46.00,90.10,1
138.00,88.82,1
150.00,88.81,1
64.00,90.03,1
38.00,90.58,1
125.00,90.19,1
127.00,90.35,1
80.00,91.29,1
45.00,91.74,1
44.00,90.80,1
59.00,88.66,1
109.00,86.34,1
60.00,84.51,1
47.00,82.61,1
41.00,80.04,1
36.00,76.79,1
48.00,73.11,1
53.00,69.42,1
41.00,65.94,1
70.00,62.80,1
75.00,60.46,1
108.00,59.39,1
36.00,59.32,1
59.00,59.28,1
66.00,59.11,1
89.00,59.34,1
151.00,60.84,1
72.00,63.80,1
48.00,66.77,1
93.00,68.98,1
51.00,70.73,1
196.00,72.95,1
75.00,76.51,1
103.00,80.41,1
45.00,83.41,1
72.00,85.12,1
38.00,85.46,1
54.00,84.57,1
79.00,82.95,1
40.00,81.05,1
63.00,78.76,1
106.00,76.66,1
64.00,75.35,1
127.00,74.85,1
110.00,75.52,1
71.00,77.00,1
146.00,78.87,1
80.00,81.35,1
58.00,83.56,1
67.00,84.64,1
91.00,85.00,1
71.00,85.11,1
44.00,84.66,1
42.00,83.17,1
55.00,80.81,1
50.00,78.01,1
119.00,75.56,1
67.00,74.14,1
88.00,73.44,1
44.00,72.85,1
72.00,72.04,1
76.00,71.22,1
40.00,70.43,1
89.00,69.52,1
38.00,68.65,1
45.00,67.45,1
101.00,66.20,1
272.00,67.36,1
52.00,71.81,1
56.00,76.40,1
37.00,79.00,1
102.00,80.28,1
50.00,81.00,1
99.00,81.36,1
43.00,81.34,1
50.00,80.58,1
116.00,79.47,1
106.00,79.21,1
42.00,79.46,1
103.00,79.45,1
75.00,79.48,1
220.00,80.79,1
59.00,83.86,1
38.00,86.53,1
49.00,87.21,1
65.00,86.49,1
84.00,85.26,1
64.00,83.95,1
97.00,82.74,1
194.00,82.84,1
233.00,86.09,1
71.00,91.77,1
62.00,96.67,1
66.00,99.35,1
254.00,101.81,1
64.00,105.58,1
87.00,108.84,1
75.00,110.30,1
94.00,110.50,1
45.00,109.54,1
75.00,107.30,1
72.00,104.26,1
122.00,101.32,1
94.00,99.13,1
74.00,97.37,1
81.00,95.47,1
39.00,93.14,1
61.00,90.11,1
124.00,87.18,1
94.00,85.41,1
40.00,84.15,1
42.00,82.20,1
70.00,79.60,1
96.00,77.30,1
152.00,76.41,1
57.00,77.00,1
37.00,77.40,1
130.00,77.31,1
148.00,78.35,1
64.00,80.62,1
114.00,82.91,1
118.00,85.29,1
39.00,87.50,1
79.00,88.55,1
65.00,88.58,1
127.00,88.46,1
133.00,89.18,1
104.00,90.89,1
44.00,92.37,1
60.00,92.52,1
167.00,92.31,1
44.00,92.72,1
110.00,92.99,1
132.00,93.39,1
262.00,95.86,1
222.00,101.88,1
39.00,109.25,1
179.00,115.20,1
151.00,120.44,1
48.00,124.82,1
89.00,126.80,1
87.00,126.69,1
283.00,126.93,1
224.00,130.16,1
201.00,136.03,1
189.00,142.74,1
217.00,149.72,1
68.00,155.77,1
189.00,159.68,1
163.00,162.40,1
204.00,165.04,1
81.00,166.98,1
69.00,166.52,1
83.00,163.16,1
69.00,157.70,1
78.00,150.80,1
57.00,142.90,1
127.00,134.81,1
144.00,127.97,1
45.00,122.34,1
52.00,116.38,1
156.00,110.51,1
78.00,106.05,1
71.00,102.32,1
79.00,98.57,1
127.00,95.41,1
398.00,95.92,1
100.00,101.67,1
89.00,108.37,1
37.00,112.47,1
69.00,113.75,1
44.00,112.77,1
66.00,110.13,1
92.00,106.69,1
116.00,103.57,1
40.00,100.78,1
58.00,97.43,1
84.00,93.64,1
40.00,89.85,1
136.00,86.49,1
37.00,83.96,1
37.00,81.31,1
101.00,78.35,1
86.00,76.21,1
79.00,74.97,1
69.00,74.14,1
38.00,73.16,1
61.00,71.70,1
188.00,71.10,1
84.00,72.61,1
100.00,75.13,1
108.00,77.80,1
168.00,81.26,1
85.00,85.59,1
42.00,89.20,1
110.00,91.30,1
101.00,92.87,1
127.00,94.62,1
62.00,96.28,1
87.00,97.14,1
100.00,97.35,1
113.00,97.61,1
127.00,98.32,1
119.00,99.64,1
45.00,100.73,1
58.00,100.43,1
93.00,98.98,1
107.00,97.50,1
90.00,96.43,1
76.00,95.43,1
92.00,94.28,1
97.00,93.24,1
72.00,92.32,1
136.00,91.69,1
120.00,92.02,1
130.00,93.43,1
77.00,95.20,1
66.00,96.28,1
40.00,95.96,1
156.00,95.05,1
121.00,95.12,1
111.00,96.22,1
74.00,97.33,1
70.00,97.67,1
73.00,97.07,1
68.00,95.73,1
135.00,94.39,1
37.00,93.35,1
143.00,92.38,1
44.00,91.63,1
35.00,90.22,1
36.00,87.42,1
44.00,83.63,1
159.00,80.33,1
45.00,78.53,1
50.00,77.04,1
64.00,75.09,1
55.00,73.04,1
46.00,70.89,1
60.00,68.61,1
69.00,66.56,1
68.00,65.00,1
65.00,63.89,1
48.00,62.98,1
101.00,62.36,1
98.00,62.72,1
44.00,63.74,1
86.00,64.65,1
125.00,66.03,1
50.00,68.09,1
44.00,69.63,1
47.00,70.02,1
72.00,69.73,1
50.00,69.20,1
79.00,68.58,1
121.00,68.57,1
48.00,69.34,1
188.00,70.98,1
40.00,73.71,1
62.00,76.08,1
60.00,77.21,1
142.00,78.19,1
129.00,80.29,1
62.00,83.04,1
39.00,84.79,1
94.00,85.24,1
215.00,86.42,1
70.00,89.37,1
112.00,92.53,1
122.00,95.31,1
53.00,97.66,1
130.00,99.16,1
68.00,100.17,1
43.00,100.17,1
98.00,98.93,1
42.00,97.03,1
46.00,94.25,1
78.00,90.77,1
50.00,87.20,1
86.00,83.78,1
146.00,81.46,1
41.00,80.48,1
64.00,79.49,1
40.00,77.82,1
63.00,75.69,1
114.00,73.89,1
154.00,73.75,1
37.00,75.02,1
71.00,75.98,1
187.00,77.22,1
68.00,79.86,1
77.00,82.54,1
34.00,83.96,1
89.00,84.18,1
148.00,84.54,1
98.00,86.03,1
118.00,88.14,1
120.00,90.59,1
96.00,93.21,1
149.00,95.93,1
48.00,98.48,1
83.00,99.87,1
114.00,100.31,1
99.00,100.72,1
85.00,100.99,1
43.00,100.42,1
68.00,98.63,1
43.00,95.83,1
53.00,92.24,1
131.00,88.77,1
38.00,86.12,1
71.00,83.56,1
44.00,80.69,1
52.00,77.60,1
102.00,74.75,1
144.00,73.42,1
111.00,74.14,1
80.00,75.92,1
54.00,77.46,1
183.00,79.13,1
42.00,81.62,1
47.00,83.40,1
85.00,83.83,1
57.00,83.64,1
146.00,83.58,1
95.00,84.45,1
181.00,86.59,1
166.00,90.53,1
62.00,95.29,1
84.00,98.85,1
38.00,100.48,1
114.00,100.65,1
46.00,100.03,1
85.00,98.65,1
202.00,97.80,1
156.00,99.26,1
75.00,101.97,1
86.00,103.89,1
61.00,104.46,1
39.00,103.46,1
90.00,101.17,1
62.00,98.41,1
72.00,95.41,1
35.00,91.97,1
144.00,88.68,1
71.00,86.50,1
65.00,84.89,1
59.00,83.01,1
36.00,80.65,1
46.00,77.63,1
70.00,74.41,1
47.00,71.43,1
70.00,68.73,1
105.00,66.83,1
72.00,66.09,1
69.00,65.97,1
80.00,66.10,1
46.00,66.29,1
130.00,66.74,1
38.00,67.72,1
105.00,68.80,1
95.00,70.19,1
39.00,71.68,1
131.00,72.96,1
63.00,74.54,1
63.00,75.92,1
46.00,76.40,1
88.00,76.24,1
88.00,76.16,1
91.00,76.52,1
68.00,77.06,1
50.00,77.21,1
94.00,76.93,1
79.00,76.80,1
124.00,77.27,1
62.00,78.28,1
63.00,79.04,1
122.00,79.56,1
48.00,80.26,1
65.00,80.48,1
69.00,80.02,1
86.00,79.41,1
71.00,78.90,1
53.00,78.23,1
71.00,77.18,1
160.00,76.76,1
64.00,77.66,1
38.00,78.47,1
68.00,78.21,1
52.00,77.29,1
140.00,76.62,1
70.00,76.89,1
36.00,77.17,1
44.00,76.37,1
250.00,76.34,1
98.00,79.11,1
70.00,82.88,1
45.00,85.33,1
116.00,86.65,1
83.00,87.76,1
50.00,88.45,1
87.00,88.27,1
109.00,87.97,1
42.00,87.70,1
42.00,86.54,1
60.00,84.32,1
39.00,81.50,1
54.00,78.25,1
48.00,74.80,1
58.00,71.43,1
81.00,68.53,1
41.00,66.22,1
46.00,64.00,1
55.00,61.75,1
46.00,59.67,1
60.00,57.83,1
232.00,57.83,1
43.00,60.61,1
40.00,63.68,1
109.00,65.83,1
124.00,68.44,1
45.00,71.50,1
106.00,74.10,1
39.00,76.07,1
57.00,77.05,1
127.00,77.55,1
48.00,78.35,1
103.00,79.05,1
37.00,79.38,1
40.00,78.78,1
53.00,77.12,1
42.00,74.86,1
51.00,72.21,1
76.00,69.62,1
53.00,67.46,1
88.00,65.83,1
46.00,64.68,1
55.00,63.62,1
99.00,62.81,1
111.00,63.16,1
94.00,64.77,1
129.00,67.40,1
121.00,71.09,1
68.00,75.19,1
50.00,78.35,1
82.00,80.21,1
62.00,81.26,1
40.00,81.40,1
49.00,80.38,1
101.00,78.93,1
48.00,77.69,1
36.00,76.10,1
86.00,74.07,1
39.00,72.13,1
76.00,70.25,1
75.00,68.70,1
40.00,67.45,1
60.00,66.04,1
73.00,64.72,1
98.00,64.08,1
110.00,64.62,1
147.00,66.76,1
108.00,70.42,1
106.00,74.76,1
55.00,78.68,1
78.00,81.49,1
43.00,83.03,1
138.00,83.94,1
148.00,85.71,1
112.00,88.75,1
48.00,91.59,1
72.00,93.04,1
106.00,93.52,1
66.00,93.69,1
52.00,93.11,1
44.00,91.35,1
102.00,88.99,1
71.00,86.89,1
98.00,85.25,1
95.00,84.17,1
140.00,84.12,1
110.00,85.31,1
40.00,86.70,1
71.00,87.04,1
67.00,86.47,1
49.00,85.28,1
84.00,83.61,1
146.00,82.57,1
124.00,83.19,1
65.00,84.72,1
74.00,85.79,1
125.00,86.56,1
43.00,87.31,1
76.00,87.37,1
120.00,87.13,1
186.00,88.24,1
48.00,90.61,1
99.00,92.57,1
119.00,94.02,1
38.00,95.10,1
51.00,94.81,1
173.00,94.05,1
78.00,94.31,1
103.00,94.95,1
94.00,95.43,1
83.00,95.73,1
118.00,95.91,1
190.00,97.09,1
132.00,100.01,1
64.00,103.21,1
41.00,104.71,1
95.00,104.36,1
44.00,102.92,1
66.00,100.49,1
103.00,97.62,1
75.00,95.08,1
194.00,93.70,1
166.00,94.76,1
54.00,97.23,1
51.00,98.57,1
41.00,97.94,1
69.00,95.89,1
49.00,93.03,1
93.00,89.94,1
71.00,87.14,1
97.00,84.88,1
120.00,83.53,1
103.00,83.39,1
56.00,83.68,1
115.00,83.86,1
58.00,84.07,1
38.00,83.68,1
67.00,82.27,1
71.00,80.48,1
122.00,79.21,1
41.00,78.57,1
60.00,77.67,1
82.00,76.41,1
81.00,75.46,1
48.00,74.65,1
98.00,73.84,1
52.00,73.23,1
60.00,72.51,1
48.00,71.39,1
219.00,71.28,1
43.00,73.22,1
67.00,75.35,1
60.00,76.43,1
59.00,76.75,1
133.00,77.03,1
41.00,77.72,1
68.00,78.01,1
40.00,77.45,1
77.00,76.32,1
64.00,75.06,1
155.00,74.61,1
127.00,75.94,1
60.00,78.34,1
114.00,80.55,1
176.00,83.41,1
64.00,87.19,1
60.00,90.19,1
39.00,91.32,1
59.00,90.80,1
38.00,88.99,1
109.00,86.69,1
97.00,85.00,1
48.00,83.80,1
74.00,82.33,1
113.00,81.05,1
81.00,80.55,1
214.00,81.56,1
38.00,84.16,1
44.00,86.11,1
49.00,86.19,1
80.00,85.22,1
66.00,83.94,1
53.00,82.38,1
133.00,80.99,1
101.00,80.74,1
77.00,81.29,1
38.00,81.45,1
50.00,80.56,1
46.00,78.72,1
106.00,76.77,1
42.00,75.23,1
56.00,73.60,1
94.00,71.98,1
36.00,70.69,1
39.00,69.05,1
132.00,67.56,1
55.00,67.16,1
56.00,67.10,1
159.00,67.53,1
101.00,69.53,1
69.00,72.32,1
102.00,74.86,1
215.00,78.36,1
69.00,83.40,1
75.00,88.01,1
162.00,91.76,1
91.00,95.62,1
66.00,98.78,1
55.00,100.21,1
59.00,99.93,1
51.00,98.23,1
42.00,95.37,1
82.00,91.85,1
40.00,88.16,1
93.00,84.55,1
48.00,81.28,1
58.00,78.14,1
76.00,75.16,1
66.00,72.69,1
68.00,70.69,1
45.00,68.88,1
108.00,67.42,1
49.00,66.65,1
127.00,66.62,1
47.00,67.28,1
39.00,67.71,1
86.00,67.54,1
77.00,67.56,1
78.00,67.97,1
106.00,68.83,1
41.00,69.95,1
170.00,71.45,1
85.00,74.08,1
40.00,76.77,1
77.00,78.25,1
108.00,79.29,1
53.00,80.32,1
45.00,80.58,1
70.00,79.87,1
57.00,78.69,1
56.00,77.16,1
51.00,75.27,1
125.00,73.68,1
162.00,73.87,1
48.00,75.69,1
127.00,77.75,1
63.00,79.76,1
38.00,81.05,1
119.00,81.48,1
41.00,81.73,1
37.00,81.17,1
78.00,79.65,1
75.00,78.08,1
67.00,76.74,1
54.00,75.36,1
92.00,74.03,1
32.00,72.80,1
40.00,71.08,1
62.00,68.85,1
104.00,67.11,1
76.00,66.43,1
41.00,66.18,1
53.00,65.54,1
56.00,64.56,1
85.00,63.75,1
47.00,63.28,1
58.00,62.79,1
129.00,62.76,1
158.00,64.59,1
80.00,68.20,1
75.00,71.93,1
46.00,74.67,1
95.00,76.45,1
94.00,78.00,1
68.00,79.51,1
88.00,80.64,1
76.00,81.49,1
123.00,82.44,1
122.00,84.12,1
233.00,87.58,1
132.00,93.29,1
62.00,99.18,1
60.00,102.98,1
238.00,105.93,1
44.00,109.48,1
131.00,112.34,1
98.00,114.13,1
68.00,114.97,1
124.00,114.77,1
67.00,113.98,1
88.00,112.48,1
103.00,110.47,1
133.00,108.82,1
48.00,107.42,1
39.00,105.01,1
64.00,101.28,1
60.00,96.96,1
43.00,92.34,1
140.00,88.14,1
186.00,86.25,1
459.00,89.99,1
86.00,99.70,1
140.00,110.16,1
42.00,117.82,1
44.00,121.92,1
98.00,122.88,1
53.00,121.96,1
265.00,121.11,1
154.00,122.56,1
507.00,128.52,1
149.00,139.79,1
110.00,151.30,1
152.00,159.35,1
47.00,163.96,1
60.00,164.57,1
133.00,162.06,1
368.00,160.53,1
67.00,161.80,1
140.00,162.71,1
69.00,161.45,1
280.00,159.76,1
189.00,159.97,1
151.00,161.53,1
121.00,162.43,1
126.00,162.03,1
110.00,160.35,1
195.00,158.24,1
47.00,155.92,1
280.00,153.71,1
259.00,154.14,1
50.00,156.38,1
415.00,159.31,1
40.00,163.89,1
130.00,167.10,1
104.00,167.35,1
123.00,165.82,1
184.00,163.57,1
161.00,161.85,1
38.00,159.68,1
131.00,155.76,1
152.00,151.38,1
96.00,147.44,1
219.00,144.22,1
244.00,143.45,1
152.00,145.22,1
127.00,147.33,1
85.00,148.12,1
52.00,146.70,1
220.00,144.15,1
62.00,142.03,1
327.00,141.27,1
218.00,143.75,1
83.00,147.90,1
131.00,150.41,1
153.00,151.46,1
103.00,151.70,1
114.00,150.77,1
124.00,148.84,1
240.00,147.43,1
150.00,147.72,1
41.00,147.86,1
127.00,146.02,1
101.00,143.05,1
66.00,139.33,1
66.00,134.38,1
114.00,128.73,1
60.00,123.11,1
100.00,117.53,1
60.00,112.04,1
54.00,106.43,1
145.00,101.23,1
67.00,97.34,1
41.00,93.81,1
54.00,89.70,1
43.00,85.19,1
190.00,81.67,1
296.00,82.24,1
123.00,87.47,1
74.00,93.64,1
63.00,98.00,1
304.00,102.25,1
387.00,110.88,1
383.00,125.88,1
184.00,144.17,1
74.00,160.13,1
233.00,171.61,1
193.00,180.72,1
73.00,187.36,1
43.00,189.36,1
76.00,186.53,1
101.00,180.60,1
46.00,172.77,1
68.00,163.27,1
64.00,152.66,1
39.00,141.49,1
156.00,130.78,1
181.00,122.73,1
118.00,117.82,1
52.00,114.07,1
99.00,110.10,1
55.00,105.95,1
343.00,103.87,1
42.00,105.32,1
64.00,107.00,1
108.00,107.04,1
109.00,106.75,1
163.00,107.03,1
220.00,109.14,1
151.00,113.36,1
907.00,124.61,1
241.00,147.53,1
102.00,172.39,1
124.00,190.32,1
185.00,202.05,1
69.00,208.90,1
85.00,210.59,1
82.00,207.54,1
64.00,200.94,1
281.00,193.34,1
153.00,187.63,1
180.00,183.43,1
179.00,179.89,1
109.00,176.60,1
141.00,172.71,1
147.00,168.48,1
340.00,166.12,1
585.00,170.60,1
70.00,181.44,1
187.00,191.22,1
58.00,196.50,1
99.00,197.29,1
205.00,195.18,1
110.00,192.24,1
300.00,189.64,1
128.00,188.32,1
60.00,186.19,1
220.00,182.25,1
122.00,178.37,1
120.00,174.34,1
116.00,169.45,1
67.00,163.59,1
207.00,157.50,1
163.00,152.99,1
90.00,149.65,1
146.00,146.21,1
106.00,142.79,1
44.00,138.77,1
78.00,133.37,1
119.00,127.47,1
74.00,121.99,1
70.00,116.58,1
40.00,110.71,1
63.00,104.33,1
39.00,97.72,1
169.00,92.03,1
90.00,88.53,1
81.00,86.50,1
69.00,84.76,1
70.00,83.02,1
46.00,81.05,1
83.00,78.90,1
50.00,76.81,1
148.00,75.43,1
132.00,75.87,1
107.00,78.00,1
84.00,80.60,1
66.00,82.72,1
82.00,84.06,1
70.00,84.78,1
64.00,84.88,1
98.00,84.59,1
69.00,84.30,1
95.00,84.02,1
207.00,84.90,1
62.00,87.48,1
65.00,89.83,1
166.00,91.60,1
94.00,93.98,1
136.00,96.75,1
175.00,100.12,1
130.00,104.46,1
88.00,108.64,1
258.00,112.89,1
46.00,117.75,1
76.00,121.07,1
57.00,121.66,1
73.00,120.23,1
144.00,118.05,1
81.00,116.14,1
60.00,113.87,1
74.00,110.65,1
114.00,107.19,1
92.00,104.28,1
42.00,101.43,1
141.00,98.53,1
67.00,96.29,1
235.00,95.62,1
39.00,96.71,1
238.00,98.90,1
172.00,103.00,1
77.00,108.17,1
46.00,111.57,1
62.00,112.40,1
130.00,111.78,1
107.00,111.16,1
260.00,112.01,1
153.00,115.38,1
56.00,119.27,1
122.00,121.46,1
101.00,122.44,1
76.00,122.43,1
93.00,121.24,1
124.00,119.51,1
111.00,117.98,1
83.00,116.46,1
163.00,115.09,1
142.00,114.81,1
116.00,115.45,1
67.00,115.77,1
258.00,116.38,1
74.00,118.42,1
157.00,120.71,1
47.00,122.05,1
101.00,121.94,1
101.00,120.70,1
101.00,119.10,1
98.00,117.26,1
54.00,114.88,1
100.00,111.80,1
68.00,108.42,1
72.00,104.81,1
137.00,101.49,1
67.00,99.02,1
38.00,96.42,1
195.00,94.05,1
66.00,93.22,1
59.00,92.70,1
73.00,91.35,1
90.00,89.75,1
90.00,88.40,1
40.00,87.01,1
78.00,85.13,1
43.00,82.86,1
118.00,80.72,1
134.00,79.86,1
36.00,80.06,1
66.00,79.82,1
75.00,78.99,1
132.00,78.62,1
81.00,79.21,1
102.00,80.33,1
38.00,81.19,1
38.00,80.93,1
40.00,79.32,1
62.00,76.96,1
65.00,74.51,1
67.00,72.33,1
48.00,70.31,1
60.00,68.30,1
60.00,66.40,1
124.00,65.27,1
53.00,65.24,1
146.00,66.18,1
44.00,67.93,1
73.00,69.55,1
40.00,70.38,1
60.00,70.43,1
145.00,70.67,1
37.00,71.73,1
214.00,73.75,1
62.00,77.20,1
109.00,80.96,1
171.00,84.87,1
139.00,89.92,1
133.00,95.59,1
43.00,100.44,1
103.00,103.46,1
52.00,104.82,1
64.00,104.60,1
89.00,103.20,1
140.00,101.88,1
81.00,101.23,1
156.00,101.18,1
83.00,101.74,1
102.00,102.30,1
42.00,102.06,1
48.00,100.42,1
67.00,97.54,1
89.00,94.36,1
151.00,92.10,1
47.00,90.98,1
134.00,90.25,1
101.00,90.15,1
44.00,90.23,1
49.00,89.28,1
83.00,87.46,1
39.00,85.28,1
148.00,83.36,1
196.00,83.54,1
57.00,85.86,1
91.00,88.09,1
199.00,90.50,1
140.00,94.56,1
60.00,98.98,1
68.00,101.79,1
92.00,102.93,1
45.00,102.84,1
84.00,101.56,1
150.00,100.23,1
43.00,99.44,1
95.00,98.29,1
209.00,97.83,1
43.00,98.84,1
36.00,99.07,1
77.00,97.54,1
54.00,95.17,1
36.00,92.03,1
41.00,87.99,1
103.00,83.83,1
70.00,80.53,1
60.00,77.86,1
57.00,75.30,1
200.00,73.96,1
82.00,74.96,1
68.00,76.81,1
148.00,78.70,1
60.00,81.05,1
66.00,82.91,1
126.00,84.21,1
94.00,85.83,1
205.00,88.50,1
67.00,92.33,1
106.00,95.87,1
84.00,98.39,1
59.00,99.79,1
93.00,99.99,1
50.00,99.28,1
273.00,99.30,1
87.00,101.68,1
117.00,104.82,1
78.00,107.03,1
72.00,108.02,1
96.00,107.82,1
40.00,106.62,1
70.00,104.20,1
66.00,100.94,1
127.00,97.85,1
43.00,95.27,1
84.00,92.61,1
44.00,89.62,1
129.00,86.88,1
95.00,85.20,1
82.00,84.44,1
134.00,84.32,1
36.00,84.63,1
119.00,84.75,1
45.00,84.68,1
73.00,84.15,1
130.00,83.62,1
111.00,84.13,1
199.00,86.28,1
67.00,89.84,1
68.00,92.89,1
58.00,94.29,1
68.00,94.30,1
72.00,93.39,1
190.00,92.93,1
113.00,94.18,1
87.00,96.19,1
250.00,98.97,1
88.00,103.41,1
53.00,107.33,1
64.00,108.87,1
51.00,108.36,1
42.00,106.07,1
49.00,102.34,1
151.00,98.52,1
50.00,95.69,1
92.00,93.20,1
35.00,90.45,1
63.00,87.22,1
45.00,83.59,1
68.00,79.88,1
107.00,76.81,1
96.00,75.06,1
44.00,74.08,1
57.00,72.88,1
44.00,71.22,1
111.00,69.72,1
47.00,68.86,1
49.00,68.03,1
71.00,66.94,1
85.00,66.18,1
61.00,65.91,1
96.00,66.03,1
67.00,66.59,1
50.00,67.13,1
127.00,67.74,1
77.00,69.13,1
38.00,70.54,1
46.00,70.92,1
40.00,70.26,1
63.00,69.00,1
58.00,67.62,1
59.00,66.29,1
90.00,65.30,1
44.00,64.73,1
46.00,64.00,1
78.00,63.11,1
58.00,62.49,1
38.00,61.87,1
85.00,61.17,1
69.00,60.90,1
136.00,61.66,1
74.00,63.63,1
36.00,65.66,1
40.00,66.57,1
137.00,67.15,1
44.00,68.33,1
86.00,69.55,1
42.00,70.30,1
37.00,70.25,1
127.00,69.90,1
47.00,70.11,1
102.00,70.62,1
58.00,71.23,1
127.00,72.19,1
139.00,74.27,1
71.00,77.32,1
106.00,80.29,1
114.00,83.17,1
118.00,86.35,1
63.00,89.33,1
160.00,91.98,1
89.00,94.85,1
39.00,97.01,1
83.00,97.52,1
100.00,97.21,1
66.00,96.63,1
107.00,95.80,1
49.00,94.71,1
122.00,93.45,1
142.00,93.01,1
38.00,93.28,1
126.00,93.24,1
36.00,92.82,1
72.00,91.65,1
36.00,89.49,1
32.00,86.34,1
79.00,82.56,1
43.00,78.88,1
92.00,75.60,1
97.00,73.29,1
106.00,72.37,1
62.00,72.34,1
56.00,72.30,1
55.00,71.76,1
47.00,70.73,1
66.00,69.38,1
72.00,68.14,1
94.00,67.46,1
37.00,67.17,1
89.00,66.85,1
48.00,66.57,1
186.00,67.22,1
97.00,69.80,1
134.00,73.71,1
83.00,77.94,1
79.00,81.72,1
75.00,84.50,1
93.00,86.47,1
42.00,87.61,1
37.00,87.35,1
70.00,85.81,1
96.00,84.06,1
66.00,82.66,1
59.00,81.24,1
64.00,79.52,1
35.00,77.40,1
81.00,75.01,1
66.00,72.89,1
77.00,71.26,1
62.00,70.00,1
39.00,68.72,1
108.00,67.51,1
56.00,66.94,1
66.00,66.66,1
54.00,66.24,1
49.00,65.58,1
72.00,64.75,1
122.00,64.60,1
89.00,65.71,1
39.00,67.19,1
72.00,68.06,1
92.00,68.75,1
127.00,70.16,1
76.00,72.43,1
46.00,74.44,1
196.00,76.52,1
88.00,79.96,1
158.00,84.31,1
39.00,88.50,1
45.00,91.06,1
102.00,91.90,1
110.00,92.46,1
144.00,93.68,1
65.00,95.35,1
71.00,96.31,1
37.00,95.85,1
71.00,94.11,1
67.00,91.71,1
112.00,89.48,1
90.00,87.97,1
72.00,86.93,1
35.00,85.47,1
140.00,83.87,1
158.00,83.80,1
60.00,85.28,1
91.00,86.63,1
84.00,87.49,1
76.00,88.01,1
52.00,87.87,1
58.00,86.81,1
77.00,85.15,1
45.00,83.20,1
57.00,80.80,1
107.00,78.50,1
59.00,76.89,1
206.00,76.71,1
50.00,78.36,1
151.00,80.80,1
97.00,83.71,1
117.00,86.97,1
68.00,89.88,1
44.00,91.55,1
41.00,91.42,1
79.00,89.98,1
40.00,87.86,1
76.00,85.29,1
67.00,82.65,1
80.00,80.31,1
108.00,78.64,1
36.00,77.53,1
67.00,76.15,1
102.00,74.83,1
122.00,74.61,1
84.00,75.55,1
36.00,76.47,1
54.00,76.35,1
43.00,75.28,1
186.00,74.67,1
70.00,75.79,1
47.00,77.23,1
127.00,78.18,1
46.00,79.18,1
103.00,79.99,1
98.00,80.85,1
133.00,82.42,1
63.00,84.41,1
134.00,86.39,1
71.00,88.36,1
93.00,89.98,1
172.00,91.79,1
58.00,94.24,1
113.00,96.29,1
116.00,97.98,1
58.00,99.35,1
94.00,99.79,1
147.00,100.08,1
46.00,100.58,1
70.00,100.18,1
42.00,98.45,1
91.00,95.89,1
61.00,93.13,1
109.00,90.62,1
38.00,88.33,1
76.00,85.82,1
80.00,83.31,1
52.00,81.03,1
75.00,78.75,1
44.00,76.45,1
71.00,74.11,1
77.00,72.05,1
58.00,70.44,1
46.00,68.87,1
107.00,67.52,1
63.00,66.94,1
63.00,66.73,1
152.00,67.20,1
104.00,69.24,1
40.00,71.81,1
124.00,73.94,1
40.00,75.82,1
171.00,77.85,1
52.00,80.41,1
42.00,82.30,1
50.00,82.56,1
114.00,82.14,1
66.00,81.95,1
78.00,81.77,1
94.00,81.55,1
124.00,81.91,1
86.00,83.02,1
184.00,85.09,1
83.00,88.29,1
42.00,91.04,1
89.00,92.24,1
99.00,92.73,1
110.00,93.32,1
53.00,93.75,1
71.00,93.36,1
75.00,92.19,1
87.00,90.79,1
208.00,90.51,1
49.00,91.90,1
70.00,93.02,1
139.00,93.51,1
137.00,94.82,1
74.00,96.71,1
76.00,97.93,1
53.00,97.90,1
121.00,97.15,1
100.00,96.63,1
73.00,96.30,1
36.00,95.19,1
38.00,92.69,1
61.00,89.15,1
52.00,85.25,1
36.00,81.13,1
65.00,76.86,1
186.00,73.99,1
64.00,73.51,1
55.00,73.78,1
104.00,73.84,1
44.00,73.98,1
97.00,74.03,1
91.00,74.34,1
97.00,75.23,1
86.00,76.49,1
65.00,77.68,1
65.00,78.33,1
137.00,78.99,1
63.00,80.20,1
212.00,82.41,1
122.00,86.43,1
281.00,92.74,1
94.00,100.91,1
180.00,109.18,1
66.00,116.14,1
136.00,121.29,1
63.00,124.48,1
51.00,125.37,1
63.00,123.77,1
39.00,120.20,1
61.00,115.17,1
172.00,110.28,1
58.00,106.77,1
108.00,103.84,1
100.00,101.27,1
138.00,99.66,1
59.00,98.74,1
56.00,97.35,1
109.00,95.38,1
248.00,95.04,1
37.00,96.96,1
83.00,98.55,1
52.00,98.60,1
128.00,97.98,1
105.00,97.68,1
47.00,97.41,1
105.00,96.49,1
86.00,95.43,1
134.00,94.88,1
68.00,94.81,1
64.00,94.38,1
96.00,93.35,1
57.00,92.06,1
135.00,90.88,1
227.00,91.58,1
137.00,95.14,1
50.00,99.25,1
133.00,102.15,1
64.00,104.10,1
59.00,104.78,1
35.00,103.62,1
101.00,101.20,1
59.00,98.46,1
222.00,96.77,1
196.00,98.09,1
36.00,101.24,1
86.00,103.21,1
61.00,103.48,1
51.00,102.39,1
72.00,100.11,1
159.00,98.00,1
99.00,97.20,1
61.00,96.84,1
38.00,95.48,1
42.00,92.77,1
40.00,88.97,1
65.00,84.67,1
62.00,80.51,1
77.00,76.90,1
82.00,74.07,1
66.00,72.02,1
41.00,70.18,1
36.00,67.98,1
66.00,65.53,1
70.00,63.48,1
40.00,61.85,1
78.00,60.45,1
74.00,59.62,1
41.00,59.24,1
38.00,58.58,1
42.00,57.46,1
117.00,56.68,1
106.00,57.39,1
36.00,59.06,1
60.00,60.33,1
115.00,61.55,1
44.00,63.21,1
102.00,64.91,1
84.00,66.80,1
48.00,68.66,1
125.00,70.33,1
67.00,72.29,1
127.00,74.59,1
38.00,76.84,1
103.00,78.54,1
110.00,80.16,1
51.00,81.84,1
77.00,82.79,1
44.00,82.83,1
147.00,82.69,1
76.00,83.28,1
35.00,83.73,1
153.00,83.78,1
76.00,84.49,1
91.00,85.52,1
147.00,86.83,1
48.00,88.53,1
88.00,89.64,1
64.00,89.88,1
82.00,89.56,1
111.00,89.15,1
54.00,88.86,1
36.00,87.80,1
82.00,85.80,1
284.00,85.46,1
84.00,88.47,1
84.00,92.28,1
125.00,95.23,1
48.00,97.48,1
129.00,98.84,1
49.00,99.55,1
229.00,100.56,1
74.00,102.81,1
51.00,104.65,1
102.00,104.89,1
42.00,104.06,1
132.00,102.61,1
49.00,101.05,1
68.00,98.97,1
84.00,96.32,1
47.00,93.47,1
73.00,90.27,1
44.00,86.81,1
236.00,84.59,1
69.00,84.96,1
42.00,85.88,1
178.00,86.47,1
388.00,90.64,1
214.00,100.53,1
90.00,112.22,1
127.00,121.69,1
175.00,129.15,1
84.00,135.17,1
102.00,138.94,1
120.00,140.57,1
62.00,140.49,1
93.00,138.53,1
142.00,135.68,1
35.00,132.42,1
82.00,127.98,1
74.00,122.63,1
67.00,116.95,1
70.00,111.05,1
86.00,105.31,1
57.00,99.93,1
177.00,95.66,1
48.00,93.06,1
174.00,91.71,1
43.00,91.28,1
307.00,92.64,1
110.00,96.97,1
103.00,102.29,1
149.00,106.79,1
141.00,111.17,1
35.00,114.67,1
116.00,116.25,1
273.00,118.07,1
82.00,121.71,1
98.00,124.87,1
71.00,126.00,1
44.00,125.04,1
97.00,122.27,1
70.00,118.64,1
40.00,114.26,1
37.00,108.68,1
126.00,102.83,1
57.00,97.85,1
56.00,93.27,1
152.00,89.36,1
231.00,88.34,1
64.00,90.26,1
88.00,92.45,1
42.00,93.37,1
87.00,93.12,1
69.00,92.19,1
139.00,91.45,1
149.00,91.98,1
85.00,93.68,1
44.00,94.87,1
53.00,94.49,1
69.00,92.87,1
42.00,90.49,1
65.00,87.49,1
39.00,84.04,1
45.00,80.19,1
58.00,76.16,1
106.00,72.78,1
55.00,70.50,1
87.00,68.94,1
37.00,67.68,1
37.00,66.11,1
122.00,64.66,1
90.00,64.49,1
51.00,65.16,1
57.00,65.56,1
69.00,65.63,1
43.00,65.48,1
60.00,64.97,1
49.00,64.18,1
131.00,63.85,1
113.00,65.02,1
122.00,67.72,1
38.00,70.82,1
67.00,73.01,1
80.00,74.34,1
230.00,76.68,1
134.00,81.54,1
167.00,88.06,1
104.00,94.83,1
128.00,101.00,1
142.00,106.50,1
68.00,111.13,1
92.00,114.01,1
81.00,115.17,1
252.00,116.43,1
90.00,119.15,1
113.00,121.79,1
169.00,123.77,1
114.00,125.85,1
156.00,127.85,1
183.00,130.18,1
68.00,132.53,1
127.00,133.61,1
106.00,133.53,1
145.00,133.06,1
107.00,132.45,1
193.00,132.18,1
37.00,131.98,1
72.00,130.26,1
40.00,126.43,1
83.00,121.28,1
117.00,116.02,1
81.00,111.47,1
40.00,106.96,1
54.00,101.78,1
38.00,96.00,1
147.00,90.73,1
161.00,87.80,1
156.00,87.90,1
62.00,89.49,1
117.00,91.03,1
69.00,92.20,1
91.00,92.90,1
67.00,92.98,1
154.00,93.10,1
91.00,93.97,1
65.00,94.85,1
107.00,95.07,1
109.00,95.31,1
63.00,95.55,1
47.00,94.89,1
56.00,93.01,1
92.00,90.56,1
51.00,88.10,1
55.00,85.38,1
115.00,82.76,1
41.00,80.73,1
90.00,78.90,1
107.00,77.60,1
96.00,77.36,1
35.00,77.38,1
212.00,77.97,1
42.00,80.00,1
42.00,81.68,1
111.00,82.20,1
144.00,83.26,1
90.00,85.37,1
76.00,87.46,1
39.00,88.47,1
72.00,88.17,1
33.00,86.80,1
91.00,84.78,1
42.00,82.56,1
44.00,79.94,1
61.00,76.88,1
71.00,73.97,1
73.00,71.59,1
71.00,69.81,1
74.00,68.53,1
87.00,67.83,1
88.00,67.84,1
93.00,68.56,1
74.00,69.72,1
70.00,70.87,1
89.00,71.90,1
99.00,73.18,1
106.00,74.98,1
59.00,76.94,1
59.00,78.21,1
84.00,78.75,1
91.00,79.18,1
36.00,79.38,1
104.00,79.12,1
46.00,78.70,1
48.00,77.79,1
52.00,76.12,1
71.00,74.18,1
41.00,72.18,1
117.00,70.52,1
52.00,69.62,1
119.00,69.45,1
72.00,70.02,1
43.00,70.67,1
38.00,70.44,1
244.00,70.96,1
52.00,73.79,1
91.00,77.14,1
151.00,80.31,1
103.00,84.17,1
89.00,88.01,1
38.00,90.64,1
50.00,91.41,1
64.00,90.65,1
37.00,88.85,1
57.00,86.14,1
62.00,82.99,1
93.00,80.13,1
64.00,77.88,1
58.00,75.90,1
80.00,74.04,1
154.00,73.26,1
50.00,73.86,1
73.00,74.59,1
82.00,74.97,1
59.00,75.22,1
38.00,74.89,1
97.00,74.08,1
66.00,73.48,1
176.00,73.93,1
68.00,75.85,1
78.00,78.02,1
48.00,79.35,1
68.00,79.74,1
146.00,80.12,1
114.00,81.69,1
54.00,83.72,1
44.00,84.68,1
74.00,84.40,1
86.00,83.69,1
40.00,82.75,1
59.00,81.16,1
61.00,79.07,1
98.00,77.18,1
58.00,75.79,1
85.00,74.71,1
81.00,73.97,1
135.00,74.13,1
47.00,75.10,1
85.00,75.95,1
84.00,76.58,1
91.00,77.36,1
74.00,78.21,1
39.00,78.57,1
36.00,77.79,1
72.00,76.13,1
92.00,74.61,1
41.00,73.44,1
68.00,72.12,1
95.00,70.98,1
59.00,70.39,1
48.00,69.77,1
55.00,68.73,1
66.00,67.51,1
89.00,66.63,1
101.00,66.63,1
80.00,67.49,1
38.00,68.38,1
234.00,70.03,1
67.00,73.70,1
59.00,77.59,1
75.00,80.11,1
83.00,81.78,1
38.00,82.65,1
52.00,82.32,1
42.00,80.85,1
114.00,79.12,1
43.00,77.77,1
51.00,76.25,1
46.00,74.15,1
168.00,72.67,1
66.00,72.88,1
42.00,73.46,1
44.00,73.07,1
66.00,71.97,1
62.00,70.71,1
60.00,69.49,1
76.00,68.40,1
127.00,68.11,1
59.00,68.86,1
104.00,70.04,1
61.00,71.34,1
68.00,72.40,1
65.00,72.97,1
46.00,73.00,1
57.00,72.39,1
36.00,71.14,1
40.00,69.22,1
75.00,67.06,1
106.00,65.65,1
117.00,65.75,1
63.00,66.97,1
61.00,68.21,1
78.00,69.06,1
49.00,69.62,1
35.00,69.49,1
56.00,68.54,1
64.00,67.29,1
37.00,65.94,1
116.00,64.83,1
51.00,64.49,1
99.00,64.73,1
240.00,66.81,1
51.00,71.40,1
59.00,75.85,1
77.00,78.74,1
41.00,80.44,1
72.00,80.97,1
150.00,81.47,1
65.00,82.77,1
98.00,84.16,1
66.00,85.13,1
110.00,85.86,1
109.00,86.84,1
96.00,88.22,1
37.00,89.14,1
44.00,88.66,1
44.00,86.77,1
90.00,84.29,1
44.00,81.83,1
124.00,79.76,1
89.00,78.69,1
39.00,78.10,1
36.00,76.74,1
101.00,74.92,1
40.00,73.36,1
70.00,71.83,1
104.00,70.63,1
118.00,70.69,1
74.00,71.81,1
58.00,72.98,1
81.00,73.69,1
99.00,74.42,1
43.00,75.18,1
85.00,75.51,1
62.00,75.52,1
49.00,75.17,1
90.00,74.48,1
54.00,73.83,1
63.00,73.06,1
67.00,72.09,1
38.00,70.91,1
36.00,69.14,1
257.00,68.55,1
79.00,71.06,1
86.00,74.75,1
71.00,77.76,1
70.00,79.92,1
130.00,81.74,1
44.00,83.52,1
98.00,84.71,1
84.00,85.50,1
225.00,87.33,1
52.00,90.71,1
49.00,93.41,1
36.00,93.89,1
92.00,92.89,1
49.00,91.29,1
55.00,89.08,1
93.00,86.54,1
44.00,84.10,1
50.00,81.37,1
66.00,78.34,1
44.00,75.32,1
68.00,72.36,1
127.00,70.26,1
86.00,69.75,1
41.00,69.87,1
42.00,69.39,1
39.00,68.08,1
207.00,67.54,1
91.00,69.38,1
48.00,72.10,1
47.00,73.71,1
291.00,76.07,1
45.00,80.95,1
74.00,85.74,1
73.00,88.75,1
40.00,90.23,1
78.00,90.27,1
45.00,89.29,1
88.00,87.71,1
54.00,85.88,1
60.00,83.75,1
98.00,81.62,1
40.00,79.74,1
40.00,77.48,1
39.00,74.51,1
56.00,71.21,1
64.00,68.13,1
61.00,65.56,1
50.00,63.39,1
63.00,61.50,1
39.00,59.80,1
81.00,58.37,1
55.00,57.48,1
53.00,56.91,1
47.00,56.32,1
77.00,55.86,1
94.00,56.11,1
36.00,56.93,1
47.00,57.43,1
65.00,57.52,1
68.00,57.71,1
74.00,58.22,1
77.00,59.11,1
58.00,60.19,1
35.00,60.91,1
69.00,61.06,1
43.00,60.95,1
72.00,60.72,1
127.00,61.14,1
63.00,62.66,1
48.00,64.23,1
73.00,65.22,1
81.00,66.08,1
40.00,66.83,1
84.00,67.21,1
87.00,67.71,1
46.00,68.37,1
56.00,68.55,1
66.00,68.27,1
41.00,67.69,1
69.00,66.80,1
42.00,65.75,1
149.00,65.26,1
86.00,66.27,1
37.00,67.80,1
68.00,68.60,1
97.00,69.18,1
40.00,69.83,1
84.00,70.17,1
38.00,70.14,1
39.00,69.43,1
79.00,68.21,1
38.00,66.97,1
61.00,65.59,1
68.00,64.26,1
123.00,63.78,1
154.00,65.17,1
94.00,68.42,1
49.00,71.86,1
122.00,74.70,1
41.00,77.14,1
132.00,79.23,1
62.00,81.23,1
64.00,82.70,1
68.00,83.21,1
43.00,82.86,1
127.00,82.17,1
55.00,81.83,1
131.00,81.92,1
53.00,82.34,1
68.00,82.46,1
43.00,81.74,1
77.00,80.41,1
59.00,78.85,1
60.00,77.16,1
58.00,75.29,1
58.00,73.31,1
77.00,71.46,1
124.00,70.47,1
71.00,70.66,1
36.00,70.96,1
36.00,70.32,1
47.00,68.79,1
109.00,67.33,1
38.00,66.50,1
103.00,66.06,1
47.00,65.94,1
61.00,65.81,1
66.00,65.47,1
91.00,65.40,1
42.00,65.59,1
74.00,65.62,1
136.00,66.17,1
75.00,67.90,1
142.00,70.51,1
47.00,73.53,1
148.00,76.57,1
36.00,79.49,1
51.00,81.30,1
54.00,81.57,1
268.00,82.61,1
108.00,86.50,1
67.00,91.15,1
87.00,94.39,1
65.00,96.24,1
115.00,97.21,1
63.00,97.68,1
42.00,97.14,1
89.00,95.48,1
41.00,93.20,1
139.00,90.95,1
88.00,89.59,1
141.00,89.37,1
113.00,90.26,1
109.00,91.88,1
39.00,93.14,1
58.00,93.04,1
127.00,92.21,1
72.00,91.70,1
109.00,91.43,1
46.00,90.97,1
56.00,89.74,1
54.00,87.59,1
225.00,86.28,1
122.00,87.61,1
43.00,89.95,1
37.00,90.77,1
42.00,89.69,1
172.00,88.32,1
89.00,88.30,1
65.00,88.79,1
87.00,88.76,1
112.00,88.70,1
268.00,90.49,1
63.00,94.75,1
45.00,98.47,1
125.00,100.33,1
111.00,101.78,1
69.00,102.96,1
69.00,103.06,1
58.00,101.91,1
61.00,99.70,1
145.00,97.41,1
67.00,95.90,1
50.00,94.31,1
54.00,91.79,1
104.00,89.00,1
112.00,87.03,1
41.00,85.72,1
76.00,84.11,1
52.00,82.14,1
97.00,80.21,1
62.00,78.64,1
86.00,77.39,1
133.00,76.92,1
88.00,77.66,1
38.00,78.53,1
73.00,78.55,1
58.00,77.96,1
63.00,77.01,1
68.00,75.83,1
104.00,74.94,1
45.00,74.43,1
85.00,73.89,1
39.00,73.14,1
66.00,72.04,1
42.00,70.58,1
211.00,70.14,1
53.00,71.77,1
38.00,73.57,1
119.00,74.55,1
139.00,76.26,1
37.00,78.63,1
38.00,79.90,1
132.00,80.25,1
95.00,81.14,1
51.00,82.22,1
71.00,82.53,1
172.00,83.06,1
88.00,84.87,1
62.00,86.84,1
97.00,88.00,1
63.00,88.61,1
86.00,88.70,1
135.00,88.90,1
111.00,89.97,1
110.00,91.67,1
58.00,93.14,1
65.00,93.59,1
58.00,92.87,1
48.00,91.12,1
44.00,88.41,1
35.00,84.84,1
59.00,80.73,1
79.00,76.86,1
63.00,73.69,1
102.00,71.39,1
92.00,70.25,1
37.00,69.74,1
129.00,69.48,1
44.00,69.79,1
86.00,70.22,1
78.00,70.66,1
65.00,71.20,1
111.00,71.89,1
56.00,72.87,1
50.00,73.46,1
74.00,73.39,1
173.00,73.97,1
117.00,76.42,1
67.00,79.68,1
50.00,82.00,1
115.00,83.39,1
103.00,84.85,1
84.00,86.51,1
115.00,88.09,1
62.00,89.49,1
70.00,90.15,1
37.00,89.64,1
68.00,88.02,1
46.00,85.70,1
77.00,83.05,1
161.00,81.27,1
53.00,80.98,1
125.00,81.32,1
41.00,81.74,1
50.00,81.47,1
83.00,80.43,1
211.00,80.50,1
121.00,83.09,1
73.00,86.66,1
116.00,89.67,1
64.00,92.04,1
76.00,93.45,1
84.00,93.91,1
52.00,93.60,1
60.00,92.31,1
49.00,90.10,1
59.00,87.25,1
57.00,84.05,1
110.00,81.17,1
52.00,79.02,1
57.00,77.02,1
45.00,74.68,1
37.00,71.96,1
98.00,69.31,1
216.00,68.73,1
36.00,70.71,1
37.00,72.56,1
232.00,74.40,1
61.00,77.99,1
39.00,81.38,1
38.00,82.71,1
92.00,82.70,1
42.00,82.13,1
38.00,80.75,1
38.00,78.31,1
80.00,75.47,1
67.00,73.01,1
112.00,71.42,1
106.00,71.14,1
70.00,71.83,1
37.00,72.31,1
40.00,71.81,1
63.00,70.54,1
89.00,69.35,1
57.00,68.62,1
56.00,67.94,1
101.00,67.40,1
61.00,67.41,1
43.00,67.38,1
112.00,67.28,1
88.00,67.90,1
131.00,69.60,1
60.00,71.98,1
179.00,74.97,1
36.00,78.51,1
85.00,81.39,1
134.00,83.70,1
50.00,86.01,1
89.00,87.60,1
124.00,88.82,1
48.00,89.99,1
140.00,90.88,1
98.00,92.08,1
61.00,93.23,1
54.00,93.28,1
55.00,92.08,1
112.00,90.39,1
95.00,89.22,1
193.00,89.48,1
89.00,91.44,1
68.00,93.54,1
166.00,95.27,1
73.00,97.35,1
125.00,99.32,1
162.00,101.55,1
127.00,104.64,1
102.00,107.82,1
156.00,110.69,1
36.00,112.93,1
45.00,113.16,1
83.00,111.33,1
47.00,108.35,1
113.00,104.90,1
50.00,101.48,1
58.00,97.75,1
59.00,93.53,1
58.00,89.17,1
92.00,85.11,1
45.00,81.58,1
144.00,78.89,1
52.00,77.45,1
44.00,76.21,1
39.00,74.22,1
76.00,71.89,1
100.00,70.14,1
71.00,69.37,1
121.00,69.50,1
38.00,70.20,1
45.00,70.41,1
125.00,70.33,1
76.00,71.02,1
148.00,72.71,1
49.00,75.07,1
60.00,76.92,1
114.00,78.12,1
67.00,79.39,1
76.00,80.40,1
59.00,80.82,1
37.00,80.36,1
95.00,79.24,1
54.00,78.10,1
88.00,77.05,1
50.00,76.02,1
143.00,75.46,1
200.00,76.98,1
140.00,81.24,1
43.00,86.11,1
64.00,89.36,1
78.00,90.91,1
48.00,91.29,1
36.00,90.30,1
56.00,87.98,1
73.00,85.14,1
81.00,82.50,1
114.00,80.67,1
65.00,79.70,1
93.00,79.12,1
47.00,78.53,1
147.00,78.24,1
42.00,78.60,1
42.00,78.53,1
65.00,77.46,1
42.00,75.85,1
188.00,74.91,1
127.00,76.23,1
38.00,78.67,1
49.00,80.00,1
40.00,79.81,1
61.00,78.59,1
71.00,76.99,1
143.00,76.10,1
136.00,76.99,1
81.00,79.21,1
144.00,81.94,1
88.00,85.08,1
153.00,88.56,1
44.00,91.91,1
60.00,93.89,1
40.00,93.97,1
56.00,92.51,1
66.00,90.15,1
139.00,88.07,1
155.00,87.71,1
104.00,89.12,1
99.00,91.07,1
87.00,92.75,1
122.00,94.23,1
196.00,96.60,1
67.00,100.01,1
75.00,102.64,1
90.00,103.79,1
49.00,103.73,1
56.00,102.25,1
45.00,99.43,1
129.00,96.26,1
116.00,94.16,1
167.00,93.82,1
44.00,94.56,1
451.00,97.88,1
221.00,106.87,1
151.00,118.89,1
72.00,129.01,1
45.00,135.22,1
220.00,138.59,1
51.00,141.00,1
504.00,145.01,1
143.00,153.26,1
99.00,161.82,1
75.00,166.40,1
114.00,167.31,1
96.00,165.74,1
209.00,163.32,1
43.00,160.67,1
40.00,156.09,1
187.00,150.00,1
58.00,144.30,1
78.00,138.35,1
179.00,132.49,1
120.00,128.26,1
85.00,124.98,1
216.00,122.53,1
59.00,121.39,1
154.00,120.54,1
199.00,120.59,1
91.00,121.97,1
98.00,122.95,1
477.00,125.94,1
144.00,134.00,1
115.00,142.97,1
139.00,149.31,1
110.00,153.33,1
102.00,155.12,1
72.00,154.55,1
53.00,151.46,1
55.00,146.01,1
51.00,138.79,1
95.00,130.79,1
62.00,122.88,1
78.00,115.26,1
116.00,108.42,1
71.00,102.79,1
86.00,97.96,1
46.00,93.43,1
74.00,88.98,1
148.00,85.49,1
161.00,84.40,1
157.00,86.01,1
264.00,90.50,1
128.00,97.66,1
57.00,104.64,1
146.00,109.68,1
80.00,113.42,1
68.00,115.62,1
44.00,115.60,1
46.00,113.43,1
215.00,110.93,1
115.00,110.28,1
66.00,110.36,1
217.00,110.60,1
124.00,112.31,1
126.00,114.78,1
174.00,117.40,1
147.00,120.65,1
100.00,123.83,1
110.00,125.93,1
127.00,127.06,1
44.00,127.08,1
57.00,125.13,1
145.00,122.02,1
322.00,121.15,1
58.00,123.51,1
220.00,126.66,1
64.00,129.51,1
157.00,131.57,1
106.00,132.78,1
97.00,133.18,1
81.00,132.21,1
114.00,130.17,1
79.00,127.52,1
71.00,124.12,1
89.00,119.97,1
112.00,115.84,1
45.00,111.82,1
68.00,107.28,1
279.00,104.09,1
38.00,103.74,1
59.00,103.46,1
246.00,103.15,1
125.00,105.12,1
82.00,107.93,1
78.00,109.53,1
266.00,111.29,1
72.00,114.61,1
89.00,117.47,1
140.00,118.98,1
96.00,120.03,1
174.00,121.04,1
68.00,122.04,1
115.00,122.27,1
55.00,121.32,1
292.00,120.86,1
155.00,123.13,1
147.00,126.97,1
39.00,129.73,1
160.00,130.71,1
293.00,132.53,1
59.00,136.17,1
89.00,138.58,1
107.00,138.67,1
266.00,138.86,1
40.00,140.03,1
125.00,140.18,1
272.00,140.31,1
157.00,142.60,1
109.00,145.38,1
63.00,146.29,1
193.00,145.69,1
89.00,144.87,1
78.00,143.16,1
91.00,139.89,1
86.00,135.64,1
84.00,130.78,1
135.00,125.97,1
138.00,122.22,1
115.00,119.68,1
298.00,119.31,1
70.00,121.54,1
142.00,124.00,1
217.00,126.50,1
54.00,129.42,1
43.00,130.40,1
42.00,128.30,1
247.00,125.54,1
75.00,124.37,1
45.00,123.01,1
205.00,120.96,1
201.00,120.83,1
172.00,123.22,1
61.00,125.97,1
94.00,127.10,1
98.00,126.61,1
127.00,125.49,1
201.00,125.07,1
62.00,125.51,1
64.00,124.92,1
69.00,122.47,1
59.00,118.70,1
180.00,114.93,1
169.00,113.15,1
74.00,112.95,1
201.00,113.36,1
114.00,114.80,1
65.00,116.19,1
173.00,116.85,1
64.00,117.42,1
138.00,117.60,1
119.00,117.63,1
46.00,117.26,1
58.00,115.31,1
210.00,113.08,1
71.00,112.19,1
41.00,111.05,1
40.00,108.09,1
127.00,104.32,1
246.00,102.47,1
147.00,104.09,1
46.00,106.71,1
56.00,107.62,1
135.00,107.17,1
201.00,107.65,1
106.00,109.78,1
58.00,111.66,1
64.00,111.74,1
206.00,111.34,1
126.00,112.34,1
54.00,113.62,1
160.00,114.09,1
94.00,114.54,1
72.00,114.57,1
166.00,114.14,1
91.00,114.13,1
34.00,113.51,1
180.00,112.07,1
126.00,111.58,1
65.00,111.63,1
63.00,110.59,1
133.00,108.83,1
128.00,107.66,1
72.00,107.03,1
183.00,106.78,1
146.00,107.89,1
45.00,109.48,1
40.00,109.35,1
67.00,107.22,1
81.00,104.15,1
55.00,100.73,1
80.00,97.04,1
95.00,93.58,1
100.00,90.92,1
50.00,88.75,1
135.00,86.94,1
112.00,86.25,1
145.00,87.06,1
84.00,88.80,1
114.00,90.73,1
58.00,92.25,1
40.00,92.58,1
63.00,91.42,1
103.00,89.74,1
91.00,88.47,1
92.00,87.70,1
54.00,86.93,1
53.00,85.57,1
82.00,83.70,1
53.00,81.75,1
77.00,79.75,1
41.00,77.64,1
46.00,75.16,1
148.00,73.12,1
53.00,72.42,1
75.00,72.21,1
152.00,72.60,1
60.00,74.12,1
88.00,75.80,1
57.00,76.99,1
43.00,77.37,1
86.00,77.00,1
122.00,76.96,1
184.00,78.64,1
72.00,81.98,1
133.00,85.62,1
62.00,88.87,1
278.00,92.82,1
119.00,98.88,1
207.00,106.20,1
87.00,113.38,1
58.00,118.72,1
54.00,120.97,1
256.00,122.16,1
70.00,124.30,1
122.00,126.09,1
186.00,127.42,1
53.00,128.73,1
152.00,129.14,1
153.00,129.39,1
52.00,129.52,1
44.00,127.79,1
224.00,125.25,1
55.00,123.71,1
73.00,121.81,1
36.00,118.28,1
148.00,114.10,1
38.00,110.20,1
64.00,105.97,1
92.00,101.39,1
57.00,97.07,1
45.00,92.65,1
62.00,87.95,1
39.00,83.18,1
114.00,78.90,1
55.00,75.71,1
45.00,73.01,1
342.00,72.55,1
86.00,76.55,1
46.00,81.69,1
90.00,85.10,1
53.00,87.19,1
73.00,88.11,1
134.00,88.65,1
84.00,89.64,1
39.00,90.25,1
46.00,89.43,1
90.00,87.67,1
52.00,85.74,1
69.00,83.60,1
361.00,83.76,1
78.00,88.30,1
62.00,93.60,1
72.00,96.77,1
58.00,98.17,1
43.00,97.90,1
40.00,95.98,1
71.00,92.95,1
197.00,90.70,1
79.00,90.50,1
75.00,90.91,1
51.00,90.53,1
40.00,89.03,1
103.00,86.88,1
39.00,84.72,1
62.00,82.29,1
206.00,80.77,1
138.00,82.00,1
103.00,85.07,1
110.00,88.35,1
42.00,90.94,1
56.00,91.97,1
43.00,91.35,1
96.00,89.81,1
106.00,88.49,1
93.00,87.88,1
104.00,87.78,1
61.00,87.79,1
38.00,87.08,1
54.00,85.21,1
54.00,82.63,1
39.00,79.59,1
55.00,76.20,1
53.00,72.76,1
111.00,70.00,1
126.00,68.91,1
91.00,69.57,1
82.00,71.00,1
68.00,72.41,1
122.00,73.90,1
161.00,76.50,1
132.00,80.70,1
57.00,85.21,1
72.00,88.45,1
118.00,90.62,1
104.00,92.69,1
87.00,94.60,1
135.00,96.35,1
42.00,97.79,1
127.00,98.50,1
128.00,99.29,1
124.00,100.81,1
83.00,102.42,1
167.00,104.04,1
166.00,106.66,1
83.00,109.94,1
50.00,111.95,1
99.00,112.09,1
67.00,111.10,1
78.00,109.23,1
38.00,106.35,1
121.00,102.92,1
51.00,99.65,1
125.00,96.74,1
86.00,94.53,1
64.00,92.71,1
48.00,90.43,1
46.00,87.39,1
129.00,84.41,1
103.00,82.72,1
45.00,81.85,1
110.00,80.98,1
156.00,81.13,1
43.00,82.42,1
74.00,83.28,1
85.00,83.45,1
116.00,83.80,1
43.00,84.28,1
70.00,84.10,1
95.00,83.48,1
171.00,83.83,1
140.00,86.10,1
102.00,89.55,1
39.00,92.37,1
98.00,93.76,1
64.00,94.18,1
222.00,95.09,1
90.00,97.58,1
66.00,100.12,1
87.00,101.29,1
62.00,101.31,1
139.00,100.87,1
86.00,100.73,1
49.00,100.26,1
53.00,98.54,1
186.00,96.79,1
80.00,96.44,1
53.00,96.29,1
51.00,94.94,1
56.00,92.49,1
55.00,89.35,1
124.00,86.42,1
168.00,85.25,1
40.00,85.70,1
84.00,85.95,1
37.00,85.30,1
78.00,83.93,1
53.00,82.14,1
58.00,80.06,1
62.00,77.74,1
38.00,75.22,1
49.00,72.35,1
117.00,69.87,1
156.00,69.32,1
57.00,70.64,1
90.00,72.29,1
289.00,75.50,1
40.00,81.30,1
55.00,86.53,1
55.00,89.33,1
90.00,90.60,1
236.00,92.46,1
191.00,97.04,1
50.00,102.83,1
92.00,106.99,1
112.00,109.48,1
106.00,111.24,1
105.00,112.44,1
60.00,112.75,1
47.00,111.49,1
35.00,108.38,1
60.00,103.90,1
50.00,98.74,1
105.00,93.75,1
61.00,89.51,1
35.00,85.49,1
65.00,81.22,1
56.00,77.12,1
49.00,73.32,1
110.00,70.19,1
59.00,68.21,1
51.00,66.75,1
79.00,65.42,1
69.00,64.55,1
78.00,64.18,1
55.00,64.10,1
71.00,64.06,1
117.00,64.51,1
194.00,66.84,1
114.00,71.57,1
56.00,76.74,1
60.00,80.50,1
46.00,82.52,1
100.00,83.41,1
53.00,83.80,1
105.00,83.89,1
204.00,85.06,1
100.00,88.22,1
36.00,91.35,1
95.00,92.89,1
270.00,95.09,1
148.00,100.09,1
81.00,105.95,1
54.00,109.90,1
171.00,112.25,1
75.00,114.22,1
84.00,115.28,1
64.00,114.80,1
83.00,113.08,1
54.00,110.37,1
135.00,107.35,1
39.00,104.51,1
94.00,101.43,1
61.00,98.12,1
50.00,94.55,1
64.00,90.56,1
47.00,86.40,1
67.00,82.23,1
98.00,78.66,1
68.00,76.07,1
82.00,74.21,1
77.00,72.90,1
40.00,71.77,1
65.00,70.38,1
41.00,68.74,1
85.00,67.14,1
63.00,65.97,1
76.00,65.27,1
41.00,64.69,1
65.00,63.96,1
37.00,63.01,1
46.00,61.72,1
38.00,60.08,1
52.00,58.29,1
90.00,56.92,1
40.00,56.24,1
186.00,56.82,1
66.00,59.33,1
143.00,63.09,1
65.00,67.32,1
70.00,71.15,1
50.00,73.80,1
44.00,75.14,1
46.00,75.19,1
124.00,74.89,1
86.00,75.32,1
147.00,76.84,1
109.00,79.51,1
78.00,82.58,1
104.00,85.23,1
42.00,87.13,1
257.00,89.37,1
48.00,93.12,1
56.00,96.28,1
239.00,98.79,1
76.00,102.47,1
178.00,106.59,1
93.00,110.54,1
49.00,113.30,1
95.00,114.01,1
53.00,113.19,1
94.00,111.26,1
56.00,108.58,1
81.00,105.31,1
39.00,101.46,1
90.00,97.24,1
37.00,92.92,1
69.00,88.49,1
104.00,84.50,1
108.00,81.86,1
77.00,80.43,1
79.00,79.50,1
125.00,79.15,1
74.00,79.60,1
88.00,80.29,1
137.00,81.36,1
46.00,82.86,1
46.00,83.53,1
58.00,82.89,1
138.00,82.15,1
64.00,82.16,1
55.00,82.10,1
50.00,81.18,1
58.00,79.55,1
68.00,77.62,1
193.00,76.81,1
82.00,78.08,1
71.00,80.00,1
105.00,81.53,1
81.00,83.00,1
79.00,84.23,1
52.00,84.77,1
99.00,84.71,1
41.00,84.28,1
192.00,84.24,1
87.00,85.68,1
103.00,87.81,1
39.00,89.28,1
208.00,90.65,1
37.00,92.76,1
38.00,93.94,1
132.00,93.75,1
117.00,93.97,1
37.00,94.36,1
115.00,94.07,1
42.00,93.28,1
278.00,93.54,1
35.00,95.89,1
74.00,98.00,1
62.00,98.39,1
106.00,97.94,1
94.00,97.40,1
94.00,96.98,1
43.00,96.13,1
40.00,94.11,1
123.00,91.51,1
89.00,89.60,1
115.00,88.63,1
39.00,87.92,1
127.00,87.12,1
40.00,86.38,1
53.00,85.10,1
92.00,83.28,1
80.00,81.76,1
96.00,80.79,1
104.00,80.49,1
132.00,81.20,1
55.00,82.56,1
51.00,83.29,1
65.00,82.92,1
50.00,81.80,1
38.00,79.92,1
96.00,77.70,1
86.00,76.05,1
201.00,76.18,1
55.00,78.27,1
66.00,80.38,1
96.00,81.67,1
228.00,83.95,1
87.00,88.20,1
74.00,92.46,1
67.00,95.13,1
133.00,96.83,1
84.00,98.37,1
44.00,99.13,1
231.00,99.76,1
45.00,101.49,1
78.00,102.74,1
59.00,102.44,1
126.00,101.48,1
71.00,100.55,1
53.00,99.18,1
88.00,97.03,1
45.00,94.45,1
174.00,92.28,1
162.00,92.16,1
98.00,93.97,1
55.00,95.65,1
50.00,95.89,1
151.00,95.42,1
79.00,95.47,1
51.00,95.33,1
43.00,93.91,1
56.00,91.32,1
149.00,88.84,1
54.00,87.40,1
50.00,85.95,1
149.00,84.51,1
40.00,83.83,1
82.00,83.11,1
67.00,82.06,1
48.00,80.73,1
61.00,78.88,1
145.00,77.47,1
50.00,77.17,1
81.00,77.08,1
163.00,77.57,1
62.00,79.26,1
157.00,81.60,1
146.00,84.99,1
62.00,88.99,1
75.00,91.93,1
37.00,93.18,1
164.00,93.64,1
65.00,94.44,1
185.00,95.90,1
58.00,97.91,1
52.00,99.11,1
39.00,98.39,1
108.00,96.57,1
57.00,94.56,1
58.00,92.22,1
124.00,89.85,1
97.00,88.40,1
133.00,88.13,1
70.00,88.59,1
161.00,89.60,1
95.00,91.44,1
81.00,93.39,1
38.00,94.22,1
69.00,93.60,1
36.00,91.78,1
41.00,88.87,1
103.00,85.54,1
39.00,82.55,1
99.00,79.86,1
108.00,78.03,1
123.00,77.69,1
47.00,78.18,1
96.00,78.56,1
79.00,78.88,1
103.00,79.46,1
92.00,80.40,1
49.00,81.23,1
78.00,81.39,1
45.00,80.89,1
231.00,81.14,1
93.00,83.61,1
42.00,86.52,1
85.00,88.04,1
112.00,88.96,1
113.00,90.20,1
62.00,91.47,1
120.00,92.37,1
67.00,93.04,1
103.00,93.42,1
80.00,93.55,1
89.00,93.46,1
72.00,93.03,1
162.00,92.89,1
189.00,94.57,1
62.00,97.69,1
103.00,100.28,1
215.00,102.93,1
43.00,106.30,1
80.00,108.50,1
67.00,108.78,1
127.00,108.21,1
67.00,107.40,1
183.00,106.91,1
66.00,107.13,1
73.00,106.97,1
59.00,105.53,1
142.00,103.70,1
100.00,102.53,1
127.00,102.14,1
72.00,101.98,1
97.00,101.54,1
104.00,100.90,1
127.00,100.65,1
221.00,101.93,1
87.00,104.99,1
49.00,107.52,1
62.00,107.92,1
90.00,106.82,1
70.00,105.03,1
64.00,102.63,1
56.00,99.50,1
54.00,95.72,1
50.00,91.46,1
47.00,86.86,1
49.00,82.08,1
142.00,78.11,1
74.00,75.88,1
49.00,74.48,1
36.00,72.67,1
51.00,70.31,1
74.00,67.95,1
96.00,66.35,1
84.00,65.83,1
76.00,66.07,1
67.00,66.58,1
56.00,66.96,1
59.00,67.01,1
42.00,66.61,1
52.00,65.71,1
42.00,64.41,1
42.00,62.76,1
90.00,61.22,1
161.00,61.20,1
62.00,63.09,1
79.00,65.46,1
59.00,67.39,1
38.00,68.58,1
98.00,69.14,1
126.00,70.25,1
80.00,72.34,1
153.00,75.18,1
120.00,79.02,1
195.00,84.19,1
186.00,91.10,1
66.00,98.59,1
297.00,106.10,1
48.00,114.17,1
250.00,121.85,1
73.00,128.80,1
240.00,135.07,1
118.00,140.93,1
62.00,145.17,1
138.00,146.73,1
140.00,147.00,1
38.00,146.10,1
111.00,143.28,1
332.00,141.30,1
152.00,142.80,1
225.00,146.33,1
68.00,149.72,1
152.00,151.58,1
48.00,151.47,1
37.00,148.68,1
68.00,143.21,1
143.00,136.92,1
234.00,132.48,1
61.00,130.27,1
298.00,129.69,1
67.00,130.96,1
57.00,131.63,1
96.00,130.07,1
140.00,127.79,1
67.00,125.50,1
41.00,122.20,1
146.00,118.08,1
98.00,114.62,1
100.00,111.85,1
195.00,110.12,1
54.00,109.67,1
187.00,109.76,1
118.00,110.71,1
94.00,112.06,1
262.00,114.08,1
90.00,117.69,1
139.00,121.36,1
169.00,124.58,1
54.00,127.29,1
62.00,127.91,1
195.00,127.24,1
58.00,126.73,1
85.00,125.42,1
38.00,122.46,1
316.00,120.10,1
96.00,120.70,1
56.00,121.83,1
45.00,120.73,1
90.00,117.81,1
96.00,114.34,1
85.00,110.96,1
40.00,107.24,1
43.00,102.58,1
82.00,97.36,1
53.00,92.32,1
69.00,87.57,1
52.00,83.06,1
90.00,79.07,1
44.00,75.70,1
68.00,72.68,1
138.00,70.61,1
97.00,70.37,1
136.00,71.72,1
54.00,73.87,1
78.00,75.72,1
46.00,76.74,1
94.00,77.16,1
67.00,77.41,1
69.00,77.50,1
217.00,78.49,1
104.00,81.66,1
100.00,85.73,1
241.00,90.49,1
89.00,96.67,1
79.00,102.27,1
63.00,105.71,1
184.00,108.04,1
132.00,110.90,1
55.00,113.56,1
42.00,114.17,1
45.00,112.39,1
144.00,109.58,1
49.00,106.99,1
268.00,105.70,1
68.00,106.63,1
67.00,107.71,1
112.00,107.56,1
210.00,108.04,1
61.00,109.75,1
243.00,112.18,1
104.00,115.71,1
96.00,119.09,1
138.00,121.31,1
37.00,122.36,1
38.00,121.17,1
168.00,118.57,1
76.00,116.40,1
244.00,115.57,1
58.00,116.26,1
84.00,116.60,1
37.00,115.18,1
67.00,112.16,1
37.00,107.86,1
57.00,102.66,1
109.00,97.45,1
43.00,92.91,1
55.00,88.45,1
60.00,83.89,1
122.00,80.10,1
129.00,78.16,1
68.00,77.81,1
54.00,77.61,1
58.00,76.83,1
92.00,75.86,1
49.00,75.01,1
50.00,73.88,1
111.00,72.73,1
117.00,72.67,1
54.00,73.52,1
37.00,73.90,1
76.00,73.42,1
38.00,72.51,1
84.00,71.37,1
60.00,70.34,1
87.00,69.63,1
99.00,69.55,1
63.00,70.07,1
92.00,70.77,1
76.00,71.63,1
52.00,72.36,1
135.00,73.13,1
78.00,74.61,1
164.00,77.02,1
50.00,80.09,1
75.00,82.57,1
84.00,84.08,1
47.00,84.83,1
74.00,84.68,1
58.00,83.86,1
56.00,82.49,1
55.00,80.57,1
80.00,78.49,1
53.00,76.52,1
158.00,75.33,1
88.00,75.73,1
94.00,77.07,1
57.00,78.29,1
56.00,78.81,1
80.00,78.66,1
108.00,78.62,1
47.00,78.83,1
59.00,78.54,1
57.00,77.55,1
117.00,76.64,1
145.00,77.01,1
47.00,78.52,1
66.00,79.59,1
229.00,81.14,1
54.00,84.45,1
58.00,87.44,1
56.00,88.68,1
94.00,88.87,1
56.00,88.54,1
88.00,87.80,1
50.00,86.66,1
55.00,84.94,1
