34,34.99,1
37,34.96,1
33,34.94,1
34,34.91,1
35,34.85,1
32,34.78,1
38,34.71,1
31,34.66,1
36,34.59,1
31,34.51,1
46,34.5,1
31,34.62,1
37,34.76,1
31,34.85,1
49,34.98,1
31,35.25,1
51,35.62,1
31,36.08,1
52,36.6,1
32,37.16,1
52,37.74,1
37,38.37,1
51,39.04,1
30,39.65,1
48,40.12,1
35,40.48,1
51,40.81,1
31,41.11,1
43,41.26,1
41,41.32,1
49,41.44,1
29,41.55,1
49,41.54,1
41,41.56,1
42,41.62,1
31,41.59,1
42,41.4,1
29,41.07,1
37,40.61,1
34,40.05,1
37,39.47,1
34,38.9,1
35,38.34,1
34,37.79,1
37,37.28,1
36,36.85,1
34,36.49,1
35,36.15,1
32,35.83,1
40,35.55,1
38,35.39,1
44,35.43,1
31,35.58,1
45,35.76,1
31,35.98,1
49,36.24,1
31,36.56,1
49,36.92,1
32,37.3,1
45,37.66,1
32,37.96,1
51,38.26,1
31,38.58,1
42,38.83,1
31,38.95,1
44,38.97,1
32,38.95,1
42,38.89,1
31,38.77,1
52,38.69,1
32,38.73,1
42,38.78,1
34,38.78,1
51,38.83,1
32,38.96,1
44,39.1,1
32,39.16,1
44,39.17,1
31,39.13,1
42,39.04,1
32,38.89,1
46,38.75,1
32,38.64,1
39,38.52,1
34,38.35,1
38,38.15,1
36,37.94,1
36,37.74,1
34,37.51,1
33,37.23,1
39,36.93,1
31,36.66,1
35,36.37,1
31,36.04,1
42,35.74,1
31,35.54,1
36,35.37,1
30,35.17,1
46,35.03,1
31,35.03,1
48,35.16,1
32,35.4,1
50,35.76,1
32,36.2,1
50,36.69,1
34,37.22,1
53,37.8,1
32,38.42,1
52,39.01,1
35,39.58,1
50,40.13,1
31,40.59,1
52,40.96,1
35,41.28,1
46,41.56,1
31,41.7,1
47,41.71,1
38,41.69,1
43,41.67,1
31,41.55,1
47,41.35,1
39,41.19,1
41,41.07,1
33,40.9,1
44,40.67,1
32,40.41,1
42,40.12,1
31,39.79,1
37,39.39,1
36,38.95,1
33,38.51,1
38,38.05,1
32,37.62,1
38,37.2,1
33,36.82,1
43,36.52,1
31,36.33,1
48,36.25,1
35,36.32,1
46,36.53,1
31,36.79,1
47,37.05,1
35,37.34,1
49,37.7,1
32,38.09,1
53,38.49,1
42,39.02,1
52,39.68,1
31,40.34,1
52,40.87,1
39,41.37,1
51,41.87,1
31,42.29,1
52,42.58,1
31,42.76,1
55,42.88,1
32,42.99,1
51,43.05,1
32,43.05,1
43,42.93,1
32,42.67,1
44,42.31,1
30,41.88,1
37,41.33,1
31,40.67,1
42,39.99,1
32,39.37,1
36,38.76,1
31,38.14,1
36,37.52,1
35,36.95,1
35,36.45,1
35,36.03,1
31,35.64,1
37,35.28,1
36,35,1
39,34.85,1
32,34.79,1
42,34.8,1
32,34.87,1
42,35,1
30,35.14,1
46,35.31,1
31,35.54,1
46,35.8,1
31,36.09,1
51,36.44,1
31,36.84,1
46,37.25,1
33,37.62,1
55,38.03,1
31,38.52,1
39,38.91,1
32,39.09,1
51,39.21,1
34,39.39,1
49,39.61,1
31,39.82,1
51,39.99,1
32,40.17,1
48,40.33,1
32,40.43,1
47,40.49,1
30,40.49,1
44,40.4,1
34,40.25,1
41,40.07,1
31,39.83,1
42,39.53,1
36,39.24,1
40,39,1
33,38.75,1
36,38.46,1
36,38.14,1
34,37.8,1
34,37.44,1
34,37.06,1
37,36.69,1
34,36.37,1
40,36.12,1
33,35.95,1
44,35.87,1
32,35.89,1
48,36,1
31,36.21,1
47,36.47,1
35,36.78,1
45,37.14,1
31,37.47,1
49,37.78,1
42,38.17,1
51,38.72,1
32,39.32,1
57,39.89,1
38,40.52,1
51,41.18,1
31,41.74,1
51,42.14,1
33,42.42,1
46,42.58,1
32,42.59,1
49,42.51,1
32,42.38,1
43,42.18,1
31,41.86,1
45,41.48,1
30,41.06,1
39,40.58,1
31,40.03,1
41,39.46,1
32,38.92,1
36,38.39,1
31,37.84,1
41,37.31,1
33,36.89,1
39,36.55,1
33,36.28,1
36,36.04,1
35,35.82,1
35,35.63,1
38,35.5,1
31,35.39,1
43,35.33,1
31,35.33,1
38,35.34,1
29,35.31,1
48,35.31,1
32,35.44,1
36,35.58,1
32,35.64,1
48,35.73,1
31,35.93,1
47,36.19,1
30,36.47,1
50,36.78,1
32,37.13,1
41,37.45,1
32,37.67,1
53,37.89,1
31,38.2,1
51,38.55,1
34,38.91,1
53,39.32,1
34,39.77,1
50,40.21,1
37,40.63,1
47,41.02,1
31,41.3,1
45,41.42,1
39,41.46,1
48,41.54,1
31,41.6,1
43,41.53,1
34,41.36,1
41,41.12,1
31,40.79,1
45,40.42,1
32,40.07,1
40,39.71,1
34,39.33,1
35,38.92,1
35,38.48,1
34,38.02,1
37,37.57,1
32,37.15,1
42,36.78,1
34,36.52,1
40,36.36,1
31,36.23,1
44,36.14,1
38,36.17,1
46,36.37,1
31,36.65,1
50,36.95,1
33,37.31,1
46,37.69,1
32,38.03,1
54,38.39,1
30,38.79,1
51,39.18,1
32,39.54,1
49,39.85,1
32,40.12,1
46,40.31,1
31,40.4,1
51,40.45,1
31,40.5,1
36,40.44,1
32,40.18,1
46,39.85,1
31,39.57,1
40,39.28,1
31,38.93,1
43,38.57,1
31,38.25,1
43,37.97,1
31,37.72,1
42,37.5,1
30,37.29,1
39,37.07,1
33,36.83,1
40,36.64,1
34,36.5,1
34,36.35,1
33,36.16,1
32,35.91,1
39,35.66,1
28,35.43,1
39,35.19,1
31,34.98,1
46,34.87,1
32,34.92,1
38,35.02,1
32,35.1,1
52,35.27,1
31,35.61,1
45,36,1
33,36.39,1
47,36.78,1
32,37.17,1
50,37.57,1
37,38.03,1
52,38.57,1
32,39.14,1
51,39.65,1
38,40.15,1
52,40.69,1
30,41.17,1
54,41.54,1
40,41.93,1
47,42.33,1
32,42.6,1
48,42.72,1
40,42.79,1
42,42.83,1
30,42.72,1
43,42.43,1
32,42.03,1
42,41.57,1
32,41.07,1
41,40.55,1
33,40.03,1
39,39.52,1
33,39.01,1
40,38.54,1
35,38.13,1
35,37.76,1
37,37.4,1
33,37.06,1
35,36.72,1
35,36.39,1
41,36.15,1
32,35.99,1
43,35.91,1
36,35.93,1
44,36.07,1
31,36.26,1
46,36.47,1
31,36.69,1
48,36.93,1
30,37.19,1
53,37.49,1
31,37.86,1
47,38.22,1
30,38.51,1
53,38.79,1
32,39.1,1
43,39.37,1
32,39.51,1
52,39.63,1
31,39.78,1
38,39.85,1
31,39.72,1
46,39.52,1
31,39.33,1
41,39.12,1
31,38.86,1
47,38.62,1
30,38.44,1
46,38.29,1
33,38.2,1
46,38.17,1
33,38.19,1
41,38.21,1
33,38.18,1
40,38.11,1
33,38.01,1
37,37.86,1
35,37.67,1
36,37.46,1
38,37.26,1
34,37.08,1
35,36.89,1
32,36.65,1
38,36.39,1
31,36.13,1
38,35.89,1
32,35.66,1
49,35.56,1
30,35.63,1
44,35.76,1
31,35.92,1
48,36.12,1
31,36.38,1
47,36.67,1
32,36.98,1
51,37.33,1
30,37.71,1
49,38.08,1
32,38.42,1
49,38.75,1
33,39.07,1
53,39.4,1
37,39.81,1
48,40.24,1
32,40.61,1
47,40.86,1
42,41.09,1
48,41.38,1
31,41.63,1
47,41.74,1
35,41.77,1
42,41.73,1
31,41.56,1
40,41.25,1
31,40.83,1
43,40.36,1
32,39.9,1
38,39.43,1
31,38.92,1
38,38.39,1
35,37.89,1
33,37.42,1
36,36.96,1
35,36.55,1
38,36.22,1
34,35.97,1
40,35.79,1
38,35.73,1
40,35.79,1
31,35.88,1
43,35.97,1
34,36.09,1
47,36.29,1
31,36.56,1
49,36.86,1
30,37.18,1
46,37.47,1
31,37.72,1
50,37.97,1
30,38.24,1
48,38.48,1
31,38.69,1
50,38.89,1
32,39.11,1
45,39.29,1
32,39.4,1
50,39.5,1
32,39.63,1
42,39.7,1
33,39.68,1
45,39.61,1
31,39.53,1
43,39.4,1
32,39.23,1
36,38.99,1
32,38.64,1
46,38.31,1
34,38.09,1
42,37.96,1
37,37.88,1
39,37.85,1
34,37.81,1
36,37.71,1
35,37.55,1
40,37.4,1
35,37.29,1
34,37.16,1
38,37,1
32,36.83,1
38,36.64,1
32,36.44,1
43,36.29,1
30,36.19,1
49,36.18,1
32,36.29,1
50,36.52,1
30,36.83,1
51,37.17,1
34,37.57,1
49,38.02,1
31,38.46,1
55,38.88,1
35,39.38,1
50,39.89,1
31,40.34,1
51,40.69,1
40,41.05,1
49,41.44,1
32,41.78,1
49,41.99,1
39,42.17,1
50,42.37,1
31,42.52,1
49,42.57,1
37,42.57,1
43,42.53,1
32,42.38,1
44,42.12,1
31,41.77,1
40,41.34,1
32,40.83,1
42,40.3,1
33,39.8,1
37,39.3,1
31,38.76,1
36,38.19,1
35,37.63,1
34,37.13,1
35,36.65,1
32,36.21,1
40,35.82,1
36,35.56,1
40,35.45,1
32,35.41,1
45,35.44,1
33,35.57,1
47,35.8,1
31,36.09,1
48,36.42,1
29,36.75,1
54,37.11,1
30,37.53,1
49,37.96,1
30,38.34,1
46,38.64,1
32,38.86,1
52,39.09,1
33,39.36,1
43,39.6,1
30,39.7,1
55,39.77,1
31,39.93,1
41,40.03,1
32,39.98,1
47,39.89,1
37,39.84,1
44,39.85,1
32,39.84,1
46,39.78,1
32,39.72,1
43,39.62,1
32,39.48,1
42,39.3,1
32,39.08,1
39,38.83,1
33,38.54,1
37,38.21,1
33,37.86,1
39,37.52,1
34,37.22,1
37,36.95,1
37,36.72,1
35,36.54,1
36,36.37,1
32,36.2,1
40,36.02,1
32,35.89,1
46,35.84,1
34,35.92,1
45,36.11,1
29,36.32,1
45,36.5,1
33,36.69,1
48,36.93,1
31,37.22,1
45,37.49,1
40,37.78,1
47,38.17,1
32,38.58,1
47,38.92,1
37,39.24,1
49,39.59,1
32,39.93,1
51,40.22,1
40,40.54,1
51,40.96,1
31,41.34,1
32,41.47,1
33,41.26,1
61,41.06,1
31,41.07,1
35,41.03,1
30,40.74,1
42,40.3,1
30,39.82,1
50,39.4,1
31,39.11,1
39,38.84,1
38,38.57,1
37,38.35,1
37,38.14,1
34,37.92,1
32,37.63,1
44,37.35,1
34,37.17,1
36,37.02,1
42,36.91,1
40,36.93,1
49,37.13,1
39,37.52,1
46,38,1
34,38.47,1
63,39.01,1
34,39.74,1
40,40.39,1
32,40.76,1
52,40.98,1
30,41.17,1
41,41.22,1
30,41.07,1
51,40.86,1
31,40.69,1
43,40.51,1
32,40.26,1
49,40.04,1
31,39.87,1
42,39.69,1
32,39.46,1
49,39.26,1
32,39.15,1
43,39.06,1
31,38.93,1
46,38.79,1
30,38.67,1
44,38.54,1
32,38.41,1
43,38.29,1
30,38.15,1
38,37.96,1
34,37.71,1
39,37.47,1
31,37.24,1
36,36.96,1
35,36.67,1
36,36.41,1
36,36.19,1
41,36.06,1
34,36.02,1
33,35.98,1
39,35.9,1
33,35.85,1
38,35.8,1
33,35.76,1
49,35.81,1
30,35.99,1
42,36.18,1
30,36.33,1
47,36.47,1
31,36.65,1
48,36.87,1
32,37.13,1
53,37.46,1
31,37.87,1
52,38.31,1
34,38.77,1
50,39.25,1
31,39.67,1
49,40.02,1
36,40.32,1
47,40.6,1
32,40.82,1
51,40.97,1
37,41.14,1
46,41.33,1
31,41.42,1
46,41.4,1
36,41.33,1
39,41.21,1
31,40.96,1
39,40.57,1
35,40.13,1
42,39.71,1
31,39.33,1
39,38.91,1
35,38.51,1
37,38.13,1
31,37.74,1
37,37.32,1
34,36.92,1
34,36.55,1
37,36.2,1
33,35.91,1
38,35.66,1
32,35.46,1
35,35.27,1
32,35.07,1
41,34.91,1
34,34.86,1
44,34.93,1
31,35.09,1
47,35.31,1
38,35.66,1
42,36.11,1
31,36.52,1
46,36.86,1
33,37.2,1
49,37.55,1
31,37.91,1
50,38.27,1
30,38.6,1
47,38.87,1
31,39.08,1
53,39.28,1
31,39.53,1
45,39.73,1
31,39.82,1
44,39.83,1
30,39.75,1
42,39.58,1
31,39.35,1
39,39.05,1
31,38.7,1
36,38.28,1
32,37.81,1
45,37.41,1
31,37.13,1
37,36.88,1
33,36.61,1
39,36.37,1
34,36.18,1
36,36.03,1
36,35.89,1
36,35.79,1
36,35.72,1
31,35.63,1
35,35.49,1
33,35.32,1
40,35.19,1
31,35.11,1
37,35.04,1
31,34.95,1
48,34.95,1
31,35.09,1
37,35.25,1
31,35.33,1
48,35.44,1
30,35.65,1
43,35.88,1
32,36.09,1
51,36.36,1
34,36.75,1
44,37.17,1
32,37.54,1
51,37.89,1
33,38.29,1
40,38.62,1
32,38.79,1
48,38.9,1
31,39.01,1
42,39.06,1
34,39.04,1
46,39.02,1
32,39.03,1
42,39,1
32,38.91,1
38,38.74,1
31,38.49,1
37,38.16,1
31,37.77,1
36,37.34,1
33,36.91,1
36,36.5,1
36,36.15,1
36,35.88,1
35,35.66,1
35,35.49,1
39,35.37,1
34,35.33,1
48,35.41,1
34,35.65,1
41,35.95,1
32,36.21,1
46,36.46,1
32,36.74,1
44,37,1
32,37.24,1
53,37.51,1
31,37.88,1
48,38.25,1
30,38.57,1
52,38.85,1
32,39.16,1
46,39.43,1
32,39.63,1
51,39.8,1
32,39.98,1
44,40.12,1
32,40.15,1
46,40.12,1
32,40.06,1
42,39.95,1
32,39.77,1
41,39.53,1
32,39.26,1
36,38.91,1
30,38.48,1
43,38.02,1
31,37.63,1
36,37.26,1
32,36.86,1
40,36.5,1
33,36.21,1
35,35.97,1
33,35.71,1
36,35.47,1
33,35.26,1
37,35.08,1
37,34.97,1
32,34.91,1
38,34.87,1
33,34.84,1
42,34.88,1
33,34.99,1
42,35.16,1
31,35.34,1
44,35.54,1
30,35.75,1
49,35.98,1
31,36.29,1
42,36.58,1
31,36.8,1
51,37.04,1
30,37.33,1
41,37.58,1
31,37.71,1
49,37.82,1
31,37.97,1
39,38.08,1
31,38.05,1
47,38,1
32,38,1
42,38.01,1
33,37.99,1
48,38.01,1
31,38.09,1
45,38.17,1
32,38.24,1
43,38.28,1
30,38.27,1
42,38.2,1
32,38.09,1
38,37.93,1
32,37.72,1
38,37.47,1
37,37.24,1
37,37.07,1
34,36.91,1
35,36.72,1
34,36.51,1
39,36.32,1
38,36.21,1
33,36.15,1
38,36.08,1
31,36,1
44,35.93,1
31,35.94,1
44,35.99,1
31,36.08,1
44,36.19,1
31,36.32,1
45,36.47,1
32,36.63,1
52,36.88,1
31,37.23,1
46,37.58,1
37,37.93,1
50,38.34,1
31,38.77,1
55,39.2,1
40,39.72,1
50,40.33,1
31,40.88,1
48,41.26,1
31,41.5,1
48,41.61,1
31,41.63,1
48,41.58,1
30,41.46,1
38,41.21,1
33,40.81,1
41,40.35,1
34,39.91,1
36,39.45,1
31,38.93,1
43,38.42,1
32,37.99,1
39,37.61,1
32,37.26,1
39,36.93,1
33,36.64,1
34,36.36,1
34,36.06,1
39,35.81,1
34,35.64,1
34,35.49,1
37,35.36,1
32,35.25,1
43,35.19,1
32,35.21,1
38,35.27,1
31,35.29,1
44,35.34,1
31,35.44,1
40,35.55,1
31,35.64,1
40,35.69,1
32,35.74,1
46,35.83,1
32,36.01,1
50,36.27,1
33,36.63,1
50,37.07,1
32,37.53,1
52,38.02,1
31,38.51,1
50,38.96,1
35,39.39,1
49,39.81,1
33,40.18,1
50,40.5,1
41,40.84,1
45,41.22,1
30,41.47,1
43,41.51,1
32,41.4,1
39,41.16,1
33,40.8,1
42,40.39,1
31,39.97,1
38,39.5,1
32,38.99,1
40,38.49,1
32,38.03,1
34,37.56,1
34,37.07,1
37,36.63,1
39,36.29,1
35,36.07,1
37,35.92,1
32,35.78,1
42,35.68,1
33,35.65,1
44,35.7,1
31,35.82,1
47,35.99,1
32,36.22,1
43,36.47,1
31,36.69,1
49,36.92,1
33,37.2,1
47,37.53,1
31,37.84,1
48,38.13,1
38,38.44,1
51,38.86,1
30,39.29,1
48,39.64,1
40,39.96,1
45,40.32,1
30,40.58,1
49,40.71,1
31,40.77,1
40,40.73,1
31,40.52,1
47,40.26,1
33,40.03,1
39,39.79,1
30,39.46,1
42,39.08,1
37,38.74,1
40,38.49,1
31,38.25,1
44,38.01,1
33,37.83,1
33,37.62,1
33,37.32,1
36,36.97,1
35,36.63,1
35,36.34,1
36,36.08,1
32,35.83,1
38,35.61,1
32,35.41,1
42,35.28,1
31,35.23,1
39,35.21,1
33,35.21,1
48,35.3,1
31,35.52,1
50,35.84,1
34,36.26,1
53,36.79,1
31,37.38,1
50,37.96,1
38,38.54,1
50,39.17,1
32,39.75,1
45,40.19,1
38,40.52,1
52,40.86,1
30,41.19,1
48,41.4,1
34,41.52,1
45,41.57,1
30,41.5,1
46,41.33,1
38,41.16,1
43,41.03,1
31,40.85,1
43,40.6,1
36,40.32,1
39,40.06,1
32,39.74,1
40,39.36,1
35,38.99,1
38,38.65,1
33,38.3,1
35,37.92,1
35,37.51,1
32,37.1,1
38,36.69,1
32,36.33,1
37,36,1
33,35.71,1
41,35.49,1
31,35.36,1
40,35.28,1
31,35.22,1
45,35.23,1
31,35.32,1
39,35.43,1
31,35.5,1
51,35.63,1
31,35.91,1
41,36.21,1
32,36.43,1
53,36.71,1
30,37.08,1
47,37.47,1
33,37.82,1
48,38.16,1
31,38.49,1
46,38.75,1
34,38.97,1
52,39.21,1
33,39.52,1
46,39.8,1
37,40.03,1
46,40.26,1
30,40.42,1
43,40.43,1
40,40.4,1
44,40.42,1
31,40.41,1
42,40.29,1
33,40.09,1
37,39.82,1
30,39.43,1
40,38.96,1
35,38.52,1
35,38.11,1
35,37.7,1
35,37.29,1
36,36.92,1
33,36.57,1
39,36.27,1
31,36.01,1
42,35.8,1
33,35.68,1
42,35.65,1
32,35.68,1
46,35.78,1
33,35.97,1
46,36.22,1
31,36.51,1
52,36.84,1
35,37.28,1
48,37.78,1
32,38.26,1
47,38.67,1
39,39.07,1
57,39.58,1
33,40.2,1
50,40.77,1
36,41.25,1
50,41.67,1
32,42.01,1
47,42.2,1
34,42.28,1
49,42.3,1
31,42.26,1
45,42.12,1
34,41.91,1
43,41.65,1
31,41.33,1
41,40.93,1
34,40.49,1
42,40.06,1
33,39.66,1
36,39.24,1
35,38.78,1
37,38.33,1
33,37.89,1
36,37.46,1
36,37.06,1
34,36.7,1
40,36.41,1
33,36.2,1
37,36.02,1
32,35.84,1
43,35.71,1
32,35.67,1
37,35.65,1
31,35.59,1
48,35.58,1
31,35.71,1
36,35.82,1
31,35.84,1
44,35.84,1
32,35.9,1
43,36.01,1
32,36.14,1
47,36.31,1
34,36.57,1
42,36.85,1
31,37.08,1
47,37.27,1
31,37.47,1
49,37.7,1
32,37.95,1
43,38.17,1
32,38.33,1
43,38.41,1
32,38.45,1
42,38.44,1
32,38.38,1
40,38.28,1
32,38.13,1
42,37.96,1
33,37.81,1
37,37.64,1
33,37.43,1
38,37.19,1
33,36.96,1
33,36.69,1
37,36.41,1
35,36.16,1
40,35.98,1
32,35.88,1
42,35.82,1
33,35.82,1
44,35.89,1
34,36.04,1
46,36.26,1
31,36.53,1
43,36.78,1
31,36.97,1
46,37.14,1
31,37.32,1
47,37.5,1
30,37.68,1
39,37.77,1
31,37.75,1
44,37.68,1
31,37.62,1
43,37.57,1
31,37.5,1
47,37.47,1
31,37.5,1
45,37.55,1
31,37.61,1
44,37.65,1
31,37.68,1
39,37.66,1
32,37.56,1
40,37.43,1
31,37.28,1
40,37.1,1
32,36.92,1
40,36.76,1
34,36.62,1
36,36.5,1
34,36.36,1
35,36.2,1
33,36.01,1
38,35.83,1
36,35.7,1
32,35.6,1
37,35.48,1
33,35.36,1
38,35.27,1
31,35.19,1
42,35.14,1
35,35.18,1
43,35.33,1
32,35.53,1
41,35.74,1
35,35.94,1
50,36.24,1
30,36.63,1
47,37.01,1
37,37.41,1
47,37.86,1
30,38.28,1
47,38.61,1
41,38.95,1
48,39.37,1
31,39.79,1
46,40.07,1
38,40.3,1
44,40.51,1
31,40.63,1
44,40.62,1
31,40.51,1
38,40.28,1
31,39.92,1
41,39.49,1
32,39.06,1
41,38.64,1
31,38.25,1
42,37.89,1
32,37.58,1
39,37.29,1
32,37.02,1
35,36.73,1
35,36.43,1
35,36.15,1
37,35.92,1
35,35.74,1
37,35.62,1
34,35.53,1
40,35.48,1
32,35.48,1
41,35.51,1
33,35.57,1
44,35.68,1
30,35.84,1
42,35.98,1
34,36.12,1
45,36.31,1
31,36.53,1
44,36.75,1
34,36.96,1
54,37.26,1
30,37.69,1
50,38.11,1
33,38.53,1
44,38.89,1
31,39.14,1
49,39.31,1
32,39.48,1
45,39.6,1
29,39.64,1
41,39.55,1
33,39.36,1
42,39.15,1
31,38.92,1
40,38.65,1
34,38.37,1
42,38.12,1
32,37.92,1
44,37.75,1
34,37.64,1
41,37.58,1
33,37.52,1
38,37.44,1
35,37.33,1
36,37.2,1
35,37.05,1
32,36.85,1
37,36.6,1
33,36.36,1
39,36.14,1
34,35.98,1
42,35.9,1
31,35.88,1
46,35.92,1
31,36.03,1
52,36.25,1
32,36.59,1
48,37,1
31,37.39,1
48,37.76,1
34,38.13,1
48,38.5,1
31,38.84,1
48,39.12,1
43,39.44,1
48,39.88,1
30,40.3,1
43,40.53,1
41,40.67,1
45,40.83,1
31,40.94,1
49,40.96,1
38,41.01,1
44,41.08,1
30,41.07,1
42,40.91,1
38,40.7,1
38,40.48,1
31,40.17,1
42,39.79,1
38,39.45,1
38,39.17,1
35,38.9,1
37,38.61,1
36,38.31,1
40,38.04,1
35,37.83,1
34,37.61,1
36,37.35,1
34,37.08,1
41,36.84,1
32,36.67,1
40,36.52,1
32,36.39,1
45,36.32,1
31,36.33,1
42,36.37,1
32,36.41,1
43,36.47,1
32,36.55,1
49,36.68,1
34,36.93,1
45,37.23,1
30,37.51,1
50,37.75,1
41,38.11,1
45,38.57,1
31,38.99,1
51,39.33,1
36,39.68,1
47,40.03,1
31,40.31,1
48,40.49,1
31,40.6,1
43,40.6,1
31,40.49,1
44,40.29,1
28,40.03,1
41,39.68,1
32,39.27,1
41,38.87,1
31,38.48,1
35,38.05,1
31,37.56,1
36,37.05,1
34,36.57,1
35,36.14,1
33,35.75,1
33,35.39,1
34,35.04,1
34,34.73,1
32,34.45,1
32,34.18,1
40,33.97,1
35,33.89,1
43,33.98,1
32,34.19,1
46,34.48,1
32,34.84,1
48,35.27,1
32,35.76,1
43,36.22,1
34,36.63,1
46,37.03,1
31,37.41,1
48,37.75,1
36,38.1,1
52,38.53,1
31,39,1
49,39.41,1
38,39.8,1
49,40.21,1
31,40.58,1
49,40.84,1
43,41.11,1
44,41.43,1
31,41.65,1
44,41.68,1
31,41.57,1
40,41.31,1
29,40.92,1
39,40.4,1
31,39.81,1
37,39.19,1
34,38.58,1
40,38.03,1
32,37.57,1
35,37.12,1
34,36.68,1
34,36.26,1
35,35.88,1
34,35.54,1
39,35.29,1
33,35.12,1
39,35.03,1
34,34.99,1
40,35.02,1
31,35.09,1
42,35.17,1
35,35.3,1
44,35.52,1
31,35.79,1
43,36.04,1
40,36.34,1
44,36.74,1
31,37.14,1
47,37.49,1
41,37.88,1
45,38.36,1
30,38.79,1
48,39.1,1
38,39.4,1
42,39.69,1
31,39.87,1
46,39.93,1
36,39.97,1
42,40,1
31,39.95,1
43,39.8,1
35,39.64,1
43,39.49,1
30,39.32,1
39,39.07,1
36,38.78,1
40,38.52,1
32,38.27,1
41,38.02,1
33,37.79,1
37,37.55,1
33,37.29,1
36,37.01,1
36,36.73,1
33,36.48,1
38,36.24,1
33,36.03,1
37,35.84,1
33,35.67,1
39,35.54,1
31,35.44,1
42,35.37,1
38,35.41,1
46,35.62,1
30,35.93,1
48,36.24,1
36,36.62,1
44,37.05,1
30,37.43,1
48,37.73,1
31,38.01,1
47,38.27,1
31,38.49,1
46,38.66,1
31,38.79,1
43,38.85,1
31,38.84,1
45,38.79,1
30,38.71,1
39,38.57,1
31,38.33,1
46,38.1,1
31,37.94,1
40,37.79,1
32,37.6,1
42,37.43,1
34,37.3,1
38,37.19,1
30,37.03,1
42,36.85,1
32,36.7,1
42,36.59,1
33,36.53,1
38,36.49,1
33,36.42,1
38,36.34,1
34,36.26,1
39,36.2,1
38,36.19,1
35,36.23,1
35,36.24,1
35,36.21,1
37,36.17,1
34,36.12,1
36,36.05,1
32,35.95,1
42,35.86,1
33,35.84,1
39,35.85,1
32,35.85,1
52,35.95,1
30,36.21,1
47,36.52,1
32,36.83,1
51,37.19,1
31,37.6,1
42,37.95,1
33,38.18,1
44,38.35,1
30,38.46,1
49,38.54,1
39,38.71,1
47,38.99,1
31,39.27,1
48,39.48,1
41,39.72,1
39,39.99,1
30,40.1,1
43,40.04,1
36,39.93,1
40,39.8,1
31,39.61,1
43,39.35,1
34,39.1,1
41,38.88,1
34,38.66,1
35,38.41,1
35,38.1,1
36,37.77,1
35,37.45,1
34,37.12,1
39,36.82,1
33,36.57,1
40,36.37,1
31,36.21,1
42,36.07,1
37,36.04,1
43,36.13,1
30,36.27,1
48,36.42,1
38,36.69,1
46,37.08,1
31,37.48,1
45,37.81,1
32,38.08,1
47,38.31,1
30,38.51,1
50,38.69,1
31,38.87,1
48,39.05,1
31,39.2,1
54,39.37,1
31,39.61,1
42,39.78,1
32,39.81,1
44,39.77,1
32,39.67,1
40,39.51,1
31,39.27,1
44,38.99,1
30,38.73,1
39,38.43,1
32,38.09,1
44,37.79,1
35,37.59,1
41,37.47,1
33,37.39,1
38,37.29,1
31,37.13,1
35,36.91,1
36,36.65,1
37,36.43,1
35,36.26,1
35,36.1,1
38,35.97,1
37,35.91,1
38,35.91,1
31,35.91,1
37,35.86,1
31,35.76,1
46,35.7,1
31,35.75,1
39,35.81,1
31,35.84,1
45,35.88,1
31,35.98,1
45,36.12,1
32,36.3,1
48,36.53,1
31,36.81,1
52,37.14,1
33,37.55,1
51,38.02,1
32,38.5,1
49,38.94,1
34,39.35,1
48,39.72,1
32,40.03,1
45,40.24,1
35,40.36,1
46,40.46,1
30,40.49,1
47,40.44,1
40,40.42,1
46,40.5,1
31,40.57,1
41,40.51,1
33,40.34,1
38,40.07,1
33,39.72,1
38,39.32,1
31,38.87,1
34,38.35,1
34,37.8,1
35,37.25,1
34,36.75,1
33,36.28,1
37,35.86,1
33,35.5,1
37,35.22,1
32,34.99,1
43,34.84,1
30,34.8,1
45,34.85,1
34,35,1
48,35.28,1
31,35.66,1
47,36.07,1
40,36.54,1
50,37.16,1
30,37.8,1
50,38.36,1
35,38.88,1
48,39.38,1
31,39.8,1
50,40.12,1
31,40.38,1
48,40.56,1
31,40.67,1
46,40.7,1
30,40.64,1
43,40.48,1
31,40.24,1
43,39.95,1
30,39.63,1
39,39.25,1
29,38.8,1
43,38.33,1
31,37.91,1
36,37.51,1
32,37.08,1
41,36.69,1
34,36.41,1
39,36.21,1
33,36.06,1
41,35.96,1
31,35.9,1
38,35.84,1
35,35.78,1
34,35.72,1
40,35.68,1
33,35.68,1
39,35.7,1
34,35.74,1
39,35.79,1
31,35.83,1
38,35.82,1
32,35.78,1
47,35.8,1
31,35.92,1
41,36.07,1
30,36.17,1
50,36.3,1
32,36.53,1
40,36.78,1
31,36.93,1
53,37.1,1
30,37.39,1
52,37.73,1
33,38.12,1
48,38.53,1
31,38.89,1
50,39.2,1
35,39.51,1
46,39.81,1
31,40.03,1
46,40.15,1
33,40.2,1
45,40.21,1
32,40.17,1
44,40.07,1
37,39.98,1
42,39.9,1
32,39.79,1
39,39.59,1
37,39.35,1
40,39.13,1
31,38.89,1
39,38.59,1
33,38.26,1
37,37.92,1
37,37.6,1
36,37.33,1
37,37.09,1
35,36.89,1
39,36.72,1
31,36.57,1
48,36.47,1
34,36.52,1
46,36.69,1
32,36.91,1
45,37.14,1
36,37.39,1
47,37.69,1
31,38.01,1
47,38.29,1
36,38.56,1
48,38.87,1
30,39.16,1
50,39.39,1
31,39.6,1
50,39.78,1
32,39.95,1
53,40.14,1
32,40.37,1
49,40.57,1
32,40.73,1
48,40.83,1
33,40.89,1
48,40.92,1
30,40.91,1
46,40.82,1
30,40.66,1
40,40.4,1
31,40.04,1
43,39.64,1
35,39.28,1
39,38.97,1
34,38.65,1
32,38.29,1
31,37.82,1
35,37.27,1
37,36.77,1
35,36.36,1
40,36.06,1
34,35.87,1
36,35.73,1
34,35.6,1
43,35.54,1
34,35.59,1
45,35.74,1
32,35.96,1
45,36.21,1
33,36.48,1
53,36.84,1
30,37.28,1
48,37.72,1
34,38.13,1
50,38.55,1
30,38.95,1
51,39.29,1
33,39.62,1
47,39.92,1
31,40.13,1
52,40.29,1
34,40.48,1
52,40.71,1
30,40.92,1
46,41.04,1
33,41.05,1
48,41.03,1
31,40.98,1
40,40.83,1
34,40.56,1
42,40.26,1
31,39.93,1
42,39.57,1
32,39.21,1
46,38.89,1
31,38.64,1
40,38.4,1
33,38.14,1
39,37.88,1
34,37.62,1
38,37.39,1
35,37.17,1
34,36.95,1
37,36.72,1
32,36.49,1
35,36.23,1
33,35.95,1
43,35.74,1
31,35.64,1
41,35.59,1
31,35.57,1
48,35.62,1
31,35.78,1
48,36.03,1
32,36.34,1
52,36.73,1
31,37.19,1
52,37.68,1
36,38.21,1
48,38.78,1
32,39.28,1
53,39.73,1
34,40.18,1
56,40.65,1
33,41.14,1
46,41.55,1
43,41.87,1
46,42.2,1
31,42.43,1
48,42.49,1
36,42.48,1
47,42.45,1
31,42.36,1
53,42.23,1
31,42.12,1
41,41.93,1
34,41.63,1
41,41.26,1
32,40.84,1
36,40.34,1
34,39.77,1
36,39.18,1
33,38.58,1
36,38,1
34,37.45,1
33,36.92,1
36,36.43,1
39,36.04,1
39,35.81,1
34,35.7,1
45,35.7,1
32,35.8,1
43,35.95,1
32,36.11,1
44,36.29,1
30,36.46,1
49,36.65,1
30,36.89,1
52,37.18,1
31,37.54,1
44,37.87,1
30,38.1,1
51,38.3,1
31,38.53,1
42,38.72,1
32,38.79,1
51,38.87,1
31,39,1
44,39.11,1
32,39.15,1
50,39.19,1
31,39.27,1
50,39.37,1
34,39.51,1
38,39.6,1
30,39.52,1
45,39.34,1
33,39.16,1
45,39.02,1
33,38.91,1
41,38.8,1
35,38.68,1
37,38.52,1
32,38.3,1
41,38.04,1
34,37.81,1
34,37.57,1
36,37.28,1
34,36.99,1
35,36.69,1
32,36.38,1
43,36.12,1
32,35.96,1
38,35.85,1
32,35.73,1
44,35.67,1
31,35.69,1
48,35.8,1
32,36.01,1
49,36.31,1
31,36.66,1
53,37.08,1
34,37.57,1
52,38.14,1
30,38.69,1
50,39.17,1
40,39.65,1
52,40.2,1
32,40.74,1
48,41.17,1
47,41.57,1
52,42.11,1
31,42.62,1
48,42.95,1
32,43.09,1
45,43.08,1
30,42.9,1
44,42.58,1
30,42.16,1
42,41.65,1
31,41.09,1
44,40.53,1
30,39.99,1
39,39.45,1
32,38.89,1
40,38.36,1
32,37.88,1
36,37.42,1
34,36.98,1
33,36.55,1
36,36.14,1
35,35.79,1
40,35.55,1
32,35.41,1
41,35.32,1
32,35.3,1
42,35.32,1
31,35.39,1
42,35.48,1
31,35.58,1
43,35.69,1
31,35.82,1
46,35.98,1
32,36.2,1
40,36.4,1
34,36.56,1
49,36.77,1
34,37.08,1
40,37.39,1
33,37.6,1
57,37.87,1
32,38.3,1
48,38.75,1
32,39.13,1
50,39.47,1
31,39.77,1
48,40.01,1
34,40.19,1
46,40.35,1
30,40.42,1
46,40.4,1
34,40.33,1
43,40.25,1
32,40.11,1
45,39.94,1
36,39.79,1
42,39.68,1
32,39.54,1
38,39.32,1
35,39.03,1
36,38.72,1
35,38.37,1
35,38.01,1
36,37.64,1
34,37.28,1
41,36.98,1
33,36.75,1
40,36.58,1
32,36.44,1
43,36.35,1
30,36.29,1
45,36.28,1
33,36.33,1
48,36.48,1
31,36.71,1
46,36.95,1
34,37.22,1
49,37.53,1
32,37.89,1
51,38.26,1
43,38.73,1
48,39.34,1
32,39.92,1
51,40.38,1
40,40.84,1
49,41.32,1
31,41.72,1
48,41.96,1
34,42.08,1
46,42.13,1
31,42.07,1
50,41.94,1
30,41.79,1
43,41.55,1
31,41.22,1
43,40.83,1
32,40.42,1
39,39.98,1
33,39.5,1
41,39.04,1
32,38.62,1
35,38.18,1
32,37.69,1
35,37.18,1
35,36.7,1
36,36.29,1
37,35.96,1
34,35.71,1
39,35.54,1
33,35.42,1
40,35.36,1
32,35.35,1
48,35.42,1
30,35.61,1
42,35.82,1
32,35.99,1
48,36.21,1
32,36.5,1
44,36.8,1
31,37.06,1
50,37.32,1
30,37.62,1
44,37.87,1
32,38.05,1
49,38.23,1
32,38.44,1
42,38.61,1
32,38.68,1
56,38.8,1
31,39.05,1
42,39.27,1
32,39.36,1
48,39.4,1
30,39.43,1
47,39.43,1
32,39.42,1
44,39.39,1
32,39.32,1
42,39.21,1
34,39.07,1
43,38.93,1
33,38.81,1
37,38.64,1
34,38.4,1
38,38.13,1
32,37.84,1
36,37.51,1
36,37.18,1
35,36.88,1
36,36.61,1
33,36.35,1
37,36.1,1
32,35.86,1
40,35.66,1
31,35.51,1
44,35.43,1
32,35.45,1
46,35.56,1
31,35.74,1
50,36.01,1
34,36.38,1
51,36.85,1
30,37.37,1
51,37.86,1
43,38.42,1
48,39.11,1
31,39.74,1
51,40.24,1
34,40.67,1
48,41.03,1
31,41.28,1
52,41.45,1
32,41.58,1
49,41.67,1
31,41.7,1
50,41.67,1
31,41.61,1
41,41.46,1
31,41.16,1
43,40.78,1
31,40.37,1
36,39.9,1
32,39.33,1
42,38.78,1
30,38.28,1
37,37.79,1
32,37.29,1
39,36.83,1
33,36.45,1
35,36.12,1
34,35.8,1
34,35.51,1
38,35.27,1
32,35.09,1
39,34.96,1
32,34.88,1
41,34.86,1
32,34.89,1
42,34.98,1
31,35.1,1
47,35.28,1
32,35.55,1
41,35.83,1
31,36.06,1
47,36.28,1
31,36.54,1
40,36.76,1
31,36.88,1
54,37.05,1
31,37.35,1
41,37.64,1
32,37.82,1
51,37.99,1
32,38.24,1
49,38.52,1
33,38.8,1
49,39.09,1
31,39.35,1
48,39.57,1
34,39.75,1
46,39.92,1
30,40.02,1
41,39.98,1
36,39.86,1
47,39.77,1
31,39.72,1
42,39.62,1
38,39.5,1
42,39.42,1
32,39.33,1
37,39.14,1
36,38.89,1
36,38.6,1
35,38.29,1
35,37.96,1
42,37.67,1
32,37.45,1
36,37.21,1
32,36.93,1
44,36.69,1
33,36.55,1
46,36.53,1
30,36.58,1
51,36.71,1
37,36.99,1
46,37.39,1
30,37.77,1
46,38.06,1
41,38.38,1
50,38.82,1
31,39.29,1
54,39.71,1
31,40.13,1
49,40.49,1
31,40.74,1
49,40.91,1
32,41.02,1
48,41.08,1
32,41.08,1
48,41.06,1
32,41,1
41,40.87,1
32,40.62,1
47,40.35,1
29,40.1,1
35,39.73,1
31,39.22,1
45,38.71,1
32,38.31,1
37,37.94,1
33,37.56,1
42,37.23,1
33,36.98,1
36,36.76,1
33,36.52,1
35,36.26,1
33,36,1
35,35.73,1
35,35.48,1
33,35.26,1
40,35.09,1
31,35,1
38,34.92,1
31,34.85,1
43,34.83,1
30,34.87,1
38,34.92,1
32,34.94,1
49,35.04,1
30,35.29,1
44,35.57,1
32,35.85,1
48,36.16,1
32,36.52,1
51,36.94,1
32,37.4,1
50,37.88,1
31,38.34,1
53,38.78,1
32,39.23,1
49,39.65,1
31,39.99,1
50,40.25,1
36,40.5,1
51,40.78,1
31,41.04,1
46,41.2,1
38,41.29,1
48,41.4,1
31,41.47,1
42,41.42,1
32,41.23,1
42,40.94,1
31,40.59,1
39,40.16,1
34,39.69,1
36,39.21,1
32,38.68,1
34,38.12,1
34,37.54,1
33,36.97,1
40,36.47,1
34,36.11,1
41,35.86,1
34,35.73,1
42,35.7,1
29,35.7,1
46,35.74,1
34,35.86,1
44,36.07,1
31,36.3,1
47,36.54,1
38,36.86,1
52,37.33,1
30,37.87,1
48,38.35,1
40,38.82,1
49,39.35,1
30,39.84,1
50,40.22,1
32,40.51,1
49,40.74,1
31,40.9,1
50,41,1
31,41.06,1
49,41.08,1
31,41.06,1
47,41,1
31,40.88,1
40,40.67,1
32,40.36,1
42,39.99,1
31,39.61,1
38,39.18,1
32,38.71,1
43,38.27,1
33,37.92,1
38,37.62,1
34,37.33,1
38,37.06,1
33,36.81,1
34,36.55,1
35,36.27,1
34,36,1
37,35.76,1
33,35.56,1
39,35.4,1
33,35.3,1
43,35.29,1
31,35.34,1
39,35.41,1
32,35.45,1
46,35.54,1
32,35.73,1
42,35.94,1
31,36.13,1
47,36.32,1
30,36.55,1
48,36.8,1
33,37.08,1
52,37.44,1
31,37.86,1
49,38.28,1
35,38.68,1
48,39.09,1
31,39.45,1
50,39.74,1
38,40.04,1
48,40.38,1
30,40.66,1
46,40.81,1
40,40.91,1
43,41.03,1
32,41.07,1
45,41,1
35,40.89,1
43,40.76,1
32,40.58,1
41,40.33,1
32,40.01,1
39,39.64,1
34,39.24,1
36,38.82,1
34,38.38,1
34,37.91,1
35,37.44,1
33,36.98,1
37,36.54,1
35,36.18,1
40,35.92,1
31,35.74,1
42,35.61,1
36,35.59,1
46,35.71,1
32,35.94,1
42,36.18,1
31,36.39,1
42,36.55,1
31,36.67,1
48,36.8,1
30,36.98,1
46,37.17,1
30,37.34,1
52,37.54,1
30,37.81,1
44,38.05,1
30,38.2,1
50,38.32,1
31,38.48,1
38,38.56,1
31,38.5,1
48,38.4,1
31,38.36,1
42,38.32,1
32,38.24,1
44,38.15,1
31,38.07,1
42,37.98,1
34,37.88,1
40,37.79,1
31,37.68,1
37,37.5,1
34,37.27,1
41,37.07,1
32,36.91,1
35,36.73,1
34,36.51,1
34,36.26,1
37,36.03,1
33,35.82,1
36,35.63,1
33,35.45,1
39,35.3,1
30,35.19,1
43,35.12,1
32,35.12,1
43,35.2,1
32,35.34,1
44,35.52,1
32,35.74,1
46,35.99,1
31,36.28,1
51,36.61,1
31,37,1
51,37.43,1
30,37.87,1
49,38.27,1
34,38.65,1
49,39.03,1
31,39.38,1
51,39.68,1
38,40.01,1
49,40.39,1
31,40.72,1
47,40.94,1
41,41.12,1
46,41.34,1
31,41.5,1
45,41.52,1
38,41.47,1
41,41.41,1
32,41.25,1
44,40.99,1
33,40.71,1
39,40.38,1
32,39.98,1
39,39.53,1
32,39.06,1
34,38.54,1
33,37.98,1
35,37.41,1
38,36.9,1
34,36.5,1
38,36.17,1
34,35.92,1
46,35.8,1
36,35.85,1
43,36.04,1
32,36.26,1
45,36.49,1
36,36.76,1
46,37.09,1
31,37.43,1
47,37.74,1
30,38,1
47,38.22,1
31,38.4,1
48,38.57,1
31,38.73,1
45,38.85,1
31,38.91,1
49,38.96,1
31,39.04,1
44,39.08,1
32,39.07,1
48,39.07,1
31,39.08,1
39,39.03,1
31,38.87,1
45,38.66,1
30,38.48,1
43,38.29,1
32,38.1,1
40,37.92,1
32,37.71,1
41,37.51,1
34,37.34,1
39,37.2,1
32,37.05,1
37,36.87,1
35,36.68,1
36,36.51,1
33,36.33,1
34,36.11,1
35,35.88,1
32,35.64,1
39,35.42,1
32,35.26,1
37,35.13,1
33,35.01,1
46,35,1
31,35.12,1
39,35.26,1
32,35.37,1
48,35.53,1
31,35.79,1
44,36.08,1
32,36.35,1
45,36.62,1
30,36.87,1
48,37.1,1
33,37.37,1
52,37.7,1
31,38.1,1
47,38.47,1
34,38.8,1
52,39.14,1
31,39.5,1
47,39.8,1
42,40.09,1
48,40.47,1
31,40.81,1
43,40.99,1
35,41.03,1
46,41.02,1
31,40.96,1
42,40.8,1
33,40.56,1
41,40.26,1
33,39.94,1
39,39.57,1
32,39.17,1
37,38.73,1
33,38.27,1
39,37.82,1
35,37.44,1
35,37.1,1
37,36.8,1
35,36.53,1
38,36.33,1
36,36.18,1
42,36.13,1
32,36.15,1
43,36.2,1
32,36.29,1
43,36.39,1
31,36.49,1
47,36.62,1
30,36.79,1
48,36.98,1
31,37.2,1
46,37.43,1
31,37.63,1
48,37.84,1
31,38.04,1
52,38.28,1
32,38.58,1
44,38.85,1
32,39.03,1
53,39.2,1
31,39.43,1
41,39.6,1
32,39.61,1
45,39.56,1
30,39.46,1
46,39.34,1
33,39.22,1
42,39.11,1
31,38.96,1
42,38.76,1
33,38.55,1
41,38.35,1
32,38.15,1
42,37.95,1
35,37.79,1
39,37.66,1
33,37.53,1
37,37.37,1
35,37.18,1
35,36.98,1
37,36.78,1
33,36.59,1
36,36.38,1
34,36.17,1
43,36.03,1
32,35.99,1
46,36.03,1
32,36.15,1
44,36.33,1
31,36.51,1
46,36.69,1
34,36.91,1
48,37.2,1
30,37.51,1
51,37.82,1
36,38.19,1
47,38.61,1
30,38.98,1
50,39.27,1
43,39.62,1
49,40.1,1
30,40.55,1
49,40.86,1
36,41.1,1
47,41.32,1
31,41.44,1
46,41.45,1
33,41.38,1
44,41.25,1
31,41.04,1
45,40.78,1
32,40.49,1
40,40.17,1
31,39.78,1
43,39.37,1
32,38.99,1
39,38.62,1
33,38.24,1
35,37.85,1
34,37.43,1
34,37.01,1
34,36.59,1
34,36.19,1
36,35.83,1
38,35.56,1
43,35.46,1
33,35.5,1
41,35.6,1
34,35.73,1
44,35.91,1
31,36.13,1
42,36.32,1
30,36.46,1
43,36.56,1
31,36.65,1
50,36.78,1
30,36.99,1
43,37.2,1
31,37.34,1
48,37.47,1
31,37.64,1
41,37.78,1
31,37.82,1
52,37.88,1
31,38.05,1
44,38.22,1
32,38.34,1
47,38.44,1
31,38.55,1
45,38.62,1
32,38.67,1
46,38.71,1
30,38.73,1
44,38.71,1
33,38.66,1
42,38.6,1
32,38.51,1
41,38.39,1
32,38.23,1
40,38.05,1
35,37.87,1
36,37.68,1
38,37.5,1
35,37.33,1
36,37.16,1
32,36.95,1
37,36.71,1
33,36.46,1
38,36.23,1
32,36.02,1
46,35.89,1
32,35.9,1
43,35.98,1
31,36.08,1
45,36.2,1
30,36.35,1
47,36.51,1
32,36.72,1
47,36.97,1
41,37.31,1
47,37.79,1
29,38.26,1
52,38.65,1
38,39.08,1
48,39.57,1
31,39.99,1
51,40.32,1
31,40.6,1
46,40.78,1
32,40.86,1
45,40.84,1
32,40.76,1
44,40.61,1
31,40.4,1
44,40.15,1
31,39.88,1
38,39.54,1
32,39.13,1
40,38.7,1
32,38.28,1
36,37.85,1
33,37.41,1
38,37,1
33,36.64,1
36,36.31,1
33,35.99,1
35,35.7,1
34,35.43,1
36,35.2,1
37,35.05,1
33,34.95,1
41,34.91,1
31,34.93,1
40,34.98,1
33,35.04,1
43,35.16,1
32,35.34,1
38,35.51,1
31,35.61,1
48,35.73,1
31,35.94,1
37,36.14,1
30,36.2,1
47,36.25,1
31,36.36,1
49,36.55,1
33,36.83,1
48,37.16,1
32,37.52,1
45,37.85,1
33,38.12,1
50,38.41,1
32,38.71,1
47,39,1
36,39.26,1
43,39.5,1
31,39.65,1
47,39.7,1
36,39.76,1
41,39.82,1
31,39.77,1
41,39.62,1
38,39.44,1
39,39.29,1
32,39.1,1
42,38.86,1
32,38.62,1
38,38.35,1
34,38.06,1
37,37.75,1
34,37.45,1
34,37.13,1
39,36.83,1
34,36.59,1
42,36.42,1
33,36.34,1
43,36.33,1
32,36.36,1
44,36.43,1
34,36.55,1
46,36.74,1
31,36.97,1
47,37.2,1
40,37.5,1
46,37.92,1
30,38.33,1
50,38.66,1
40,39.03,1
48,39.5,1
29,39.91,1
48,40.17,1
34,40.36,1
48,40.53,1
31,40.65,1
48,40.7,1
39,40.76,1
42,40.85,1
31,40.84,1
45,40.72,1
37,40.59,1
43,40.48,1
30,40.33,1
41,40.07,1
33,39.75,1
43,39.44,1
32,39.14,1
40,38.84,1
32,38.51,1
37,38.16,1
34,37.79,1
40,37.46,1
35,37.2,1
34,36.96,1
39,36.73,1
35,36.56,1
37,36.42,1
34,36.3,1
41,36.21,1
32,36.17,1
42,36.16,1
34,36.19,1
44,36.29,1
31,36.43,1
46,36.59,1
33,36.79,1
44,37.02,1
31,37.22,1
46,37.4,1
32,37.58,1
48,37.78,1
31,37.99,1
48,38.21,1
33,38.43,1
51,38.69,1
31,38.98,1
48,39.24,1
34,39.47,1
47,39.69,1
31,39.86,1
48,39.97,1
32,40.04,1
45,40.08,1
31,40.04,1
42,39.92,1
35,39.75,1
43,39.59,1
30,39.41,1
42,39.17,1
32,38.9,1
40,38.61,1
32,38.31,1
39,38,1
34,37.69,1
35,37.39,1
35,37.08,1
34,36.76,1
36,36.45,1
33,36.16,1
36,35.89,1
32,35.63,1
40,35.41,1
33,35.27,1
47,35.26,1
31,35.39,1
36,35.51,1
32,35.55,1
48,35.63,1
31,35.82,1
41,36.03,1
31,36.19,1
46,36.35,1
31,36.54,1
46,36.74,1
32,36.97,1
49,37.23,1
30,37.51,1
44,37.76,1
32,37.94,1
48,38.11,1
31,38.29,1
46,38.45,1
33,38.59,1
47,38.74,1
30,38.87,1
42,38.91,1
34,38.88,1
47,38.87,1
31,38.89,1
43,38.88,1
34,38.83,1
42,38.78,1
33,38.71,1
38,38.58,1
36,38.4,1
37,38.22,1
35,38.01,1
35,37.77,1
36,37.51,1
32,37.22,1
37,36.9,1
35,36.61,1
40,36.38,1
32,36.23,1
40,36.1,1
31,35.99,1
41,35.9,1
33,35.86,1
44,35.88,1
31,35.97,1
48,36.12,1
36,36.38,1
48,36.76,1
33,37.2,1
46,37.63,1
40,38.07,1
47,38.57,1
31,39.04,1
48,39.41,1
33,39.71,1
47,39.95,1
31,40.12,1
48,40.23,1
29,40.26,1
42,40.19,1
31,39.99,1
47,39.77,1
31,39.58,1
42,39.37,1
31,39.12,1
43,38.85,1
31,38.59,1
36,38.28,1
32,37.89,1
38,37.49,1
32,37.1,1
37,36.73,1
35,36.4,1
38,36.14,1
34,35.95,1
35,35.78,1
35,35.62,1
36,35.48,1
37,35.4,1
34,35.35,1
40,35.34,1
33,35.39,1
41,35.46,1
34,35.58,1
37,35.69,1
32,35.76,1
44,35.83,1
32,35.95,1
35,36.04,1
31,36.01,1
46,35.99,1
31,36.05,1
48,36.19,1
33,36.42,1
49,36.74,1
30,37.09,1
49,37.44,1
34,37.81,1
48,38.2,1
31,38.56,1
48,38.87,1
34,39.15,1
47,39.41,1
31,39.63,1
46,39.76,1
38,39.88,1
41,40,1
30,40,1
44,39.89,1
37,39.76,1
42,39.68,1
31,39.56,1
42,39.36,1
32,39.13,1
41,38.88,1
33,38.62,1
35,38.31,1
34,37.95,1
37,37.58,1
35,37.24,1
34,36.91,1
38,36.61,1
35,36.37,1
41,36.21,1
33,36.14,1
40,36.1,1
34,36.09,1
44,36.15,1
32,36.26,1
50,36.46,1
36,36.79,1
45,37.2,1
31,37.58,1
45,37.89,1
37,38.17,1
48,38.5,1
31,38.84,1
46,39.1,1
31,39.27,1
47,39.39,1
30,39.46,1
45,39.47,1
31,39.42,1
47,39.35,1
31,39.28,1
46,39.22,1
31,39.14,1
42,39.03,1
31,38.87,1
47,38.71,1
32,38.6,1
36,38.46,1
32,38.21,1
41,37.92,1
32,37.65,1
36,37.37,1
34,37.07,1
40,36.8,1
32,36.58,1
35,36.36,1
35,36.12,1
33,35.89,1
38,35.67,1
33,35.5,1
39,35.38,1
34,35.32,1
38,35.3,1
32,35.29,1
42,35.31,1
32,35.38,1
42,35.48,1
32,35.61,1
38,35.72,1
31,35.77,1
42,35.81,1
31,35.85,1
39,35.88,1
31,35.88,1
45,35.9,1
31,35.98,1
37,36.04,1
31,36.02,1
50,36.05,1
30,36.2,1
47,36.42,1
32,36.67,1
45,36.94,1
31,37.18,1
45,37.4,1
33,37.59,1
42,37.77,1
32,37.88,1
42,37.94,1
34,37.97,1
42,37.99,1
32,38,1
44,37.98,1
34,37.99,1
38,37.98,1
33,37.9,1
37,37.75,1
36,37.57,1
38,37.41,1
34,37.26,1
35,37.07,1
36,36.87,1
35,36.67,1
38,36.49,1
31,36.33,1
38,36.14,1
33,35.96,1
42,35.84,1
33,35.81,1
44,35.85,1
35,35.99,1
44,36.2,1
31,36.44,1
47,36.69,1
39,37.01,1
44,37.43,1
27,37.78,1
46,37.99,1
38,38.19,1
45,38.46,1
31,38.71,1
47,38.89,1
31,39.03,1
46,39.13,1
30,39.18,1
46,39.17,1
30,39.13,1
41,39.03,1
31,38.84,1
43,38.62,1
31,38.4,1
36,38.13,1
33,37.79,1
39,37.45,1
35,37.16,1
36,36.9,1
32,36.64,1
37,36.37,1
33,36.1,1
37,35.87,1
32,35.65,1
35,35.43,1
38,35.25,1
33,35.14,1
35,35.04,1
33,34.93,1
40,34.86,1
39,34.9,1
40,35.09,1
33,35.32,1
40,35.54,1
32,35.73,1
35,35.84,1
31,35.84,1
43,35.82,1
30,35.83,1
40,35.83,1
33,35.83,1
43,35.88,1
30,35.96,1
46,36.06,1
31,36.21,1
48,36.42,1
31,36.67,1
50,36.98,1
33,37.34,1
46,37.72,1
32,38.06,1
44,38.33,1
34,38.54,1
44,38.72,1
35,38.87,1
45,39.01,1
36,39.16,1
42,39.3,1
32,39.36,1
38,39.29,1
39,39.16,1
39,39.05,1
32,38.9,1
39,38.68,1
35,38.44,1
38,38.19,1
34,37.94,1
36,37.68,1
38,37.42,1
35,37.2,1
35,36.98,1
37,36.77,1
39,36.62,1
33,36.51,1
42,36.44,1
32,36.41,1
41,36.4,1
37,36.44,1
43,36.56,1
32,36.73,1
41,36.87,1
39,37.02,1
47,37.28,1
31,37.6,1
47,37.88,1
34,38.16,1
46,38.45,1
31,38.69,1
48,38.88,1
30,39.04,1
45,39.13,1
36,39.2,1
46,39.31,1
31,39.4,1
43,39.41,1
31,39.35,1
45,39.24,1
30,39.11,1
37,38.89,1
31,38.56,1
42,38.19,1
30,37.86,1
36,37.49,1
32,37.08,1
41,36.71,1
32,36.42,1
36,36.16,1
33,35.9,1
36,35.66,1
34,35.44,1
35,35.26,1
36,35.11,1
34,35,1
39,34.94,1
33,34.94,1
40,34.98,1
32,35.05,1
43,35.16,1
32,35.32,1
38,35.47,1
30,35.56,1
45,35.63,1
31,35.75,1
36,35.84,1
30,35.83,1
45,35.8,1
29,35.83,1
43,35.87,1
31,35.92,1
47,36.03,1
30,36.2,1
47,36.4,1
32,36.64,1
41,36.87,1
32,37.03,1
48,37.19,1
33,37.41,1
44,37.65,1
31,37.84,1
48,38.01,1
33,38.2,1
46,38.41,1
31,38.58,1
43,38.69,1
36,38.76,1
44,38.84,1
31,38.9,1
40,38.87,1
37,38.78,1
37,38.69,1
30,38.5,1
35,38.18,1
35,37.79,1
35,37.4,1
36,37.04,1
30,36.67,1
38,36.29,1
34,35.95,1
40,35.72,1
32,35.56,1
42,35.47,1
35,35.48,1
41,35.58,1
32,35.7,1
43,35.84,1
38,36.05,1
47,36.39,1
31,36.79,1
48,37.17,1
36,37.58,1
47,38.02,1
31,38.44,1
50,38.79,1
31,39.12,1
49,39.41,1
32,39.65,1
48,39.86,1
31,40.01,1
44,40.08,1
31,40.05,1
47,39.97,1
31,39.87,1
37,39.69,1
31,39.37,1
43,38.99,1
32,38.65,1
37,38.31,1
31,37.91,1
40,37.51,1
31,37.14,1
42,36.82,1
32,36.57,1
39,36.37,1
31,36.18,1
38,35.99,1
34,35.83,1
35,35.68,1
37,35.55,1
34,35.46,1
34,35.37,1
32,35.24,1
39,35.11,1
32,35.02,1
36,34.95,1
32,34.86,1
47,34.85,1
31,34.99,1
38,35.15,1
32,35.26,1
49,35.43,1
31,35.71,1
43,36.02,1
32,36.29,1
48,36.58,1
31,36.9,1
46,37.21,1
34,37.52,1
50,37.87,1
40,38.31,1
50,38.87,1
37,39.47,1
47,40.03,1
30,40.47,1
44,40.71,1
39,40.85,1
43,40.97,1
30,40.99,1
45,40.87,1
34,40.71,1
39,40.49,1
30,40.17,1
41,39.75,1
32,39.31,1
42,38.89,1
35,38.54,1
36,38.22,1
32,37.86,1
36,37.46,1
32,37.05,1
32,36.6,1
35,36.13,1
34,35.71,1
36,35.35,1
34,35.07,1
44,34.92,1
37,34.96,1
41,35.15,1
34,35.39,1
43,35.66,1
32,35.94,1
41,36.19,1
30,36.38,1
48,36.54,1
30,36.75,1
48,36.98,1
31,37.23,1
50,37.51,1
31,37.82,1
45,38.11,1
30,38.31,1
45,38.44,1
30,38.51,1
37,38.46,1
31,38.27,1
47,38.07,1
30,37.94,1
37,37.78,1
31,37.52,1
46,37.28,1
31,37.14,1
41,37.04,1
32,36.94,1
47,36.89,1
31,36.93,1
42,36.99,1
33,37.04,1
39,37.06,1
33,37.05,1
37,36.99,1
36,36.9,1
38,36.83,1
34,36.76,1
34,36.65,1
35,36.49,1
33,36.3,1
39,36.11,1
35,35.98,1
36,35.88,1
31,35.77,1
48,35.71,1
30,35.77,1
40,35.86,1
32,35.92,1
45,36.01,1
31,36.15,1
44,36.3,1
32,36.47,1
46,36.66,1
30,36.87,1
43,37.04,1
34,37.19,1
47,37.37,1
31,37.59,1
46,37.79,1
36,38.01,1
46,38.28,1
31,38.53,1
49,38.74,1
40,39.02,1
44,39.36,1
32,39.65,1
44,39.82,1
37,39.92,1
43,40.01,1
30,40.03,1
42,39.91,1
32,39.72,1
43,39.49,1
34,39.26,1
40,39.04,1
32,38.79,1
36,38.48,1
30,38.08,1
35,37.6,1
30,37.07,1
35,36.52,1
34,36,1
34,35.55,1
38,35.18,1
38,34.97,1
40,34.92,1
32,34.96,1
43,35.06,1
38,35.26,1
43,35.58,1
37,35.98,1
48,36.45,1
34,36.98,1
44,37.49,1
32,37.91,1
48,38.26,1
30,38.57,1
45,38.79,1
31,38.93,1
47,39.02,1
30,39.08,1
43,39.08,1
31,39,1
46,38.9,1
31,38.81,1
40,38.68,1
30,38.47,1
42,38.21,1
30,37.95,1
36,37.63,1
32,37.26,1
42,36.92,1
32,36.66,1
37,36.43,1
31,36.19,1
42,35.97,1
31,35.83,1
39,35.71,1
32,35.61,1
40,35.53,1
32,35.49,1
37,35.46,1
36,35.43,1
34,35.42,1
36,35.39,1
34,35.36,1
37,35.34,1
34,35.32,1
41,35.35,1
32,35.42,1
38,35.49,1
32,35.53,1
46,35.6,1
32,35.77,1
45,35.99,1
32,36.25,1
45,36.51,1
32,36.78,1
46,37.05,1
32,37.31,1
49,37.6,1
31,37.9,1
47,38.18,1
34,38.45,1
48,38.72,1
31,38.98,1
45,39.17,1
39,39.35,1
45,39.57,1
30,39.74,1
45,39.8,1
36,39.81,1
44,39.84,1
33,39.84,1
41,39.78,1
32,39.63,1
40,39.41,1
32,39.13,1
41,38.82,1
34,38.52,1
38,38.24,1
32,37.94,1
37,37.61,1
33,37.26,1
35,36.9,1
34,36.55,1
35,36.21,1
36,35.91,1
36,35.68,1
39,35.54,1
35,35.49,1
42,35.52,1
36,35.65,1
43,35.87,1
32,36.12,1
45,36.37,1
33,36.64,1
42,36.9,1
32,37.11,1
44,37.28,1
31,37.42,1
46,37.55,1
31,37.68,1
50,37.84,1
30,38.04,1
44,38.21,1
31,38.3,1
49,38.39,1
30,38.5,1
39,38.54,1
31,38.44,1
44,38.3,1
33,38.18,1
38,38.05,1
31,37.85,1
46,37.66,1
31,37.54,1
41,37.43,1
33,37.33,1
41,37.23,1
32,37.15,1
38,37.04,1
34,36.9,1
39,36.78,1
32,36.66,1
35,36.5,1
35,36.3,1
39,36.14,1
31,36.02,1
36,35.86,1
35,35.7,1
37,35.58,1
36,35.51,1
32,35.45,1
39,35.38,1
34,35.35,1
38,35.35,1
33,35.37,1
43,35.42,1
33,35.55,1
44,35.74,1
32,35.96,1
46,36.21,1
34,36.51,1
44,36.83,1
32,37.14,1
50,37.44,1
38,37.84,1
45,38.3,1
29,38.69,1
46,38.93,1
41,39.17,1
45,39.48,1
31,39.75,1
45,39.9,1
36,40,1
48,40.11,1
31,40.21,1
47,40.26,1
30,40.25,1
39,40.12,1
30,39.84,1
39,39.45,1
31,39,1
44,38.57,1
31,38.21,1
39,37.87,1
33,37.53,1
35,37.19,1
33,36.83,1
35,36.46,1
33,36.1,1
35,35.76,1
36,35.47,1
34,35.24,1
38,35.07,1
37,35,1
40,35.04,1
33,35.15,1
43,35.3,1
32,35.5,1
41,35.7,1
31,35.87,1
44,36.03,1
32,36.2,1
45,36.4,1
31,36.61,1
45,36.82,1
31,37.02,1
40,37.16,1
30,37.2,1
45,37.21,1
30,37.22,1
39,37.19,1
32,37.09,1
47,37.04,1
30,37.05,1
45,37.1,1
32,37.16,1
46,37.26,1
30,37.38,1
43,37.46,1
33,37.52,1
41,37.56,1
30,37.55,1
39,37.46,1
33,37.32,1
40,37.18,1
32,37.04,1
40,36.9,1
36,36.8,1
34,36.71,1
33,36.56,1
39,36.39,1
36,36.27,1
37,36.21,1
37,36.17,1
33,36.14,1
35,36.07,1
33,35.94,1
40,35.82,1
36,35.78,1
41,35.83,1
32,35.92,1
47,36.05,1
32,36.27,1
41,36.49,1
33,36.67,1
47,36.86,1
31,37.09,1
44,37.31,1
37,37.53,1
46,37.81,1
31,38.09,1
42,38.29,1
39,38.45,1
49,38.69,1
32,38.99,1
44,39.23,1
40,39.44,1
46,39.69,1
30,39.91,1
44,40.01,1
32,39.99,1
45,39.93,1
31,39.82,1
44,39.67,1
32,39.5,1
37,39.26,1
31,38.92,1
42,38.53,1
32,38.19,1
36,37.83,1
32,37.44,1
38,37.04,1
33,36.68,1
36,36.36,1
36,36.07,1
36,35.85,1
35,35.68,1
36,35.54,1
35,35.44,1
38,35.38,1
44,35.44,1
33,35.63,1
43,35.85,1
33,36.1,1
42,36.34,1
32,36.55,1
40,36.71,1
32,36.81,1
45,36.9,1
31,37.01,1
45,37.13,1
30,37.24,1
46,37.34,1
31,37.44,1
38,37.49,1
32,37.44,1
46,37.39,1
30,37.39,1
39,37.35,1
31,37.23,1
49,37.15,1
31,37.18,1
43,37.25,1
31,37.29,1
46,37.34,1
31,37.42,1
43,37.48,1
33,37.53,1
41,37.57,1
31,37.57,1
42,37.52,1
35,37.48,1
40,37.47,1
33,37.45,1
36,37.37,1
36,37.24,1
34,37.08,1
34,36.88,1
37,36.65,1
37,36.47,1
36,36.34,1
39,36.26,1
34,36.23,1
37,36.19,1
34,36.14,1
37,36.08,1
32,36.01,1
40,35.92,1
34,35.87,1
46,35.92,1
31,36.07,1
44,36.25,1
32,36.43,1
46,36.63,1
30,36.85,1
49,37.08,1
32,37.35,1
45,37.62,1
31,37.85,1
48,38.05,1
34,38.28,1
42,38.49,1
31,38.61,1
46,38.67,1
39,38.77,1
43,38.95,1
31,39.08,1
44,39.13,1
37,39.16,1
41,39.2,1
32,39.18,1
38,39.06,1
32,38.83,1
38,38.53,1
31,38.19,1
41,37.82,1
34,37.51,1
34,37.22,1
32,36.88,1
36,36.5,1
33,36.15,1
34,35.81,1
38,35.51,1
33,35.29,1
40,35.15,1
36,35.11,1
39,35.17,1
32,35.25,1
41,35.34,1
36,35.48,1
41,35.68,1
31,35.89,1
45,36.08,1
31,36.29,1
46,36.52,1
31,36.75,1
45,36.98,1
36,37.23,1
50,37.56,1
31,37.95,1
48,38.32,1
30,38.63,1
46,38.86,1
31,39.01,1
45,39.11,1
31,39.14,1
43,39.12,1
31,39.03,1
43,38.89,1
31,38.73,1
43,38.55,1
32,38.37,1
42,38.19,1
33,38.03,1
42,37.89,1
32,37.76,1
43,37.65,1
34,37.57,1
40,37.52,1
32,37.45,1
36,37.31,1
36,37.13,1
34,36.94,1
35,36.73,1
32,36.47,1
37,36.2,1
35,35.96,1
39,35.8,1
32,35.69,1
40,35.61,1
34,35.57,1
42,35.61,1
32,35.7,1
40,35.79,1
32,35.87,1
45,35.98,1
31,36.13,1
36,36.24,1
31,36.23,1
48,36.23,1
32,36.35,1
42,36.5,1
31,36.63,1
46,36.76,1
31,36.91,1
38,37.02,1
33,37.03,1
44,37.04,1
31,37.08,1
36,37.05,1
31,36.92,1
41,36.75,1
30,36.59,1
39,36.41,1
33,36.24,1
39,36.1,1
32,35.98,1
38,35.87,1
32,35.76,1
39,35.65,1
33,35.58,1
36,35.51,1
36,35.45,1
37,35.43,1
35,35.44,1
35,35.45,1
36,35.45,1
34,35.45,1
38,35.44,1
33,35.45,1
36,35.44,1
33,35.41,1
41,35.39,1
31,35.41,1
38,35.43,1
35,35.44,1
44,35.53,1
32,35.7,1
44,35.91,1
33,36.15,1
49,36.44,1
31,36.8,1
52,37.2,1
33,37.66,1
48,38.14,1
31,38.56,1
45,38.89,1
35,39.14,1
47,39.38,1
31,39.58,1
45,39.7,1
38,39.79,1
47,39.93,1
31,40.07,1
40,40.08,1
43,40.03,1
39,40.04,1
32,39.99,1
42,39.83,1
31,39.6,1
42,39.33,1
31,39.03,1
41,38.72,1
32,38.39,1
39,38.07,1
33,37.75,1
34,37.41,1
35,37.03,1
35,36.68,1
36,36.36,1
35,36.09,1
40,35.89,1
36,35.81,1
40,35.81,1
32,35.86,1
43,35.92,1
37,36.06,1
42,36.28,1
31,36.51,1
44,36.7,1
31,36.87,1
46,37.04,1
31,37.21,1
42,37.35,1
30,37.43,1
47,37.48,1
31,37.55,1
43,37.63,1
30,37.66,1
44,37.65,1
30,37.62,1
46,37.6,1
30,37.59,1
36,37.52,1
31,37.33,1
42,37.1,1
31,36.91,1
39,36.73,1
31,36.54,1
37,36.32,1
33,36.1,1
40,35.92,1
32,35.79,1
41,35.71,1
33,35.68,1
37,35.67,1
34,35.65,1
38,35.63,1
34,35.63,1
37,35.64,1
34,35.64,1
32,35.59,1
37,35.5,1
32,35.39,1
36,35.28,1
32,35.15,1
37,35.02,1
32,34.9,1
38,34.81,1
33,34.75,1
44,34.78,1
33,34.93,1
44,35.15,1
32,35.43,1
47,35.74,1
31,36.1,1
47,36.46,1
33,36.84,1
46,37.22,1
30,37.56,1
46,37.83,1
37,38.1,1
47,38.43,1
31,38.74,1
45,38.98,1
42,39.21,1
45,39.53,1
31,39.81,1
44,39.96,1
34,40.02,1
42,40.01,1
30,39.91,1
42,39.7,1
31,39.44,1
38,39.1,1
32,38.71,1
43,38.33,1
31,38,1
37,37.67,1
34,37.33,1
39,37.02,1
32,36.76,1
36,36.49,1
36,36.23,1
32,36,1
33,35.74,1
37,35.47,1
39,35.3,1
33,35.22,1
43,35.22,1
32,35.31,1
40,35.42,1
33,35.53,1
42,35.66,1
33,35.82,1
44,36.01,1
31,36.23,1
48,36.46,1
31,36.74,1
41,36.98,1
30,37.13,1
50,37.26,1
32,37.47,1
40,37.66,1
33,37.76,1
43,37.82,1
29,37.83,1
44,37.8,1
32,37.75,1
45,37.73,1
31,37.73,1
44,37.74,1
32,37.74,1
43,37.74,1
31,37.73,1
43,37.69,1
35,37.67,1
41,37.69,1
32,37.69,1
42,37.65,1
34,37.62,1
39,37.59,1
32,37.51,1
37,37.37,1
35,37.19,1
36,37.01,1
36,36.83,1
33,36.64,1
36,36.43,1
35,36.22,1
41,36.08,1
34,36.03,1
43,36.05,1
32,36.13,1
42,36.23,1
35,36.35,1
37,36.48,1
34,36.55,1
43,36.62,1
32,36.71,1
46,36.84,1
34,37.02,1
48,37.27,1
31,37.56,1
47,37.83,1
39,38.14,1
48,38.55,1
30,38.94,1
48,39.25,1
36,39.52,1
44,39.77,1
31,39.93,1
43,39.97,1
31,39.9,1
44,39.76,1
32,39.59,1
44,39.41,1
32,39.22,1
44,39.04,1
30,38.85,1
42,38.63,1
33,38.41,1
37,38.16,1
30,37.85,1
37,37.47,1
33,37.08,1
35,36.69,1
31,36.3,1
36,35.89,1
34,35.54,1
38,35.26,1
37,35.1,1
36,35.04,1
38,35.05,1
32,35.09,1
38,35.11,1
34,35.15,1
40,35.21,1
33,35.32,1
40,35.43,1
30,35.53,1
42,35.61,1
31,35.68,1
38,35.74,1
31,35.74,1
45,35.75,1
32,35.85,1
38,35.95,1
31,35.99,1
48,36.05,1
33,36.22,1
38,36.42,1
32,36.52,1
45,36.61,1
30,36.73,1
47,36.85,1
32,37.02,1
44,37.21,1
31,37.36,1
43,37.48,1
32,37.56,1
43,37.62,1
32,37.66,1
42,37.68,1
34,37.69,1
41,37.7,1
33,37.69,1
36,37.62,1
34,37.47,1
37,37.29,1
33,37.08,1
38,36.87,1
36,36.68,1
37,36.54,1
38,36.45,1
33,36.38,1
37,36.3,1
33,36.19,1
38,36.07,1
33,35.97,1
42,35.9,1
33,35.91,1
41,35.95,1
32,36.02,1
44,36.1,1
34,36.25,1
48,36.48,1
32,36.79,1
46,37.11,1
34,37.43,1
46,37.76,1
33,38.08,1
45,38.36,1
37,38.62,1
46,38.91,1
32,39.17,1
46,39.37,1
39,39.56,1
43,39.78,1
31,39.92,1
44,39.94,1
31,39.88,1
40,39.72,1
32,39.47,1
42,39.18,1
34,38.91,1
38,38.64,1
34,38.35,1
42,38.08,1
32,37.86,1
39,37.64,1
32,37.4,1
39,37.16,1
33,36.93,1
35,36.69,1
33,36.42,1
50,36.26,1
37,36.34,1
37,36.52,1
38,36.69,1
33,36.81,1
39,36.87,1
39,36.93,1
41,37.07,1
31,37.2,1
39,37.24,1
31,37.2,1
41,37.12,1
32,37.03,1
43,36.95,1
32,36.92,1
42,36.9,1
31,36.88,1
46,36.89,1
30,36.94,1
42,36.98,1
31,36.98,1
44,36.99,1
31,37.01,1
39,37,1
31,36.93,1
44,36.85,1
31,36.82,1
37,36.75,1
30,36.61,1
42,36.43,1
30,36.29,1
39,36.15,1
34,36.02,1
42,35.96,1
33,35.97,1
42,36.03,1
34,36.13,1
38,36.24,1
34,36.31,1
38,36.35,1
33,36.37,1
35,36.33,1
34,36.23,1
33,36.08,1
35,35.89,1
34,35.7,1
35,35.51,1
35,35.34,1
34,35.19,1
32,35.03,1
41,34.9,1
34,34.87,1
45,34.96,1
33,35.17,1
45,35.46,1
32,35.78,1
42,36.09,1
33,36.37,1
45,36.64,1
32,36.91,1
45,37.17,1
35,37.44,1
46,37.73,1
31,38.02,1
48,38.26,1
40,38.56,1
48,38.97,1
31,39.37,1
47,39.67,1
39,39.94,1
45,40.23,1
30,40.44,1
39,40.45,1
33,40.29,1
40,40.04,1
31,39.71,1
40,39.33,1
30,38.9,1
41,38.46,1
32,38.04,1
42,37.68,1
32,37.39,1
38,37.12,1
34,36.86,1
39,36.64,1
34,36.47,1
35,36.31,1
35,36.14,1
33,35.95,1
34,35.74,1
37,35.54,1
39,35.42,1
34,35.39,1
37,35.39,1
33,35.39,1
42,35.41,1
34,35.5,1
41,35.65,1
31,35.79,1
43,35.93,1
32,36.07,1
46,36.25,1
30,36.47,1
39,36.62,1
32,36.68,1
46,36.75,1
30,36.86,1
35,36.89,1
31,36.78,1
44,36.64,1
30,36.56,1
41,36.49,1
31,36.41,1
45,36.37,1
30,36.38,1
41,36.39,1
31,36.38,1
40,36.36,1
32,36.31,1
40,36.27,1
34,36.25,1
38,36.24,1
33,36.21,1
37,36.16,1
35,36.11,1
35,36.04,1
35,35.96,1
36,35.87,1
36,35.8,1
34,35.74,1
38,35.68,1
34,35.65,1
33,35.6,1
33,35.48,1
38,35.35,1
32,35.25,1
38,35.16,1
33,35.1,1
39,35.07,1
33,35.08,1
44,35.16,1
34,35.34,1
44,35.59,1
30,35.86,1
47,36.13,1
36,36.46,1
49,36.89,1
30,37.35,1
44,37.73,1
40,38.08,1
43,38.47,1
31,38.79,1
42,38.96,1
37,39.06,1
43,39.17,1
31,39.22,1
46,39.21,1
43,39.28,1
42,39.47,1
31,39.62,1
42,39.63,1
34,39.56,1
42,39.46,1
31,39.3,1
42,39.1,1
33,38.87,1
38,38.62,1
33,38.33,1
39,38.03,1
32,37.72,1
35,37.38,1
41,37.07,1
36,36.87,1
34,36.72,1
35,36.53,1
34,36.33,1
33,36.1,1
39,35.88,1
37,35.75,1
41,35.73,1
37,35.83,1
43,36.03,1
34,36.28,1
43,36.54,1
31,36.78,1
44,36.98,1
31,37.15,1
42,37.27,1
31,37.34,1
43,37.38,1
31,37.39,1
39,37.35,1
31,37.25,1
44,37.14,1
31,37.07,1
38,36.98,1
30,36.82,1
47,36.68,1
30,36.63,1
38,36.58,1
31,36.47,1
46,36.39,1
32,36.4,1
37,36.42,1
31,36.36,1
44,36.3,1
32,36.3,1
42,36.34,1
32,36.39,1
40,36.44,1
35,36.48,1
39,36.54,1
35,36.6,1
37,36.64,1
36,36.66,1
34,36.64,1
38,36.59,1
36,36.55,1
35,36.51,1
34,36.43,1
35,36.31,1
35,36.16,1
43,36.08,1
32,36.09,1
38,36.1,1
32,36.07,1
41,36.04,1
31,36.02,1
40,36,1
32,35.98,1
44,35.99,1
30,36.05,1
45,36.13,1
32,36.26,1
46,36.44,1
32,36.65,1
47,36.9,1
34,37.19,1
44,37.5,1
31,37.76,1
47,37.97,1
40,38.24,1
46,38.6,1
30,38.94,1
43,39.15,1
35,39.26,1
44,39.34,1
31,39.38,1
41,39.32,1
31,39.17,1
39,38.94,1
31,38.63,1
42,38.3,1
35,38.03,1
37,37.79,1
34,37.55,1
36,37.28,1
33,37,1
35,36.7,1
34,36.39,1
33,36.07,1
35,35.76,1
37,35.49,1
37,35.32,1
36,35.24,1
42,35.26,1
34,35.38,1
36,35.51,1
34,35.59,1
42,35.68,1
32,35.81,1
42,35.94,1
32,36.08,1
44,36.23,1
32,36.41,1
41,36.57,1
31,36.68,1
45,36.77,1
32,36.89,1
38,36.98,1
32,36.98,1
45,36.98,1
30,37,1
37,36.98,1
31,36.85,1
43,36.71,1
31,36.62,1
40,36.53,1
33,36.45,1
42,36.4,1
31,36.39,1
39,36.36,1
31,36.29,1
41,36.21,1
32,36.15,1
38,36.09,1
36,36.05,1
37,36.04,1
33,36.02,1
38,35.98,1
33,35.93,1
34,35.85,1
36,35.74,1
36,35.64,1
35,35.57,1
37,35.53,1
38,35.53,1
32,35.56,1
38,35.56,1
35,35.57,1
42,35.64,1
32,35.76,1
40,35.87,1
32,35.97,1
44,36.07,1
31,36.21,1
44,36.35,1
33,36.51,1
46,36.72,1
31,36.95,1
53,37.23,1
30,37.6,1
49,37.97,1
31,38.31,1
45,38.59,1
34,38.81,1
48,39.02,1
31,39.23,1
44,39.36,1
34,39.42,1
45,39.46,1
31,39.47,1
42,39.41,1
38,39.32,1
43,39.28,1
33,39.26,1
42,39.19,1
36,39.1,1
36,38.99,1
32,38.77,1
38,38.46,1
36,38.15,1
38,37.87,1
34,37.62,1
37,37.37,1
35,37.12,1
34,36.87,1
36,36.61,1
32,36.35,1
37,36.08,1
34,35.84,1
41,35.67,1
33,35.6,1
38,35.57,1
40,35.6,1
39,35.74,1
32,35.9,1
43,36.05,1
38,36.26,1
45,36.57,1
33,36.92,1
49,37.3,1
35,37.72,1
45,38.14,1
31,38.5,1
47,38.76,1
30,38.97,1
37,39.03,1
32,38.91,1
48,38.77,1
31,38.69,1
41,38.6,1
31,38.45,1
46,38.29,1
31,38.18,1
38,38.04,1
31,37.82,1
41,37.57,1
31,37.32,1
37,37.06,1
32,36.77,1
39,36.5,1
34,36.27,1
38,36.09,1
33,35.95,1
33,35.78,1
32,35.56,1
35,35.3,1
35,35.08,1
36,34.91,1
38,34.82,1
36,34.83,1
35,34.88,1
33,34.92,1
40,34.95,1
33,35.03,1
36,35.11,1
33,35.14,1
44,35.22,1
33,35.38,1
37,35.55,1
32,35.65,1
45,35.75,1
31,35.92,1
42,36.08,1
31,36.22,1
48,36.39,1
31,36.61,1
44,36.85,1
33,37.06,1
47,37.3,1
30,37.54,1
44,37.73,1
34,37.89,1
38,37.99,1
30,37.98,1
48,37.92,1
37,37.96,1
42,38.1,1
32,38.2,1
45,38.27,1
32,38.33,1
38,38.32,1
34,38.22,1
43,38.12,1
34,38.05,1
37,37.96,1
36,37.83,1
38,37.7,1
32,37.54,1
35,37.32,1
36,37.05,1
36,36.81,1
35,36.59,1
35,36.38,1
38,36.2,1
38,36.09,1
38,36.08,1
36,36.11,1
40,36.18,1
32,36.26,1
44,36.35,1
34,36.48,1
43,36.66,1
32,36.84,1
44,37,1
31,37.15,1
44,37.28,1
31,37.38,1
42,37.45,1
31,37.47,1
45,37.47,1
32,37.51,1
45,37.56,1
31,37.63,1
36,37.62,1
30,37.47,1
46,37.29,1
31,37.18,1
38,37.08,1
32,36.93,1
41,36.77,1
32,36.64,1
40,36.53,1
32,36.43,1
42,36.36,1
32,36.32,1
37,36.28,1
32,36.18,1
37,36.06,1
34,35.93,1
40,35.84,1
34,35.81,1
37,35.8,1
33,35.78,1
39,35.75,1
36,35.76,1
34,35.79,1
36,35.78,1
34,35.75,1
37,35.71,1
35,35.68,1
43,35.72,1
36,35.86,1
42,36.08,1
33,36.32,1
44,36.55,1
33,36.8,1
40,37,1
33,37.14,1
45,37.27,1
30,37.4,1
51,37.55,1
34,37.79,1
46,38.09,1
31,38.36,1
45,38.55,1
41,38.77,1
46,39.08,1
31,39.37,1
44,39.56,1
36,39.67,1
47,39.79,1
31,39.9,1
42,39.91,1
31,39.81,1
42,39.62,1
31,39.38,1
38,39.07,1
33,38.7,1
40,38.33,1
32,37.98,1
42,37.67,1
35,37.43,1
38,37.25,1
34,37.08,1
38,36.92,1
33,36.76,1
36,36.58,1
35,36.39,1
36,36.22,1
35,36.06,1
37,35.93,1
38,35.86,1
33,35.83,1
40,35.81,1
32,35.81,1
40,35.81,1
33,35.83,1
44,35.9,1
31,36.02,1
44,36.16,1
32,36.32,1
45,36.5,1
31,36.7,1
39,36.84,1
28,36.87,1
47,36.84,1
29,36.85,1
40,36.84,1
32,36.78,1
44,36.74,1
30,36.73,1
39,36.7,1
31,36.61,1
44,36.53,1
31,36.5,1
39,36.47,1
31,36.4,1
41,36.31,1
31,36.24,1
38,36.15,1
33,36.05,1
34,35.92,1
32,35.73,1
40,35.55,1
36,35.46,1
37,35.45,1
34,35.46,1
37,35.47,1
35,35.48,1
35,35.49,1
35,35.49,1
35,35.47,1
36,35.44,1
36,35.44,1
38,35.47,1
33,35.51,1
38,35.55,1
33,35.57,1
41,35.62,1
33,35.69,1
42,35.8,1
33,35.94,1
44,36.11,1
31,36.3,1
44,36.49,1
34,36.69,1
44,36.92,1
31,37.13,1
45,37.32,1
35,37.51,1
44,37.73,1
30,37.92,1
46,38.05,1
38,38.21,1
45,38.44,1
31,38.67,1
44,38.81,1
30,38.87,1
42,38.83,1
31,38.72,1
40,38.55,1
31,38.32,1
41,38.06,1
32,37.8,1
44,37.59,1
32,37.44,1
38,37.3,1
33,37.12,1
38,36.93,1
32,36.74,1
36,36.51,1
33,36.27,1
42,36.08,1
34,35.98,1
36,35.93,1
36,35.87,1
36,35.83,1
38,35.83,1
38,35.88,1
37,35.97,1
32,36.05,1
41,36.09,1
37,36.17,1
42,36.34,1
32,36.52,1
45,36.71,1
36,36.94,1
46,37.24,1
31,37.55,1
46,37.81,1
40,38.11,1
44,38.48,1
30,38.8,1
49,39.02,1
35,39.25,1
45,39.47,1
31,39.63,1
43,39.69,1
37,39.69,1
44,39.71,1
31,39.7,1
43,39.61,1
39,39.53,1
39,39.48,1
29,39.34,1
41,39.08,1
35,38.8,1
38,38.53,1
32,38.24,1
38,37.91,1
36,37.6,1
38,37.34,1
32,37.1,1
34,36.82,1
35,36.5,1
35,36.2,1
37,35.95,1
33,35.75,1
36,35.56,1
34,35.39,1
40,35.28,1
34,35.25,1
37,35.27,1
33,35.27,1
44,35.33,1
33,35.47,1
35,35.61,1
31,35.64,1
47,35.68,1
33,35.83,1
40,36.03,1
32,36.18,1
45,36.34,1
32,36.53,1
51,36.78,1
32,37.13,1
50,37.53,1
31,37.94,1
42,38.27,1
33,38.48,1
45,38.63,1
31,38.74,1
41,38.77,1
34,38.73,1
42,38.66,1
33,38.58,1
40,38.47,1
35,38.34,1
40,38.21,1
32,38.06,1
43,37.91,1
39,37.84,1
41,37.87,1
34,37.92,1
43,37.96,1
36,38.03,1
37,38.08,1
36,38.06,1
35,37.99,1
36,37.85,1
34,37.66,1
40,37.46,1
33,37.28,1
38,37.11,1
33,36.92,1
40,36.75,1
34,36.62,1
43,36.56,1
33,36.56,1
44,36.63,1
33,36.73,1
47,36.9,1
37,37.15,1
46,37.5,1
32,37.85,1
47,38.17,1
36,38.48,1
46,38.81,1
31,39.1,1
48,39.31,1
38,39.53,1
42,39.77,1
32,39.9,1
44,39.93,1
32,39.89,1
34,39.71,1
31,39.35,1
40,38.91,1
32,38.46,1
40,38.04,1
31,37.65,1
41,37.29,1
36,37.01,1
39,36.83,1
33,36.7,1
39,36.57,1
31,36.43,1
41,36.3,1
32,36.2,1
38,36.11,1
33,36.01,1
35,35.9,1
37,35.78,1
36,35.7,1
38,35.68,1
36,35.71,1
40,35.79,1
33,35.89,1
44,36.03,1
36,36.23,1
40,36.48,1
32,36.69,1
42,36.84,1
32,36.96,1
43,37.06,1
31,37.14,1
39,37.17,1
31,37.12,1
40,37.02,1
31,36.89,1
46,36.8,1
31,36.79,1
43,36.81,1
31,36.83,1
44,36.86,1
32,36.91,1
38,36.94,1
31,36.89,1
46,36.83,1
31,36.85,1
36,36.83,1
31,36.71,1
43,36.57,1
31,36.48,1
40,36.4,1
32,36.32,1
39,36.24,1
32,36.16,1
40,36.08,1
34,36.03,1
37,36.01,1
33,35.96,1
38,35.9,1
35,35.86,1
35,35.83,1
37,35.79,1
36,35.78,1
35,35.77,1
34,35.75,1
41,35.73,1
32,35.76,1
37,35.78,1
34,35.77,1
50,35.85,1
31,36.1,1
40,36.34,1
32,36.51,1
43,36.65,1
31,36.77,1
45,36.89,1
32,37.02,1
46,37.18,1
30,37.34,1
45,37.48,1
34,37.62,1
45,37.79,1
30,37.94,1
46,38.04,1
36,38.17,1
46,38.36,1
31,38.55,1
42,38.67,1
35,38.71,1
40,38.72,1
33,38.68,1
41,38.58,1
32,38.44,1
36,38.24,1
31,37.94,1
40,37.59,1
30,37.26,1
37,36.9,1
32,36.54,1
37,36.19,1
32,35.88,1
36,35.58,1
34,35.32,1
36,35.12,1
35,34.96,1
38,34.88,1
36,34.87,1
33,34.9,1
38,34.92,1
34,34.97,1
42,35.07,1
33,35.23,1
40,35.41,1
35,35.6,1
40,35.81,1
32,36,1
44,36.17,1
36,36.4,1
42,36.67,1
32,36.92,1
42,37.12,1
31,37.25,1
40,37.32,1
32,37.31,1
44,37.3,1
30,37.3,1
39,37.24,1
32,37.13,1
49,37.07,1
34,37.16,1
37,37.27,1
32,37.27,1
44,37.25,1
29,37.23,1
42,37.17,1
32,37.1,1
42,37.04,1
33,37,1
39,36.97,1
33,36.91,1
39,36.83,1
31,36.73,1
38,36.59,1
33,36.43,1
40,36.3,1
38,36.24,1
36,36.26,1
34,36.26,1
36,36.22,1
36,36.17,1
33,36.1,1
36,35.99,1
35,35.88,1
42,35.83,1
35,35.88,1
40,35.99,1
34,36.11,1
42,36.25,1
34,36.41,1
44,36.6,1
32,36.81,1
48,37.04,1
32,37.31,1
42,37.55,1
32,37.72,1
44,37.84,1
32,37.94,1
48,38.05,1
34,38.21,1
45,38.4,1
31,38.56,1
44,38.65,1
37,38.73,1
45,38.86,1
30,38.97,1
44,39,1
37,39.01,1
42,39.06,1
31,39.05,1
38,38.94,1
31,38.7,1
39,38.4,1
32,38.06,1
43,37.75,1
32,37.51,1
36,37.27,1
30,36.96,1
40,36.63,1
31,36.34,1
37,36.06,1
33,35.8,1
39,35.59,1
36,35.47,1
35,35.41,1
35,35.36,1
35,35.31,1
44,35.33,1
38,35.51,1
40,35.79,1
32,36.06,1
41,36.28,1
35,36.47,1
42,36.67,1
32,36.87,1
45,37.04,1
31,37.21,1
42,37.34,1
31,37.42,1
44,37.46,1
31,37.49,1
38,37.47,1
30,37.35,1
45,37.2,1
31,37.11,1
37,37,1
31,36.83,1
47,36.68,1
30,36.63,1
42,36.62,1
31,36.6,1
43,36.58,1
31,36.59,1
38,36.56,1
32,36.49,1
44,36.43,1
31,36.43,1
39,36.42,1
32,36.38,1
39,36.32,1
31,36.23,1
38,36.12,1
33,36,1
37,35.89,1
36,35.79,1
38,35.75,1
34,35.75,1
34,35.72,1
35,35.65,1
34,35.56,1
36,35.46,1
34,35.38,1
40,35.33,1
34,35.35,1
38,35.4,1
34,35.46,1
41,35.55,1
33,35.67,1
37,35.77,1
31,35.81,1
44,35.84,1
31,35.91,1
41,35.99,1
32,36.07,1
44,36.16,1
31,36.28,1
46,36.43,1
32,36.62,1
45,36.84,1
29,37.03,1
44,37.17,1
33,37.28,1
44,37.41,1
31,37.52,1
44,37.61,1
37,37.72,1
43,37.89,1
31,38.04,1
42,38.11,1
39,38.18,1
38,38.27,1
32,38.29,1
39,38.21,1
35,38.08,1
36,37.93,1
34,37.72,1
36,37.48,1
36,37.22,1
37,37,1
34,36.8,1
35,36.59,1
34,36.36,1
34,36.11,1
35,35.87,1
36,35.65,1
35,35.48,1
36,35.35,1
42,35.32,1
33,35.39,1
39,35.48,1
35,35.59,1
44,35.76,1
39,36.04,1
46,36.45,1
39,36.96,1
47,37.53,1
32,38.09,1
46,38.56,1
36,38.96,1
46,39.33,1
31,39.62,1
50,39.85,1
32,40.04,1
45,40.19,1
35,40.26,1
45,40.31,1
31,40.31,1
44,40.22,1
32,40.08,1
42,39.88,1
30,39.62,1
37,39.27,1
31,38.82,1
41,38.35,1
31,37.92,1
36,37.48,1
30,37.02,1
43,36.59,1
33,36.28,1
36,36.05,1
32,35.81,1
39,35.6,1
33,35.44,1
37,35.32,1
34,35.23,1
35,35.15,1
39,35.11,1
36,35.15,1
36,35.23,1
35,35.31,1
36,35.38,1
32,35.41,1
36,35.38,1
34,35.34,1
42,35.34,1
32,35.41,1
40,35.5,1
32,35.59,1
43,35.69,1
30,35.81,1
41,35.91,1
31,35.98,1
44,36.06,1
31,36.16,1
37,36.23,1
32,36.22,1
46,36.23,1
31,36.31,1
42,36.42,1
31,36.5,1
44,36.58,1
30,36.66,1
44,36.74,1
32,36.82,1
44,36.92,1
31,37.02,1
42,37.1,1
34,37.16,1
42,37.24,1
32,37.31,1
40,37.33,1
35,37.33,1
42,37.35,1
30,37.37,1
34,37.27,1
36,37.07,1
35,36.86,1
35,36.65,1
36,36.44,1
36,36.26,1
33,36.09,1
37,35.92,1
34,35.76,1
37,35.64,1
34,35.54,1
42,35.5,1
33,35.55,1
44,35.66,1
34,35.85,1
43,36.08,1
32,36.33,1
44,36.56,1
36,36.81,1
43,37.1,1
31,37.36,1
45,37.56,1
40,37.8,1
43,38.12,1
30,38.4,1
46,38.57,1
34,38.71,1
46,38.86,1
31,38.99,1
43,39.04,1
31,39.02,1
41,38.92,1
31,38.75,1
41,38.53,1
31,38.28,1
39,38,1
36,37.73,1
40,37.52,1
34,37.37,1
38,37.22,1
34,37.07,1
39,36.92,1
33,36.79,1
36,36.64,1
32,36.45,1
39,36.25,1
34,36.09,1
37,35.96,1
35,35.86,1
35,35.77,1
36,35.68,1
35,35.61,1
38,35.57,1
36,35.58,1
40,35.65,1
34,35.76,1
39,35.87,1
34,35.98,1
39,36.08,1
32,36.16,1
37,36.18,1
32,36.14,1
44,36.11,1
33,36.16,1
37,36.21,1
32,36.21,1
39,36.17,1
31,36.1,1
44,36.06,1
31,36.08,1
43,36.12,1
31,36.19,1
46,36.29,1
32,36.45,1
46,36.65,1
32,36.88,1
42,37.09,1
34,37.27,1
46,37.46,1
30,37.65,1
44,37.79,1
36,37.93,1
42,38.08,1
32,38.19,1
40,38.22,1
37,38.21,1
38,38.2,1
34,38.14,1
37,38.02,1
34,37.85,1
38,37.65,1
34,37.44,1
39,37.25,1
34,37.07,1
35,36.89,1
37,36.7,1
37,36.54,1
37,36.44,1
36,36.37,1
41,36.36,1
33,36.39,1
41,36.44,1
37,36.52,1
40,36.66,1
32,36.78,1
42,36.87,1
35,36.96,1
46,37.12,1
32,37.32,1
44,37.51,1
33,37.68,1
47,37.87,1
32,38.07,1
45,38.25,1
32,38.39,1
44,38.5,1
31,38.56,1
44,38.57,1
33,38.56,1
42,38.53,1
31,38.46,1
45,38.37,1
32,38.29,1
40,38.2,1
32,38.06,1
40,37.89,1
32,37.69,1
34,37.44,1
32,37.11,1
42,36.78,1
34,36.56,1
38,36.4,1
32,36.25,1
37,36.09,1
35,35.94,1
35,35.81,1
36,35.69,1
34,35.59,1
36,35.49,1
36,35.42,1
39,35.41,1
35,35.46,1
39,35.54,1
32,35.63,1
40,35.71,1
32,35.77,1
40,35.83,1
34,35.89,1
49,36.05,1
32,36.33,1
47,36.67,1
31,37.01,1
36,37.24,1
30,37.28,1
42,37.23,1
32,37.16,1
40,37.09,1
32,37,1
43,36.92,1
35,36.91,1
38,36.92,1
32,36.9,1
46,36.88,1
32,36.94,1
38,36.98,1
31,36.94,1
43,36.88,1
33,36.85,1
33,36.78,1
32,36.6,1
43,36.4,1
31,36.29,1
38,36.18,1
32,36.05,1
38,35.92,1
34,35.8,1
39,35.73,1
34,35.7,1
34,35.66,1
35,35.59,1
36,35.51,1
33,35.44,1
36,35.35,1
39,35.31,1
34,35.33,1
39,35.38,1
32,35.44,1
42,35.51,1
36,35.65,1
39,35.84,1
32,36,1
42,36.14,1
31,36.26,1
36,36.31,1
32,36.27,1
44,36.23,1
32,36.25,1
44,36.33,1
30,36.42,1
43,36.51,1
31,36.58,1
46,36.67,1
36,36.84,1
45,37.1,1
31,37.37,1
42,37.56,1
33,37.7,1
44,37.81,1
31,37.9,1
44,37.96,1
33,38,1
41,38.03,1
32,38,1
40,37.93,1
34,37.83,1
40,37.72,1
32,37.6,1
38,37.44,1
35,37.27,1
37,37.1,1
32,36.91,1
36,36.68,1
37,36.46,1
36,36.29,1
38,36.18,1
34,36.1,1
36,36.03,1
34,35.94,1
40,35.87,1
34,35.85,1
43,35.9,1
33,36.02,1
40,36.14,1
33,36.25,1
41,36.35,1
32,36.44,1
43,36.53,1
31,36.61,1
48,36.73,1
34,36.94,1
45,37.21,1
31,37.46,1
43,37.65,1
39,37.84,1
48,38.13,1
30,38.45,1
44,38.68,1
38,38.87,1
43,39.07,1
31,39.21,1
44,39.26,1
37,39.29,1
41,39.32,1
31,39.29,1
42,39.17,1
32,38.99,1
40,38.78,1
33,38.54,1
43,38.31,1
31,38.11,1
37,37.87,1
34,37.59,1
36,37.3,1
33,36.99,1
37,36.69,1
34,36.41,1
35,36.15,1
35,35.91,1
34,35.69,1
39,35.51,1
34,35.41,1
39,35.37,1
39,35.41,1
39,35.56,1
34,35.75,1
39,35.92,1
35,36.07,1
43,36.25,1
32,36.45,1
42,36.63,1
32,36.78,1
44,36.92,1
32,37.06,1
45,37.2,1
31,37.35,1
36,37.4,1
30,37.31,1
44,37.17,1
31,37.06,1
41,36.97,1
30,36.86,1
44,36.76,1
31,36.69,1
37,36.62,1
32,36.48,1
45,36.38,1
30,36.35,1
38,36.31,1
31,36.21,1
39,36.09,1
34,35.99,1
40,35.93,1
32,35.91,1
39,35.89,1
36,35.89,1
36,35.92,1
34,35.93,1
33,35.88,1
31,35.75,1
36,35.54,1
36,35.36,1
35,35.24,1
35,35.14,1
35,35.07,1
36,35.01,1
34,34.98,1
40,34.99,1
33,35.05,1
36,35.12,1
34,35.15,1
42,35.22,1
31,35.34,1
36,35.43,1
32,35.43,1
44,35.46,1
31,35.55,1
40,35.65,1
31,35.72,1
45,35.81,1
32,35.96,1
46,36.16,1
33,36.42,1
44,36.69,1
32,36.96,1
45,37.2,1
33,37.43,1
44,37.66,1
30,37.83,1
44,37.93,1
36,38.03,1
42,38.15,1
31,38.23,1
43,38.24,1
39,38.28,1
40,38.37,1
32,38.42,1
42,38.39,1
35,38.35,1
36,38.28,1
33,38.11,1
38,37.89,1
35,37.66,1
37,37.43,1
34,37.21,1
34,36.96,1
36,36.68,1
36,36.44,1
40,36.27,1
36,36.2,1
40,36.2,1
36,36.26,1
41,36.38,1
32,36.5,1
43,36.61,1
37,36.76,1
45,37,1
36,37.3,1
42,37.61,1
39,37.92,1
45,38.26,1
29,38.56,1
44,38.73,1
35,38.83,1
40,38.9,1
31,38.88,1
46,38.8,1
34,38.75,1
45,38.75,1
31,38.75,1
43,38.71,1
31,38.62,1
43,38.5,1
31,38.36,1
40,38.18,1
30,37.96,1
38,37.67,1
31,37.34,1
42,37.03,1
32,36.78,1
38,36.57,1
34,36.37,1
39,36.22,1
31,36.09,1
34,35.91,1
33,35.68,1
34,35.43,1
35,35.2,1
35,35.01,1
35,34.86,1
33,34.74,1
36,34.63,1
32,34.53,1
38,34.46,1
32,34.42,1
40,34.42,1
32,34.48,1
39,34.56,1
34,34.67,1
41,34.83,1
32,35.03,1
37,35.19,1
34,35.3,1
43,35.45,1
31,35.63,1
38,35.78,1
31,35.85,1
46,35.92,1
31,36.06,1
36,36.17,1
31,36.16,1
44,36.13,1
31,36.16,1
39,36.18,1
31,36.16,1
48,36.17,1
31,36.3,1
50,36.51,1
32,36.81,1
45,37.14,1
31,37.42,1
41,37.62,1
36,37.76,1
42,37.9,1
32,38.01,1
42,38.07,1
34,38.09,1
38,38.07,1
33,37.98,1
38,37.83,1
35,37.65,1
37,37.48,1
35,37.29,1
37,37.11,1
36,36.94,1
33,36.77,1
36,36.57,1
33,36.34,1
38,36.13,1
34,35.95,1
42,35.85,1
34,35.85,1
42,35.91,1
34,36.03,1
44,36.2,1
31,36.4,1
44,36.58,1
33,36.77,1
48,37,1
31,37.27,1
46,37.54,1
37,37.82,1
47,38.16,1
31,38.5,1
43,38.74,1
39,38.93,1
43,39.14,1
31,39.3,1
46,39.37,1
32,39.4,1
42,39.38,1
31,39.28,1
40,39.1,1
31,38.84,1
38,38.52,1
31,38.15,1
45,37.8,1
32,37.55,1
35,37.31,1
32,37,1
38,36.68,1
30,36.36,1
36,36.03,1
32,35.69,1
36,35.38,1
36,35.13,1
36,34.97,1
36,34.88,1
34,34.83,1
35,34.79,1
36,34.77,1
38,34.8,1
33,34.87,1
36,34.93,1
36,34.98,1
37,35.06,1
33,35.15,1
40,35.23,1
32,35.33,1
36,35.39,1
31,35.39,1
45,35.4,1
33,35.5,1
39,35.65,1
30,35.75,1
47,35.85,1
31,36.02,1
42,36.2,1
32,36.36,1
46,36.54,1
30,36.73,1
37,36.85,1
31,36.84,1
44,36.8,1
30,36.78,1
38,36.72,1
31,36.6,1
40,36.45,1
32,36.32,1
44,36.24,1
32,36.24,1
41,36.27,1
32,36.3,1
40,36.32,1
36,36.36,1
35,36.4,1
35,36.4,1
37,36.36,1
33,36.31,1
35,36.21,1
36,36.09,1
36,35.98,1
39,35.93,1
35,35.93,1
41,35.98,1
38,36.11,1
40,36.31,1
36,36.54,1
45,36.8,1
37,37.12,1
42,37.47,1
31,37.76,1
44,37.95,1
37,38.13,1
46,38.36,1
32,38.6,1
47,38.8,1
35,39,1
47,39.22,1
30,39.4,1
45,39.5,1
36,39.55,1
46,39.63,1
31,39.7,1
46,39.71,1
32,39.69,1
45,39.64,1
30,39.55,1
41,39.38,1
30,39.13,1
41,38.82,1
31,38.48,1
46,38.18,1
31,37.97,1
40,37.77,1
33,37.56,1
35,37.33,1
31,37.03,1
36,36.68,1
32,36.31,1
36,35.96,1
33,35.64,1
36,35.35,1
34,35.12,1
36,34.93,1
38,34.83,1
33,34.79,1
41,34.82,1
34,34.91,1
44,35.09,1
31,35.33,1
41,35.56,1
31,35.75,1
38,35.88,1
30,35.92,1
41,35.92,1
30,35.9,1
47,35.93,1
30,36.03,1
37,36.1,1
30,36.08,1
50,36.08,1
30,36.2,1
40,36.34,1
31,36.42,1
48,36.51,1
32,36.68,1
47,36.91,1
32,37.17,1
44,37.42,1
32,37.63,1
44,37.8,1
32,37.94,1
40,38.01,1
31,38,1
44,37.93,1
34,37.9,1
44,37.91,1
31,37.92,1
39,37.88,1
36,37.8,1
40,37.73,1
31,37.65,1
36,37.48,1
37,37.28,1
42,37.14,1
37,37.12,1
35,37.12,1
37,37.08,1
34,37.01,1
38,36.92,1
34,36.82,1
38,36.71,1
33,36.6,1
41,36.51,1
29,36.42,1
44,36.33,1
34,36.31,1
46,36.39,1
31,36.55,1
49,36.76,1
45,37.14,1
46,37.72,1
32,38.32,1
51,38.83,1
35,39.33,1
42,39.76,1
31,40.02,1
48,40.14,1
31,40.22,1
45,40.23,1
30,40.16,1
47,40.03,1
34,39.92,1
40,39.79,1
31,39.58,1
47,39.35,1
30,39.15,1
41,38.93,1
32,38.66,1
44,38.42,1
32,38.21,1
39,38.01,1
32,37.78,1
41,37.54,1
31,37.32,1
35,37.06,1
33,36.74,1
36,36.42,1
36,36.14,1
37,35.93,1
34,35.77,1
36,35.63,1
35,35.51,1
37,35.43,1
41,35.44,1
36,35.55,1
40,35.72,1
33,35.9,1
43,36.09,1
31,36.27,1
45,36.45,1
32,36.65,1
40,36.82,1
30,36.9,1
48,36.97,1
31,37.1,1
38,37.19,1
32,37.18,1
46,37.17,1
31,37.21,1
45,37.28,1
31,37.35,1
46,37.44,1
31,37.53,1
46,37.64,1
33,37.77,1
40,37.87,1
31,37.89,1
42,37.84,1
34,37.79,1
40,37.73,1
31,37.65,1
45,37.55,1
37,37.54,1
43,37.63,1
32,37.73,1
40,37.78,1
35,37.78,1
33,37.72,1
31,37.52,1
39,37.23,1
32,36.95,1
38,36.68,1
39,36.48,1
36,36.37,1
35,36.3,1
36,36.21,1
39,36.16,1
37,36.17,1
36,36.21,1
35,36.24,1
42,36.28,1
33,36.37,1
40,36.46,1
36,36.55,1
42,36.69,1
32,36.83,1
45,36.97,1
37,37.17,1
49,37.48,1
33,37.86,1
44,38.21,1
32,38.48,1
45,38.68,1
30,38.81,1
41,38.83,1
31,38.75,1
44,38.62,1
31,38.48,1
47,38.38,1
30,38.3,1
37,38.18,1
31,37.93,1
41,37.65,1
31,37.39,1
36,37.1,1
31,36.76,1
43,36.45,1
32,36.25,1
39,36.1,1
34,35.98,1
41,35.93,1
30,35.9,1
39,35.85,1
32,35.79,1
37,35.72,1
32,35.62,1
36,35.5,1
41,35.44,1
36,35.49,1
37,35.59,1
34,35.68,1
35,35.73,1
34,35.73,1
39,35.72,1
33,35.73,1
40,35.75,1
32,35.78,1
45,35.86,1
32,36,1
43,36.17,1
32,36.35,1
43,36.52,1
30,36.67,1
44,36.78,1
31,36.88,1
46,37,1
29,37.12,1
44,37.2,1
34,37.29,1
45,37.41,1
31,37.56,1
45,37.68,1
37,37.83,1
45,38.05,1
30,38.25,1
44,38.38,1
37,38.49,1
43,38.62,1
31,38.73,1
42,38.74,1
32,38.68,1
42,38.59,1
31,38.45,1
37,38.25,1
32,37.96,1
39,37.65,1
32,37.34,1
39,37.04,1
34,36.78,1
37,36.56,1
36,36.37,1
36,36.23,1
39,36.13,1
35,36.09,1
36,36.07,1
37,36.05,1
40,36.09,1
36,36.18,1
40,36.31,1
34,36.45,1
39,36.57,1
34,36.65,1
42,36.74,1
32,36.83,1
44,36.92,1
30,37,1
44,37.07,1
31,37.13,1
47,37.21,1
30,37.32,1
42,37.4,1
31,37.42,1
44,37.43,1
30,37.43,1
38,37.36,1
30,37.21,1
48,37.06,1
30,37.02,1
40,36.98,1
32,36.91,1
46,36.87,1
30,36.89,1
42,36.91,1
32,36.92,1
44,36.94,1
30,36.97,1
43,36.99,1
32,37.01,1
43,37.03,1
33,37.08,1
39,37.11,1
33,37.1,1
40,37.06,1
31,37,1
36,36.87,1
34,36.68,1
38,36.51,1
37,36.38,1
37,36.31,1
36,36.27,1
36,36.24,1
46,36.29,1
32,36.45,1
37,36.58,1
34,36.63,1
41,36.66,1
32,36.7,1
39,36.7,1
32,36.67,1
42,36.63,1
31,36.6,1
42,36.58,1
34,36.58,1
44,36.65,1
31,36.75,1
46,36.87,1
38,37.07,1
44,37.36,1
32,37.66,1
43,37.88,1
34,38.06,1
46,38.24,1
31,38.4,1
43,38.51,1
31,38.54,1
42,38.5,1
31,38.41,1
45,38.3,1
31,38.21,1
43,38.12,1
32,38.02,1
40,37.9,1
31,37.74,1
38,37.53,1
31,37.28,1
42,37.02,1
32,36.82,1
36,36.62,1
34,36.4,1
42,36.24,1
38,36.2,1
36,36.25,1
39,36.32,1
35,36.4,1
39,36.49,1
37,36.58,1
37,36.68,1
32,36.73,1
42,36.74,1
32,36.75,1
40,36.75,1
33,36.74,1
46,36.76,1
32,36.87,1
39,36.96,1
33,36.99,1
47,37.04,1
32,37.18,1
35,37.25,1
31,37.18,1
48,37.1,1
30,37.1,1
34,37.06,1
31,36.86,1
44,36.66,1
31,36.53,1
43,36.45,1
32,36.42,1
43,36.43,1
31,36.46,1
44,36.52,1
36,36.63,1
40,36.79,1
31,36.91,1
43,36.99,1
36,37.08,1
42,37.23,1
32,37.36,1
40,37.43,1
35,37.47,1
34,37.45,1
34,37.33,1
35,37.13,1
34,36.9,1
38,36.67,1
34,36.47,1
35,36.28,1
36,36.1,1
35,35.94,1
33,35.77,1
34,35.58,1
38,35.41,1
34,35.3,1
39,35.25,1
33,35.24,1
42,35.28,1
33,35.39,1
40,35.52,1
31,35.64,1
43,35.74,1
33,35.88,1
42,36.05,1
32,36.22,1
45,36.39,1
38,36.65,1
48,37.02,1
31,37.44,1
43,37.79,1
38,38.09,1
45,38.41,1
30,38.68,1
42,38.83,1
32,38.87,1
41,38.83,1
31,38.72,1
42,38.55,1
30,38.35,1
40,38.1,1
31,37.82,1
43,37.56,1
32,37.35,1
37,37.14,1
33,36.91,1
40,36.69,1
31,36.5,1
41,36.34,1
33,36.21,1
38,36.12,1
36,36.06,1
36,36.02,1
41,36.03,1
36,36.12,1
36,36.23,1
35,36.29,1
38,36.33,1
32,36.34,1
41,36.33,1
34,36.35,1
42,36.4,1
33,36.49,1
44,36.6,1
30,36.73,1
43,36.82,1
31,36.89,1
45,36.97,1
32,37.07,1
41,37.15,1
32,37.2,1
47,37.26,1
30,37.36,1
38,37.41,1
30,37.33,1
40,37.18,1
31,37,1
37,36.79,1
32,36.55,1
44,36.36,1
30,36.24,1
48,36.22,1
31,36.3,1
43,36.42,1
30,36.52,1
43,36.6,1
33,36.68,1
42,36.78,1
33,36.88,1
40,36.95,1
34,37.01,1
40,37.05,1
34,37.08,1
35,37.05,1
34,36.96,1
39,36.83,1
38,36.76,1
37,36.75,1
36,36.74,1
35,36.72,1
36,36.66,1
34,36.57,1
39,36.47,1
34,36.4,1
43,36.38,1
35,36.44,1
41,36.56,1
34,36.68,1
42,36.81,1
30,36.92,1
41,36.96,1
35,36.99,1
44,37.06,1
30,37.16,1
43,37.22,1
42,37.34,1
41,37.58,1
31,37.81,1
44,37.94,1
35,38.06,1
42,38.19,1
31,38.26,1
45,38.28,1
32,38.29,1
43,38.3,1
30,38.26,1
46,38.19,1
30,38.14,1
39,38.03,1
30,37.84,1
40,37.59,1
31,37.33,1
37,37.04,1
31,36.73,1
39,36.41,1
32,36.14,1
36,35.88,1
34,35.64,1
36,35.44,1
38,35.3,1
36,35.25,1
37,35.26,1
38,35.33,1
38,35.46,1
34,35.6,1
32,35.68,1
36,35.67,1
39,35.66,1
36,35.72,1
38,35.81,1
32,35.88,1
40,35.93,1
31,35.96,1
36,35.93,1
30,35.83,1
42,35.7,1
32,35.63,1
38,35.59,1
31,35.53,1
45,35.51,1
30,35.57,1
43,35.66,1
32,35.77,1
43,35.91,1
32,36.07,1
43,36.24,1
32,36.41,1
43,36.57,1
31,36.72,1
47,36.87,1
34,37.08,1
42,37.32,1
30,37.48,1
40,37.54,1
36,37.56,1
38,37.56,1
32,37.52,1
37,37.4,1
36,37.24,1
36,37.09,1
33,36.91,1
37,36.71,1
38,36.54,1
36,36.43,1
36,36.35,1
37,36.29,1
38,36.27,1
36,36.28,1
35,36.29,1
35,36.26,1
38,36.22,1
34,36.2,1
42,36.2,1
31,36.24,1
42,36.28,1
33,36.33,1
43,36.41,1
31,36.52,1
46,36.63,1
38,36.84,1
43,37.14,1
32,37.43,1
41,37.64,1
36,37.79,1
40,37.92,1
31,37.98,1
46,38,1
32,38.03,1
42,38.06,1
30,38.03,1
38,37.91,1
29,37.68,1
41,37.39,1
31,37.12,1
41,36.87,1
31,36.65,1
40,36.45,1
32,36.28,1
45,36.18,1
30,36.17,1
35,36.12,1
32,35.98,1
40,35.83,1
32,35.72,1
38,35.64,1
35,35.57,1
37,35.55,1
37,35.56,1
37,35.61,1
38,35.71,1
36,35.83,1
41,35.99,1
34,36.17,1
39,36.34,1
32,36.45,1
40,36.52,1
32,36.55,1
44,36.59,1
29,36.65,1
41,36.66,1
31,36.63,1
38,36.56,1
33,36.46,1
44,36.4,1
32,36.41,1
41,36.45,1
31,36.47,1
45,36.51,1
31,36.58,1
42,36.66,1
32,36.72,1
43,36.79,1
30,36.84,1
39,36.84,1
32,36.78,1
47,36.76,1
31,36.82,1
47,36.94,1
37,37.15,1
43,37.43,1
32,37.69,1
39,37.85,1
39,37.95,1
35,38.03,1
32,38,1
40,37.87,1
33,37.72,1
40,37.56,1
37,37.44,1
37,37.36,1
34,37.26,1
37,37.13,1
40,37.03,1
37,37,1
35,36.98,1
34,36.91,1
34,36.77,1
37,36.6,1
40,36.48,1
35,36.44,1
42,36.46,1
34,36.54,1
41,36.63,1
35,36.74,1
43,36.88,1
30,37.01,1
41,37.08,1
32,37.1,1
42,37.11,1
28,37.07,1
42,36.98,1
30,36.86,1
38,36.71,1
30,36.5,1
42,36.3,1
30,36.14,1
38,35.97,1
31,35.79,1
44,35.66,1
31,35.62,1
36,35.59,1
32,35.5,1
41,35.43,1
32,35.41,1
40,35.42,1
32,35.45,1
39,35.48,1
32,35.5,1
36,35.5,1
34,35.46,1
37,35.42,1
35,35.41,1
37,35.41,1
38,35.46,1
38,35.57,1
38,35.74,1
36,35.92,1
36,36.08,1
34,36.18,1
38,36.23,1
34,36.27,1
34,36.25,1
34,36.17,1
43,36.11,1
33,36.13,1
37,36.16,1
32,36.14,1
44,36.12,1
33,36.18,1
42,36.28,1
33,36.4,1
43,36.54,1
31,36.67,1
36,36.73,1
32,36.67,1
43,36.6,1
32,36.57,1
45,36.6,1
36,36.72,1
43,36.91,1
31,37.1,1
47,37.28,1
38,37.52,1
41,37.82,1
32,38.06,1
47,38.24,1
35,38.44,1
40,38.61,1
31,38.68,1
43,38.66,1
32,38.59,1
37,38.45,1
32,38.22,1
36,37.92,1
32,37.56,1
36,37.17,1
31,36.76,1
34,36.33,1
37,35.92,1
34,35.6,1
41,35.38,1
37,35.31,1
36,35.34,1
36,35.38,1
34,35.42,1
32,35.41,1
38,35.35,1
35,35.32,1
38,35.34,1
32,35.36,1
44,35.42,1
30,35.53,1
39,35.62,1
31,35.66,1
43,35.7,1
31,35.78,1
40,35.85,1
31,35.89,1
40,35.91,1
31,35.92,1
36,35.87,1
31,35.76,1
42,35.65,1
32,35.6,1
39,35.59,1
32,35.57,1
41,35.58,1
30,35.59,1
46,35.64,1
32,35.77,1
43,35.95,1
32,36.14,1
40,36.3,1
32,36.42,1
40,36.49,1
30,36.51,1
36,36.45,1
35,36.33,1
39,36.24,1
32,36.16,1
39,36.09,1
36,36.04,1
36,36.03,1
38,36.04,1
40,36.11,1
35,36.23,1
35,36.32,1
36,36.36,1
35,36.36,1
38,36.35,1
33,36.33,1
40,36.3,1
34,36.3,1
41,36.32,1
36,36.4,1
44,36.55,1
32,36.74,1
47,36.95,1
36,37.23,1
44,37.56,1
31,37.85,1
44,38.05,1
40,38.27,1
45,38.56,1
31,38.84,1
45,39.02,1
31,39.13,1
41,39.14,1
32,39.05,1
42,38.92,1
32,38.75,1
41,38.55,1
31,38.33,1
40,38.08,1
31,37.8,1
37,37.49,1
31,37.14,1
42,36.81,1
31,36.55,1
35,36.3,1
34,36.02,1
36,35.77,1
33,35.54,1
36,35.33,1
37,35.18,1
34,35.09,1
38,35.05,1
36,35.06,1
38,35.13,1
37,35.25,1
36,35.41,1
37,35.56,1
39,35.73,1
32,35.89,1
43,36.03,1
33,36.2,1
38,36.34,1
32,36.42,1
45,36.48,1
31,36.59,1
40,36.68,1
31,36.71,1
46,36.74,1
31,36.82,1
35,36.85,1
30,36.74,1
46,36.6,1
31,36.55,1
37,36.51,1
32,36.4,1
40,36.28,1
31,36.17,1
42,36.08,1
32,36.03,1
46,36.06,1
31,36.17,1
44,36.32,1
34,36.49,1
39,36.66,1
30,36.75,1
37,36.73,1
37,36.67,1
42,36.68,1
31,36.72,1
36,36.7,1
35,36.61,1
37,36.52,1
34,36.42,1
34,36.29,1
36,36.14,1
38,36.01,1
39,35.98,1
36,36.01,1
37,36.07,1
34,36.12,1
38,36.14,1
33,36.14,1
42,36.16,1
34,36.22,1
40,36.31,1
32,36.38,1
40,36.43,1
39,36.5,1
41,36.67,1
30,36.83,1
42,36.92,1
36,37,1
46,37.16,1
31,37.37,1
42,37.53,1
32,37.63,1
42,37.69,1
30,37.69,1
43,37.64,1
30,37.57,1
40,37.46,1
32,37.31,1
42,37.17,1
32,37.06,1
40,36.95,1
31,36.83,1
39,36.69,1
31,36.53,1
36,36.33,1
30,36.08,1
36,35.79,1
32,35.49,1
36,35.22,1
32,34.97,1
37,34.76,1
34,34.6,1
36,34.51,1
36,34.46,1
36,34.48,1
40,34.58,1
34,34.75,1
38,34.93,1
33,35.1,1
37,35.23,1
33,35.33,1
40,35.41,1
32,35.5,1
41,35.6,1
32,35.7,1
36,35.76,1
32,35.75,1
48,35.78,1
30,35.93,1
38,36.06,1
31,36.1,1
45,36.13,1
30,36.21,1
44,36.31,1
31,36.41,1
44,36.52,1
31,36.64,1
42,36.74,1
33,36.83,1
41,36.91,1
32,36.96,1
40,36.98,1
34,36.98,1
41,36.99,1
30,36.98,1
40,36.91,1
38,36.87,1
42,36.92,1
30,36.99,1
39,36.99,1
34,36.94,1
37,36.88,1
36,36.8,1
36,36.72,1
36,36.63,1
35,36.54,1
34,36.42,1
34,36.26,1
36,36.08,1
34,35.9,1
38,35.76,1
32,35.64,1
38,35.53,1
31,35.42,1
36,35.29,1
34,35.16,1
44,35.11,1
32,35.19,1
43,35.34,1
31,35.51,1
40,35.66,1
33,35.79,1
46,35.96,1
31,36.19,1
46,36.44,1
32,36.71,1
42,36.95,1
31,37.13,1
41,37.24,1
33,37.3,1
46,37.37,1
31,37.48,1
40,37.55,1
33,37.55,1
40,37.52,1
32,37.45,1
40,37.35,1
35,37.26,1
39,37.19,1
32,37.1,1
38,36.98,1
33,36.82,1
39,36.67,1
32,36.53,1
37,36.37,1
35,36.21,1
34,36.06,1
35,35.89,1
34,35.72,1
35,35.55,1
31,35.36,1
38,35.17,1
34,35.02,1
36,34.92,1
33,34.84,1
41,34.81,1
34,34.87,1
42,35.01,1
32,35.19,1
45,35.41,1
32,35.69,1
43,35.97,1
34,36.25,1
46,36.56,1
30,36.88,1
44,37.14,1
36,37.38,1
45,37.66,1
30,37.92,1
43,38.08,1
42,38.25,1
44,38.53,1
31,38.8,1
41,38.93,1
36,38.98,1
41,39.01,1
31,38.97,1
37,38.81,1
32,38.54,1
38,38.21,1
32,37.85,1
42,37.52,1
32,37.25,1
38,37.01,1
36,36.79,1
38,36.63,1
32,36.48,1
35,36.3,1
32,36.07,1
34,35.81,1
38,35.56,1
36,35.41,1
37,35.33,1
33,35.29,1
40,35.27,1
35,35.31,1
38,35.4,1
35,35.5,1
44,35.66,1
32,35.88,1
41,36.09,1
33,36.28,1
43,36.46,1
31,36.63,1
39,36.74,1
31,36.77,1
45,36.78,1
30,36.82,1
37,36.81,1
31,36.7,1
43,36.58,1
31,36.5,1
39,36.42,1
32,36.33,1
45,36.27,1
30,36.29,1
44,36.34,1
33,36.41,1
42,36.53,1
30,36.62,1
49,36.73,1
32,36.92,1
41,37.11,1
32,37.24,1
43,37.33,1
32,37.4,1
39,37.43,1
31,37.38,1
40,37.27,1
34,37.16,1
38,37.05,1
35,36.94,1
36,36.83,1
36,36.7,1
38,36.61,1
39,36.57,1
34,36.57,1
39,36.57,1
33,36.56,1
38,36.52,1
34,36.47,1
43,36.45,1
32,36.49,1
44,36.57,1
30,36.65,1
41,36.7,1
32,36.72,1
41,36.72,1
31,36.71,1
45,36.71,1
32,36.76,1
44,36.85,1
31,36.95,1
44,37.04,1
34,37.15,1
42,37.27,1
28,37.34,1
45,37.35,1
39,37.41,1
44,37.6,1
31,37.81,1
44,37.95,1
34,38.08,1
40,38.17,1
31,38.17,1
43,38.11,1
31,38.03,1
40,37.92,1
34,37.77,1
39,37.63,1
32,37.47,1
36,37.25,1
32,36.99,1
44,36.75,1
33,36.62,1
34,36.5,1
38,36.35,1
33,36.22,1
36,36.08,1
36,35.95,1
38,35.86,1
33,35.81,1
41,35.79,1
33,35.81,1
39,35.84,1
35,35.9,1
44,36.01,1
31,36.18,1
40,36.32,1
30,36.39,1
46,36.45,1
29,36.53,1
38,36.56,1
31,36.51,1
43,36.44,1
32,36.41,1
36,36.37,1
31,36.25,1
44,36.14,1
32,36.1,1
43,36.13,1
32,36.2,1
44,36.3,1
32,36.43,1
45,36.59,1
32,36.77,1
42,36.94,1
31,37.07,1
43,37.15,1
34,37.24,1
42,37.33,1
30,37.4,1
42,37.4,1
36,37.4,1
38,37.43,1
31,37.39,1
39,37.28,1
35,37.15,1
36,37.02,1
34,36.87,1
36,36.69,1
40,36.55,1
34,36.47,1
36,36.4,1
35,36.3,1
40,36.24,1
33,36.21,1
42,36.22,1
33,36.27,1
38,36.31,1
34,36.32,1
43,36.37,1
31,36.44,1
45,36.54,1
38,36.71,1
49,37.03,1
32,37.44,1
45,37.81,1
34,38.14,1
46,38.44,1
31,38.69,1
48,38.9,1
34,39.1,1
41,39.26,1
31,39.29,1
42,39.22,1
32,39.09,1
42,38.92,1
31,38.72,1
42,38.5,1
31,38.26,1
39,38,1
31,37.7,1
36,37.36,1
32,36.99,1
35,36.6,1
34,36.22,1
41,35.92,1
31,35.72,1
36,35.53,1
34,35.35,1
39,35.23,1
34,35.17,1
34,35.13,1
35,35.08,1
36,35.03,1
34,35,1
34,34.96,1
37,34.93,1
33,34.91,1
33,34.87,1
33,34.77,1
38,34.69,1
35,34.66,1
41,34.73,1
32,34.86,1
36,34.97,1
32,35.03,1
45,35.11,1
31,35.27,1
41,35.45,1
32,35.62,1
43,35.79,1
30,35.96,1
46,36.13,1
32,36.33,1
47,36.59,1
30,36.86,1
45,37.1,1
33,37.32,1
45,37.55,1
31,37.75,1
41,37.88,1
39,37.98,1
42,38.13,1
31,38.26,1
41,38.29,1
37,38.29,1
41,38.31,1
32,38.31,1
40,38.24,1
34,38.13,1
43,38.04,1
32,37.96,1
37,37.84,1
33,37.65,1
40,37.44,1
37,37.29,1
37,37.18,1
35,37.08,1
36,36.96,1
38,36.85,1
40,36.79,1
40,36.84,1
34,36.94,1
44,37.04,1
35,37.19,1
44,37.38,1
38,37.62,1
36,37.85,1
32,37.94,1
46,37.97,1
36,38.06,1
45,38.21,1
30,38.35,1
45,38.43,1
30,38.46,1
43,38.44,1
32,38.37,1
46,38.32,1
31,38.29,1
41,38.24,1
30,38.12,1
46,37.98,1
31,37.88,1
37,37.76,1
31,37.54,1
42,37.3,1
30,37.08,1
38,36.85,1
33,36.6,1
41,36.4,1
32,36.26,1
40,36.16,1
33,36.08,1
40,36.03,1
33,36.01,1
37,35.99,1
33,35.94,1
37,35.87,1
34,35.8,1
38,35.74,1
35,35.71,1
36,35.7,1
35,35.69,1
39,35.69,1
35,35.74,1
33,35.77,1
44,35.81,1
33,35.92,1
37,36.04,1
33,36.09,1
43,36.15,1
32,36.24,1
42,36.34,1
33,36.45,1
44,36.59,1
30,36.73,1
46,36.86,1
33,37.02,1
45,37.21,1
31,37.4,1
43,37.55,1
33,37.66,1
47,37.79,1
31,37.95,1
48,38.1,1
36,38.31,1
44,38.56,1
32,38.76,1
40,38.85,1
38,38.88,1
41,38.92,1
31,38.91,1
44,38.83,1
31,38.72,1
40,38.57,1
33,38.37,1
40,38.16,1
32,37.94,1
36,37.67,1
34,37.37,1
38,37.07,1
33,36.81,1
36,36.54,1
34,36.29,1
35,36.04,1
35,35.81,1
35,35.61,1
35,35.44,1
35,35.29,1
37,35.19,1
36,35.14,1
42,35.19,1
34,35.34,1
40,35.52,1
36,35.72,1
40,35.95,1
32,36.16,1
42,36.33,1
33,36.49,1
42,36.64,1
34,36.8,1
47,36.99,1
31,37.23,1
39,37.41,1
30,37.45,1
43,37.43,1
31,37.38,1
39,37.3,1
31,37.17,1
44,37.04,1
32,36.96,1
38,36.89,1
31,36.76,1
38,36.59,1
32,36.4,1
42,36.25,1
34,36.17,1
44,36.18,1
30,36.26,1
40,36.3,1
35,36.33,1
40,36.4,1
32,36.46,1
38,36.47,1
34,36.45,1
34,36.39,1
34,36.26,1
37,36.12,1
36,36,1
34,35.91,1
35,35.8,1
35,35.68,1
35,35.57,1
34,35.46,1
37,35.36,1
35,35.29,1
34,35.24,1
33,35.17,1
40,35.1,1
33,35.1,1
38,35.12,1
34,35.16,1
42,35.25,1
32,35.4,1
42,35.56,1
39,35.78,1
44,36.12,1
30,36.49,1
44,36.78,1
34,37.04,1
41,37.28,1
31,37.45,1
46,37.56,1
32,37.69,1
43,37.81,1
30,37.87,1
42,37.87,1
31,37.81,1
40,37.71,1
32,37.57,1
36,37.38,1
32,37.12,1
41,36.86,1
33,36.66,1
38,36.5,1
32,36.33,1
39,36.17,1
33,36.03,1
39,35.93,1
34,35.86,1
36,35.8,1
36,35.75,1
34,35.7,1
38,35.66,1
35,35.64,1
39,35.67,1
36,35.74,1
37,35.83,1
35,35.92,1
39,36,1
33,36.08,1
43,36.18,1
34,36.31,1
47,36.52,1
32,36.79,1
42,37.05,1
30,37.22,1
42,37.32,1
31,37.35,1
46,37.39,1
34,37.47,1
39,37.56,1
31,37.57,1
42,37.52,1
30,37.44,1
40,37.32,1
32,37.16,1
38,36.99,1
30,36.78,1
39,36.54,1
32,36.3,1
40,36.1,1
31,35.94,1
42,35.82,1
34,35.77,1
40,35.8,1
32,35.83,1
38,35.85,1
35,35.86,1
38,35.89,1
33,35.92,1
36,35.91,1
35,35.87,1
32,35.8,1
36,35.68,1
35,35.55,1
35,35.45,1
36,35.36,1
38,35.33,1
34,35.34,1
44,35.42,1
35,35.6,1
42,35.85,1
34,36.12,1
42,36.39,1
34,36.64,1
44,36.9,1
32,37.14,1
44,37.36,1
36,37.58,1
46,37.84,1
31,38.1,1
45,38.3,1
36,38.49,1
47,38.71,1
30,38.92,1
45,39.06,1
39,39.18,1
42,39.34,1
31,39.43,1
45,39.44,1
32,39.4,1
43,39.33,1
31,39.2,1
44,39.04,1
31,38.87,1
37,38.64,1
30,38.31,1
42,37.94,1
31,37.6,1
37,37.27,1
31,36.91,1
38,36.55,1
31,36.2,1
35,35.86,1
35,35.55,1
37,35.3,1
35,35.14,1
36,35.03,1
35,34.97,1
34,34.92,1
41,34.92,1
34,35,1
36,35.1,1
33,35.17,1
42,35.25,1
28,35.34,1
36,35.35,1
31,35.27,1
39,35.18,1
32,35.12,1
39,35.08,1
32,35.06,1
47,35.13,1
31,35.31,1
38,35.5,1
32,35.62,1
42,35.72,1
31,35.83,1
46,35.97,1
32,36.17,1
46,36.41,1
31,36.67,1
44,36.91,1
32,37.12,1
44,37.31,1
31,37.47,1
42,37.58,1
32,37.63,1
38,37.62,1
32,37.52,1
42,37.4,1
34,37.31,1
41,37.26,1
34,37.23,1
40,37.2,1
35,37.18,1
37,37.16,1
33,37.08,1
36,36.95,1
38,36.81,1
37,36.72,1
35,36.65,1
32,36.53,1
36,36.36,1
35,36.17,1
38,36.02,1
32,35.9,1
38,35.78,1
32,35.66,1
42,35.58,1
32,35.56,1
42,35.6,1
33,35.68,1
42,35.8,1
32,35.94,1
43,36.09,1
35,36.27,1
45,36.52,1
30,36.78,1
44,36.99,1
40,37.23,1
45,37.58,1
31,37.93,1
40,38.16,1
32,38.26,1
45,38.3,1
30,38.32,1
44,38.3,1
31,38.26,1
40,38.16,1
33,38.02,1
43,37.89,1
31,37.77,1
42,37.65,1
32,37.53,1
46,37.45,1
32,37.45,1
37,37.42,1
33,37.31,1
40,37.18,1
30,37.03,1
37,36.82,1
35,36.6,1
35,36.4,1
35,36.2,1
39,36.04,1
37,35.96,1
34,35.93,1
36,35.89,1
32,35.81,1
38,35.7,1
34,35.62,1
41,35.59,1
34,35.63,1
36,35.68,1
33,35.69,1
43,35.71,1
32,35.8,1
39,35.89,1
31,35.93,1
46,36,1
30,36.12,1
36,36.19,1
31,36.15,1
45,36.1,1
30,36.12,1
41,36.15,1
33,36.17,1
44,36.24,1
31,36.35,1
44,36.47,1
31,36.6,1
41,36.7,1
31,36.76,1
43,36.79,1
33,36.84,1
38,36.87,1
32,36.84,1
41,36.79,1
35,36.76,1
43,36.79,1
33,36.88,1
39,36.94,1
36,36.99,1
38,37.03,1
34,37.05,1
37,37.02,1
34,36.94,1
34,36.82,1
34,36.63,1
33,36.39,1
36,36.13,1
34,35.89,1
40,35.71,1
34,35.62,1
41,35.6,1
34,35.64,1
44,35.76,1
34,35.96,1
42,36.19,1
37,36.45,1
42,36.75,1
32,37.03,1
47,37.27,1
37,37.58,1
44,37.93,1
31,38.23,1
43,38.43,1
36,38.57,1
42,38.7,1
31,38.77,1
41,38.74,1
35,38.66,1
41,38.58,1
32,38.48,1
42,38.34,1
34,38.21,1
37,38.06,1
32,37.85,1
40,37.6,1
35,37.39,1
43,37.25,1
31,37.17,1
39,37.07,1
34,36.96,1
38,36.84,1
35,36.74,1
34,36.62,1
35,36.46,1
38,36.3,1
36,36.2,1
37,36.14,1
36,36.11,1
37,36.09,1
37,36.11,1
34,36.12,1
35,36.09,1
35,36.03,1
41,36,1
32,36.01,1
36,36,1
34,35.94,1
41,35.9,1
33,35.92,1
39,35.95,1
34,35.99,1
41,36.05,1
33,36.13,1
37,36.19,1
32,36.19,1
45,36.2,1
31,36.27,1
41,36.35,1
32,36.41,1
44,36.48,1
31,36.58,1
39,36.64,1
33,36.65,1
42,36.66,1
32,36.69,1
38,36.69,1
35,36.65,1
38,36.63,1
35,36.6,1
36,36.56,1
37,36.51,1
38,36.49,1
34,36.48,1
37,36.45,1
33,36.39,1
36,36.29,1
32,36.15,1
34,35.95,1
34,35.73,1
34,35.5,1
33,35.26,1
36,35.04,1
37,34.89,1
36,34.83,1
39,34.85,1
34,34.94,1
37,35.04,1
35,35.14,1
39,35.26,1
35,35.41,1
45,35.62,1
32,35.9,1
41,36.17,1
31,36.38,1
41,36.52,1
33,36.63,1
39,36.71,1
32,36.74,1
44,36.76,1
34,36.83,1
40,36.93,1
31,36.98,1
41,36.97,1
34,36.97,1
40,36.97,1
34,36.97,1
37,36.95,1
33,36.88,1
37,36.76,1
34,36.62,1
36,36.47,1
33,36.3,1
46,36.2,1
35,36.24,1
36,36.33,1
32,36.35,1
36,36.28,1
33,36.17,1
37,36.03,1
38,35.94,1
35,35.9,1
34,35.86,1
38,35.81,1
37,35.8,1
34,35.82,1
37,35.82,1
35,35.82,1
36,35.81,1
36,35.81,1
37,35.82,1
32,35.82,1
37,35.77,1
34,35.72,1
43,35.71,1
35,35.81,1
37,35.94,1
32,36.01,1
41,36.05,1
31,36.09,1
36,36.07,1
35,36.01,1
43,36,1
34,36.09,1
37,36.18,1
33,36.22,1
40,36.24,1
33,36.26,1
39,36.27,1
33,36.28,1
40,36.28,1
34,36.29,1
38,36.31,1
33,36.31,1
38,36.28,1
33,36.23,1
38,36.17,1
34,36.11,1
39,36.07,1
34,36.05,1
37,36.04,1
34,36.01,1
34,35.95,1
33,35.83,1
36,35.68,1
35,35.54,1
38,35.45,1
40,35.46,1
35,35.55,1
39,35.68,1
37,35.84,1
39,36.03,1
36,36.23,1
39,36.42,1
33,36.58,1
39,36.68,1
32,36.73,1
48,36.8,1
32,36.96,1
42,37.13,1
32,37.25,1
38,37.31,1
32,37.27,1
42,37.2,1
30,37.13,1
39,37.01,1
31,36.85,1
42,36.69,1
32,36.57,1
41,36.48,1
32,36.42,1
40,36.36,1
34,36.33,1
42,36.34,1
31,36.37,1
37,36.36,1
38,36.34,1
36,36.35,1
33,36.34,1
39,36.29,1
32,36.24,1
40,36.18,1
34,36.15,1
37,36.13,1
32,36.08,1
35,35.97,1
34,35.82,1
34,35.66,1
35,35.49,1
36,35.35,1
36,35.25,1
36,35.2,1
37,35.2,1
34,35.22,1
38,35.25,1
34,35.31,1
36,35.35,1
35,35.38,1
38,35.43,1
31,35.46,1
38,35.46,1
30,35.42,1
43,35.38,1
31,35.39,1
43,35.46,1
33,35.57,1
42,35.73,1
32,35.9,1
39,36.04,1
33,36.14,1
42,36.24,1
32,36.34,1
39,36.42,1
36,36.48,1
41,36.57,1
31,36.67,1
41,36.72,1
39,36.8,1
36,36.93,1
32,36.98,1
38,36.94,1
34,36.87,1
42,36.81,1
31,36.79,1
35,36.7,1
34,36.54,1
38,36.37,1
34,36.24,1
35,36.1,1
37,35.97,1
36,35.87,1
36,35.82,1
37,35.79,1
36,35.79,1
40,35.84,1
37,35.95,1
32,36.06,1
34,36.06,1
35,35.99,1
35,35.9,1
35,35.8,1
35,35.69,1
35,35.59,1
39,35.53,1
35,35.53,1
38,35.57,1
32,35.6,1
44,35.66,1
33,35.79,1
37,35.92,1
32,35.98,1
38,35.98,1
31,35.95,1
38,35.87,1
32,35.78,1
37,35.68,1
31,35.55,1
38,35.41,1
34,35.3,1
41,35.26,1
35,35.32,1
37,35.41,1
32,35.48,1
37,35.5,1
32,35.48,1
36,35.43,1
34,35.36,1
36,35.29,1
32,35.21,1
36,35.12,1
31,35,1
38,34.88,1
37,34.82,1
34,34.83,1
37,34.86,1
34,34.91,1
39,34.97,1
35,35.09,1
37,35.22,1
35,35.34,1
40,35.48,1
34,35.65,1
38,35.8,1
32,35.91,1
41,35.98,1
33,36.07,1
39,36.14,1
31,36.18,1
39,36.17,1
32,36.13,1
38,36.08,1
31,35.99,1
39,35.88,1
32,35.78,1
37,35.68,1
31,35.55,1
39,35.42,1
32,35.32,1
38,35.24,1
32,35.17,1
39,35.12,1
33,35.1,1
39,35.11,1
34,35.16,1
38,35.24,1
34,35.32,1
40,35.42,1
35,35.55,1
36,35.68,1
34,35.77,1
34,35.8,1
34,35.76,1
35,35.68,1
35,35.59,1
35,35.5,1
38,35.44,1
34,35.42,1
36,35.41,1
36,35.41,1
42,35.47,1
35,35.63,1
37,35.8,1
34,35.93,1
41,36.04,1
36,36.2,1
37,36.35,1
35,36.47,1
40,36.57,1
34,36.67,1
36,36.72,1
32,36.69,1
46,36.66,1
31,36.7,1
41,36.75,1
32,36.78,1
38,36.76,1
31,36.68,1
38,36.55,1
32,36.39,1
39,36.24,1
31,36.08,1
37,35.92,1
33,35.74,1
41,35.62,1
33,35.57,1
36,35.54,1
34,35.49,1
38,35.45,1
34,35.44,1
36,35.43,1
35,35.42,1
34,35.4,1
34,35.35,1
36,35.28,1
35,35.22,1
37,35.2,1
34,35.2,1
35,35.19,1
34,35.17,1
38,35.15,1
41,35.22,1
36,35.4,1
36,35.59,1
33,35.73,1
39,35.82,1
34,35.9,1
38,35.97,1
38,36.06,1
40,36.21,1
34,36.38,1
36,36.5,1
32,36.52,1
41,36.5,1
33,36.49,1
37,36.47,1
34,36.41,1
39,36.35,1
32,36.3,1
36,36.21,1
32,36.06,1
40,35.92,1
31,35.81,1
36,35.68,1
33,35.52,1
39,35.4,1
33,35.32,1
37,35.27,1
32,35.21,1
40,35.17,1
38,35.21,1
38,35.35,1
34,35.52,1
42,35.69,1
33,35.88,1
35,36.03,1
33,36.07,1
36,36.05,1
34,35.99,1
36,35.91,1
35,35.83,1
38,35.77,1
37,35.77,1
37,35.81,1
38,35.9,1
36,36,1
39,36.12,1
37,36.27,1
38,36.43,1
34,36.56,1
37,36.63,1
35,36.66,1
40,36.68,1
32,36.7,1
40,36.7,1
33,36.68,1
38,36.64,1
31,36.56,1
38,36.43,1
33,36.28,1
39,36.15,1
32,36.04,1
39,35.94,1
34,35.87,1
38,35.82,1
32,35.78,1
39,35.72,1
34,35.69,1
39,35.7,1
32,35.71,1
40,35.72,1
34,35.75,1
37,35.8,1
33,35.81,1
39,35.81,1
35,35.83,1
37,35.87,1
33,35.89,1
36,35.87,1
36,35.83,1
36,35.8,1
38,35.81,1
36,35.85,1
37,35.91,1
35,35.97,1
38,36.02,1
35,36.08,1
37,36.13,1
35,36.16,1
39,36.2,1
37,36.27,1
42,36.4,1
35,36.59,1
42,36.79,1
36,37.01,1
40,37.23,1
32,37.38,1
38,37.44,1
34,37.42,1
42,37.39,1
33,37.38,1
38,37.35,1
37,37.29,1
37,37.25,1
32,37.16,1
38,37.02,1
37,36.89,1
39,36.82,1
35,36.79,1
41,36.78,1
36,36.83,1
40,36.91,1
32,36.98,1
38,36.98,1
37,36.96,1
38,36.96,1
34,36.95,1
39,36.92,1
33,36.88,1
36,36.79,1
33,36.65,1
37,36.49,1
34,36.32,1
37,36.16,1
34,36.02,1
36,35.89,1
33,35.75,1
37,35.62,1
39,35.54,1
35,35.55,1
38,35.59,1
35,35.65,1
37,35.72,1
34,35.77,1
39,35.82,1
37,35.9,1
42,36.06,1
34,36.26,1
39,36.45,1
35,36.6,1
38,36.73,1
32,36.79,1
41,36.8,1
32,36.8,1
39,36.77,1
32,36.71,1
41,36.64,1
32,36.59,1
37,36.51,1
32,36.38,1
37,36.22,1
33,36.06,1
36,35.89,1
33,35.71,1
42,35.59,1
30,35.53,1
38,35.47,1
33,35.4,1
37,35.34,1
31,35.27,1
34,35.15,1
33,34.99,1
36,34.84,1
36,34.73,1
37,34.7,1
37,34.74,1
38,34.86,1
38,35.04,1
39,35.28,1
36,35.56,1
38,35.82,1
38,36.07,1
35,36.31,1
36,36.47,1
34,36.56,1
39,36.6,1
34,36.63,1
39,36.64,1
36,36.67,1
42,36.74,1
32,36.83,1
41,36.9,1
34,36.96,1
42,37.03,1
34,37.11,1
39,37.18,1
34,37.21,1
39,37.21,1
31,37.16,1
38,37.05,1
37,36.93,1
40,36.87,1
33,36.84,1
42,36.83,1
33,36.84,1
37,36.83,1
32,36.76,1
39,36.64,1
31,36.51,1
36,36.34,1
34,36.14,1
36,35.95,1
31,35.75,1
37,35.53,1
33,35.33,1
37,35.17,1
34,35.05,1
36,34.96,1
33,34.89,1
35,34.81,1
35,34.75,1
35,34.7,1
36,34.69,1
33,34.69,1
36,34.68,1
34,34.68,1
43,34.74,1
35,34.92,1
39,35.16,1
36,35.41,1
36,35.64,1
33,35.8,1
42,35.94,1
32,36.08,1
36,36.17,1
33,36.18,1
40,36.16,1
33,36.16,1
37,36.14,1
32,36.09,1
41,36.02,1
32,35.99,1
39,35.97,1
33,35.94,1
42,35.95,1
34,36.01,1
38,36.09,1
34,36.15,1
39,36.2,1
33,36.24,1
38,36.25,1
34,36.25,1
41,36.26,1
32,36.29,1
40,36.31,1
34,36.34,1
38,36.36,1
34,36.37,1
38,36.36,1
36,36.36,1
37,36.37,1
36,36.39,1
38,36.41,1
36,36.44,1
35,36.46,1
36,36.45,1
34,36.4,1
39,36.34,1
37,36.32,1
36,36.34,1
35,36.34,1
37,36.33,1
34,36.29,1
37,36.24,1
35,36.19,1
41,36.18,1
37,36.24,1
41,36.38,1
31,36.52,1
43,36.63,1
36,36.76,1
44,36.96,1
33,37.19,1
39,37.36,1
32,37.44,1
38,37.43,1
31,37.34,1
39,37.18,1
32,37,1
38,36.81,1
31,36.59,1
37,36.35,1
31,36.09,1
35,35.81,1
34,35.53,1
41,35.33,1
31,35.22,1
37,35.13,1
34,35.05,1
38,35.02,1
32,35,1
39,35,1
33,35.02,1
37,35.06,1
34,35.09,1
35,35.11,1
35,35.11,1
38,35.14,1
37,35.22,1
38,35.35,1
35,35.51,1
35,35.63,1
38,35.73,1
34,35.83,1
36,35.89,1
34,35.9,1
42,35.94,1
35,36.04,1
36,36.14,1
34,36.2,1
42,36.25,1
33,36.33,1
38,36.41,1
32,36.42,1
44,36.44,1
32,36.5,1
43,36.59,1
32,36.69,1
41,36.77,1
30,36.81,1
40,36.79,1
33,36.74,1
40,36.69,1
32,36.64,1
41,36.59,1
34,36.57,1
40,36.57,1
34,36.59,1
41,36.62,1
37,36.7,1
38,36.81,1
31,36.87,1
40,36.85,1
33,36.81,1
39,36.76,1
31,36.68,1
38,36.56,1
32,36.41,1
38,36.25,1
33,36.09,1
35,35.93,1
35,35.76,1
36,35.61,1
36,35.51,1
34,35.43,1
36,35.35,1
35,35.29,1
34,35.23,1
35,35.17,1
38,35.13,1
36,35.15,1
39,35.23,1
35,35.36,1
38,35.51,1
34,35.64,1
39,35.77,1
35,35.89,1
40,36.03,1
34,36.18,1
39,36.31,1
32,36.39,1
40,36.44,1
33,36.47,1
36,36.46,1
32,36.38,1
39,36.27,1
31,36.15,1
36,36,1
33,35.82,1
43,35.69,1
32,35.66,1
36,35.65,1
35,35.6,1
37,35.58,1
32,35.54,1
39,35.5,1
31,35.46,1
37,35.4,1
31,35.31,1
38,35.2,1
34,35.12,1
38,35.09,1
32,35.08,1
35,35.05,1
35,34.99,1
35,34.95,1
37,34.94,1
38,34.99,1
36,35.1,1
37,35.24,1
38,35.4,1
37,35.59,1
36,35.79,1
34,35.93,1
36,36.01,1
35,36.05,1
39,36.08,1
34,36.13,1
39,36.18,1
34,36.23,1
39,36.27,1
34,36.31,1
38,36.34,1
35,36.36,1
38,36.38,1
34,36.39,1
43,36.43,1
32,36.51,1
40,36.57,1
36,36.64,1
39,36.73,1
33,36.79,1
38,36.81,1
37,36.81,1
38,36.84,1
32,36.83,1
41,36.8,1
35,36.79,1
40,36.81,1
32,36.82,1
38,36.79,1
32,36.71,1
38,36.59,1
35,36.47,1
39,36.39,1
31,36.32,1
38,36.21,1
34,36.1,1
37,36,1
34,35.91,1
36,35.82,1
35,35.73,1
37,35.66,1
35,35.63,1
37,35.61,1
37,35.62,1
37,35.68,1
36,35.76,1
35,35.82,1
38,35.88,1
33,35.93,1
39,35.96,1
36,36.01,1
39,36.09,1
34,36.19,1
36,36.25,1
34,36.25,1
37,36.22,1
32,36.16,1
39,36.07,1
34,36,1
35,35.94,1
32,35.82,1
39,35.69,1
32,35.59,1
36,35.48,1
32,35.35,1
39,35.23,1
32,35.15,1
40,35.11,1
33,35.11,1
40,35.16,1
32,35.23,1
41,35.32,1
33,35.43,1
41,35.57,1
33,35.72,1
39,35.86,1
34,35.98,1
40,36.1,1
33,36.21,1
38,36.28,1
38,36.36,1
39,36.48,1
34,36.6,1
40,36.7,1
38,36.81,1
38,36.96,1
36,37.09,1
40,37.2,1
37,37.32,1
38,37.43,1
38,37.52,1
35,37.59,1
36,37.59,1
36,37.52,1
38,37.44,1
38,37.38,1
38,37.36,1
34,37.33,1
37,37.25,1
35,37.15,1
39,37.05,1
36,36.98,1
37,36.92,1
31,36.83,1
41,36.7,1
32,36.58,1
41,36.49,1
31,36.42,1
37,36.31,1
32,36.16,1
35,35.98,1
33,35.77,1
43,35.62,1
31,35.56,1
37,35.52,1
31,35.43,1
42,35.37,1
33,35.37,1
35,35.38,1
32,35.34,1
38,35.27,1
31,35.2,1
36,35.11,1
34,35.01,1
38,34.95,1
33,34.93,1
40,34.95,1
34,35.03,1
40,35.15,1
33,35.29,1
40,35.44,1
34,35.6,1
40,35.76,1
34,35.93,1
37,36.06,1
35,36.16,1
37,36.22,1
37,36.28,1
39,36.37,1
35,36.47,1
37,36.55,1
37,36.61,1
34,36.64,1
36,36.62,1
33,36.54,1
37,36.43,1
33,36.29,1
37,36.15,1
32,35.99,1
39,35.84,1
32,35.71,1
39,35.61,1
34,35.55,1
40,35.53,1
33,35.57,1
43,35.64,1
34,35.79,1
39,35.95,1
35,36.11,1
38,36.24,1
39,36.39,1
39,36.58,1
33,36.75,1
38,36.85,1
36,36.9,1
40,36.96,1
32,37.01,1
38,37,1
32,36.93,1
38,36.81,1
33,36.67,1
42,36.55,1
35,36.51,1
37,36.51,1
35,36.49,1
38,36.46,1
34,36.44,1
35,36.38,1
34,36.28,1
37,36.15,1
37,36.06,1
36,36.02,1
38,36.01,1
37,36.04,1
36,36.09,1
36,36.14,1
37,36.18,1
34,36.21,1
40,36.23,1
32,36.25,1
37,36.24,1
33,36.18,1
37,36.09,1
32,35.99,1
38,35.86,1
32,35.74,1
39,35.64,1
35,35.57,1
37,35.56,1
32,35.53,1
43,35.53,1
32,35.59,1
35,35.64,1
31,35.59,1
42,35.53,1
32,35.53,1
37,35.53,1
32,35.5,1
41,35.47,1
34,35.5,1
41,35.59,1
32,35.71,1
39,35.8,1
35,35.89,1
40,36,1
35,36.13,1
39,36.27,1
34,36.39,1
41,36.5,1
34,36.62,1
38,36.71,1
35,36.77,1
38,36.8,1
36,36.83,1
37,36.84,1
38,36.86,1
36,36.89,1
35,36.89,1
34,36.82,1
40,36.74,1
31,36.66,1
39,36.56,1
32,36.43,1
39,36.31,1
32,36.19,1
38,36.07,1
32,35.94,1
37,35.8,1
31,35.65,1
39,35.49,1
34,35.38,1
39,35.34,1
32,35.32,1
39,35.32,1
36,35.35,1
39,35.45,1
31,35.55,1
45,35.65,1
39,35.88,1
40,36.2,1
31,36.5,1
40,36.69,1
32,36.8,1
40,36.86,1
32,36.88,1
40,36.86,1
32,36.83,1
39,36.76,1
32,36.67,1
40,36.57,1
36,36.51,1
38,36.5,1
33,36.48,1
38,36.43,1
39,36.41,1
35,36.44,1
34,36.45,1
37,36.4,1
36,36.35,1
35,36.3,1
37,36.25,1
36,36.21,1
39,36.2,1
35,36.23,1
38,36.27,1
32,36.28,1
37,36.24,1
32,36.16,1
39,36.05,1
32,35.95,1
38,35.86,1
32,35.76,1
36,35.64,1
31,35.49,1
38,35.32,1
31,35.17,1
34,35,1
32,34.8,1
43,34.66,1
31,34.64,1
36,34.64,1
34,34.63,1
41,34.67,1
31,34.77,1
37,34.86,1
33,34.91,1
41,34.99,1
33,35.11,1
38,35.24,1
34,35.36,1
39,35.48,1
34,35.6,1
39,35.72,1
36,35.86,1
40,36.02,1
33,36.19,1
40,36.32,1
34,36.44,1
40,36.55,1
36,36.66,1
37,36.77,1
35,36.83,1
36,36.84,1
34,36.8,1
35,36.7,1
36,36.57,1
33,36.42,1
37,36.25,1
32,36.08,1
37,35.89,1
33,35.71,1
38,35.56,1
32,35.43,1
38,35.32,1
34,35.25,1
38,35.21,1
32,35.19,1
35,35.15,1
34,35.08,1
39,35.04,1
32,35.04,1
39,35.05,1
38,35.13,1
38,35.29,1
32,35.45,1
37,35.55,1
34,35.61,1
41,35.68,1
33,35.79,1
40,35.9,1
32,36,1
37,36.05,1
32,36.03,1
39,35.99,1
30,35.93,1
38,35.82,1
34,35.72,1
39,35.65,1
31,35.61,1
38,35.55,1
36,35.51,1
40,35.54,1
34,35.63,1
36,35.71,1
36,35.76,1
38,35.83,1
38,35.93,1
34,36.05,1
37,36.12,1
35,36.17,1
37,36.2,1
36,36.22,1
39,36.27,1
34,36.33,1
38,36.37,1
34,36.39,1
37,36.38,1
33,36.34,1
40,36.29,1
32,36.25,1
36,36.18,1
34,36.07,1
39,35.98,1
32,35.91,1
37,35.82,1
33,35.73,1
40,35.65,1
32,35.61,1
43,35.62,1
32,35.69,1
41,35.79,1
33,35.89,1
37,35.97,1
33,36,1
43,36.04,1
33,36.14,1
41,36.25,1
35,36.38,1
41,36.53,1
33,36.68,1
46,36.84,1
37,37.08,1
41,37.37,1
35,37.63,1
40,37.83,1
34,37.96,1
40,38.03,1
37,38.07,1
37,38.1,1
36,38.07,1
34,37.97,1
39,37.83,1
40,37.73,1
37,37.69,1
35,37.64,1
38,37.56,1
34,37.46,1
37,37.33,1
37,37.19,1
38,37.09,1
32,36.98,1
39,36.85,1
35,36.72,1
38,36.63,1
36,36.56,1
36,36.51,1
35,36.45,1
41,36.41,1
32,36.4,1
41,36.4,1
30,36.39,1
38,36.33,1
31,36.21,1
39,36.08,1
31,35.94,1
38,35.8,1
33,35.66,1
40,35.57,1
32,35.52,1
34,35.45,1
32,35.32,1
40,35.19,1
34,35.13,1
38,35.14,1
34,35.17,1
43,35.26,1
34,35.43,1
39,35.63,1
35,35.82,1
38,36,1
33,36.13,1
38,36.21,1
36,36.27,1
37,36.34,1
36,36.39,1
35,36.42,1
35,36.4,1
37,36.36,1
36,36.32,1
34,36.28,1
36,36.2,1
34,36.1,1
39,36.02,1
33,35.96,1
37,35.9,1
33,35.83,1
39,35.76,1
31,35.7,1
38,35.63,1
32,35.54,1
37,35.45,1
33,35.35,1
39,35.29,1
33,35.26,1
39,35.27,1
30,35.27,1
40,35.25,1
34,35.27,1
42,35.35,1
31,35.47,1
40,35.58,1
39,35.73,1
42,35.98,1
31,36.26,1
40,36.46,1
38,36.64,1
41,36.86,1
36,37.1,1
41,37.32,1
36,37.53,1
40,37.72,1
34,37.85,1
40,37.93,1
36,37.97,1
40,38,1
37,38.03,1
36,38.04,1
36,37.99,1
35,37.88,1
34,37.7,1
34,37.45,1
36,37.16,1
35,36.88,1
37,36.63,1
34,36.41,1
37,36.22,1
32,36.03,1
37,35.83,1
33,35.65,1
35,35.47,1
33,35.29,1
41,35.16,1
34,35.13,1
37,35.15,1
29,35.13,1
45,35.12,1
32,35.19,1
38,35.3,1
32,35.37,1
40,35.43,1
32,35.49,1
35,35.52,1
33,35.48,1
40,35.44,1
32,35.44,1
38,35.44,1
32,35.43,1
41,35.43,1
34,35.48,1
42,35.59,1
34,35.75,1
39,35.93,1
34,36.08,1
37,36.19,1
34,36.25,1
39,36.29,1
34,36.33,1
35,36.33,1
35,36.28,1
35,36.2,1
35,36.1,1
35,35.99,1
36,35.88,1
35,35.78,1
36,35.7,1
32,35.61,1
34,35.47,1
33,35.29,1
34,35.1,1
33,34.9,1
36,34.71,1
33,34.57,1
39,34.48,1
32,34.45,1
38,34.46,1
33,34.49,1
40,34.56,1
34,34.69,1
42,34.88,1
34,35.12,1
42,35.4,1
31,35.67,1
40,35.89,1
34,36.07,1
40,36.24,1
32,36.37,1
40,36.46,1
36,36.55,1
40,36.66,1
33,36.77,1
38,36.82,1
35,36.84,1
40,36.86,1
34,36.88,1
43,36.93,1
33,37.01,1
42,37.09,1
35,37.19,1
39,37.28,1
33,37.32,1
36,37.29,1
34,37.18,1
38,37.04,1
35,36.91,1
37,36.79,1
38,36.7,1
41,36.68,1
34,36.73,1
36,36.76,1
35,36.72,1
33,36.64,1
37,36.5,1
34,36.35,1
38,36.22,1
34,36.12,1
36,36.02,1
33,35.9,1
37,35.77,1
33,35.65,1
38,35.54,1
34,35.47,1
37,35.42,1
32,35.37,1
39,35.32,1
31,35.28,1
35,35.21,1
32,35.09,1
41,35,1
33,34.98,1
38,35.01,1
34,35.06,1
39,35.14,1
32,35.22,1
38,35.29,1
34,35.34,1
47,35.48,1
35,35.76,1
40,36.08,1
34,36.36,1
41,36.61,1
31,36.8,1
38,36.9,1
34,36.92,1
39,36.91,1
36,36.91,1
38,36.92,1
35,36.92,1
39,36.92,1
34,36.91,1
37,36.87,1
36,36.81,1
36,36.75,1
36,36.68,1
36,36.61,1
37,36.54,1
33,36.46,1
38,36.36,1
32,36.25,1
38,36.12,1
33,36,1
37,35.88,1
34,35.77,1
38,35.68,1
34,35.63,1
39,35.61,1
31,35.6,1
43,35.6,1
36,35.69,1
42,35.87,1
32,36.08,1
41,36.26,1
37,36.45,1
40,36.67,1
32,36.85,1
38,36.95,1
32,36.96,1
40,36.92,1
32,36.86,1
42,36.8,1
34,36.78,1
40,36.79,1
31,36.77,1
41,36.73,1
33,36.69,1
37,36.64,1
34,36.56,1
43,36.5,1
36,36.55,1
35,36.61,1
38,36.64,1
36,36.66,1
33,36.65,1
38,36.59,1
35,36.53,1
35,36.45,1
36,36.35,1
33,36.24,1
36,36.09,1
33,35.93,1
39,35.78,1
36,35.7,1
36,35.67,1
33,35.64,1
37,35.59,1
32,35.52,1
38,35.44,1
33,35.37,1
44,35.38,1
32,35.47,1
36,35.56,1
34,35.6,1
42,35.65,1
31,35.75,1
38,35.81,1
31,35.82,1
38,35.78,1
33,35.72,1
40,35.69,1
33,35.69,1
40,35.72,1
31,35.75,1
39,35.76,1
34,35.76,1
40,35.8,1
34,35.86,1
44,35.98,1
34,36.17,1
40,36.38,1
32,36.54,1
39,36.63,1
36,36.7,1
36,36.75,1
36,36.77,1
36,36.76,1
36,36.72,1
35,36.67,1
34,36.57,1
36,36.43,1
35,36.29,1
34,36.14,1
38,36,1
33,35.88,1
36,35.77,1
34,35.64,1
36,35.53,1
32,35.41,1
38,35.29,1
34,35.2,1
38,35.16,1
33,35.15,1
41,35.18,1
35,35.28,1
40,35.43,1
32,35.59,1
39,35.72,1
39,35.86,1
39,36.08,1
31,36.27,1
43,36.41,1
34,36.56,1
39,36.7,1
32,36.79,1
40,36.82,1
33,36.83,1
39,36.81,1
31,36.76,1
42,36.69,1
34,36.65,1
40,36.65,1
34,36.66,1
42,36.69,1
34,36.76,1
36,36.81,1
37,36.81,1
36,36.8,1
34,36.75,1
37,36.67,1
37,36.6,1
36,36.55,1
36,36.5,1
35,36.43,1
36,36.36,1
34,36.26,1
36,36.15,1
33,36.02,1
36,35.87,1
34,35.72,1
38,35.59,1
32,35.5,1
37,35.4,1
33,35.31,1
38,35.23,1
35,35.2,1
35,35.19,1
33,35.17,1
39,35.14,1
32,35.14,1
39,35.15,1
31,35.16,1
39,35.17,1
31,35.17,1
40,35.17,1
32,35.19,1
46,35.28,1
31,35.46,1
41,35.65,1
35,35.85,1
41,36.07,1
31,36.26,1
41,36.4,1
35,36.53,1
42,36.68,1
33,36.84,1
47,37.02,1
36,37.28,1
38,37.55,1
33,37.7,1
38,37.75,1
35,37.73,1
38,37.68,1
34,37.59,1
36,37.45,1
35,37.28,1
32,37.05,1
35,36.77,1
36,36.48,1
37,36.24,1
34,36.05,1
36,35.88,1
34,35.72,1
41,35.62,1
34,35.6,1
36,35.61,1
33,35.59,1
36,35.53,1
35,35.48,1
39,35.46,1
33,35.48,1
39,35.51,1
38,35.59,1
42,35.77,1
31,35.99,1
38,36.14,1
31,36.2,1
40,36.21,1
33,36.21,1
38,36.2,1
30,36.15,1
36,36.02,1
32,35.84,1
41,35.69,1
31,35.59,1
86,35.89,1
31,36.85,1
40,37.92,1
33,38.67,1
37,39.15,1
35,39.39,1
40,39.49,1
33,39.49,1
37,39.36,1
38,39.17,1
38,38.97,1
36,38.77,1
36,38.55,1
36,38.3,1
38,38.05,1
36,37.82,1
35,37.6,1
36,37.36,1
33,37.1,1
35,36.81,1
33,36.5,1
34,36.17,1
33,35.84,1
37,35.53,1
32,35.27,1
36,35.04,1
33,34.84,1
36,34.67,1
35,34.56,1
40,34.53,1
32,34.59,1
39,34.67,1
32,34.75,1
41,34.86,1
32,34.99,1
41,35.15,1
32,35.31,1
42,35.47,1
36,35.68,1
41,35.94,1
30,36.18,1
40,36.32,1
37,36.45,1
39,36.6,1
38,36.77,1
43,36.99,1
34,37.24,1
38,37.43,1
33,37.52,1
40,37.54,1
35,37.54,1
40,37.53,1
35,37.53,1
40,37.52,1
33,37.5,1
39,37.45,1
41,37.42,1
36,37.46,1
35,37.48,1
36,37.43,1
34,37.32,1
37,37.16,1
34,36.99,1
35,36.8,1
35,36.59,1
35,36.37,1
36,36.17,1
36,36.01,1
36,35.88,1
34,35.77,1
38,35.68,1
33,35.61,1
37,35.55,1
33,35.48,1
41,35.45,1
33,35.47,1
38,35.52,1
31,35.53,1
40,35.53,1
31,35.53,1
38,35.51,1
32,35.47,1
40,35.44,1
30,35.42,1
36,35.35,1
32,35.25,1
37,35.13,1
31,35.02,1
36,34.89,1
32,34.75,1
41,34.67,1
34,34.68,1
39,34.76,1
32,34.86,1
43,34.99,1
34,35.19,1
41,35.43,1
36,35.7,1
40,35.99,1
36,36.27,1
38,36.53,1
34,36.72,1
36,36.83,1
34,36.86,1
36,36.81,1
35,36.73,1
35,36.62,1
36,36.49,1
35,36.36,1
37,36.24,1
34,36.13,1
33,36,1
33,35.8,1
36,35.59,1
34,35.4,1
41,35.29,1
33,35.26,1
41,35.3,1
32,35.37,1
41,35.47,1
35,35.6,1
39,35.76,1
33,35.91,1
40,36.03,1
33,36.14,1
41,36.24,1
36,36.37,1
42,36.54,1
31,36.71,1
39,36.81,1
37,36.88,1
44,37.01,1
35,37.2,1
42,37.41,1
32,37.58,1
43,37.69,1
36,37.81,1
40,37.93,1
33,38,1
38,37.99,1
36,37.92,1
37,37.83,1
33,37.7,1
38,37.51,1
34,37.32,1
36,37.11,1
33,36.87,1
36,36.62,1
37,36.38,1
35,36.2,1
36,36.05,1
34,35.91,1
36,35.77,1
35,35.65,1
37,35.56,1
35,35.51,1
36,35.47,1
38,35.47,1
42,35.57,1
31,35.73,1
38,35.85,1
32,35.9,1
38,35.91,1
33,35.9,1
37,35.87,1
33,35.82,1
42,35.79,1
32,35.82,1
37,35.84,1
32,35.81,1
39,35.76,1
30,35.7,1
37,35.6,1
33,35.48,1
43,35.42,1
33,35.46,1
41,35.55,1
34,35.68,1
41,35.84,1
32,35.99,1
41,36.13,1
35,36.27,1
39,36.42,1
35,36.55,1
38,36.65,1
34,36.72,1
38,36.75,1
35,36.76,1
40,36.77,1
34,36.79,1
36,36.79,1
35,36.73,1
35,36.64,1
36,36.53,1
34,36.4,1
34,36.24,1
32,36.03,1
37,35.79,1
34,35.59,1
36,35.42,1
34,35.28,1
38,35.18,1
34,35.13,1
39,35.13,1
32,35.16,1
40,35.2,1
37,35.3,1
41,35.48,1
31,35.69,1
38,35.83,1
40,35.97,1
43,36.22,1
32,36.51,1
39,36.73,1
36,36.9,1
40,37.05,1
32,37.16,1
40,37.21,1
33,37.22,1
42,37.21,1
32,37.21,1
40,37.19,1
31,37.12,1
36,36.99,1
31,36.77,1
42,36.55,1
34,36.4,1
37,36.3,1
36,36.22,1
37,36.16,1
34,36.11,1
35,36.04,1
35,35.94,1
41,35.89,1
35,35.91,1
35,35.95,1
34,35.94,1
35,35.89,1
37,35.83,1
34,35.78,1
37,35.73,1
33,35.68,1
36,35.61,1
34,35.53,1
37,35.46,1
34,35.41,1
41,35.4,1
32,35.45,1
37,35.49,1
33,35.49,1
38,35.49,1
31,35.47,1
35,35.4,1
32,35.28,1
40,35.17,1
32,35.11,1
39,35.09,1
32,35.08,1
41,35.11,1
32,35.17,1
44,35.29,1
33,35.48,1
44,35.72,1
32,35.98,1
46,36.26,1
34,36.59,1
41,36.9,1
32,37.14,1
40,37.3,1
35,37.4,1
42,37.5,1
34,37.6,1
38,37.65,1
36,37.66,1
38,37.64,1
32,37.57,1
38,37.44,1
35,37.28,1
34,37.1,1
33,36.87,1
35,36.58,1
36,36.31,1
35,36.08,1
36,35.88,1
35,35.71,1
36,35.58,1
33,35.46,1
36,35.34,1
33,35.22,1
38,35.12,1
36,35.09,1
40,35.13,1
31,35.22,1
40,35.3,1
34,35.39,1
42,35.53,1
31,35.69,1
40,35.82,1
31,35.91,1
41,35.98,1
32,36.03,1
40,36.08,1
32,36.12,1
40,36.14,1
33,36.16,1
44,36.22,1
33,36.34,1
38,36.46,1
33,36.51,1
43,36.56,1
36,36.67,1
38,36.8,1
31,36.87,1
39,36.85,1
35,36.81,1
37,36.77,1
32,36.69,1
36,36.55,1
34,36.38,1
38,36.21,1
36,36.1,1
37,36.04,1
35,35.99,1
35,35.94,1
35,35.88,1
34,35.79,1
37,35.7,1
36,35.63,1
35,35.6,1
35,35.56,1
38,35.54,1
35,35.55,1
36,35.58,1
29,35.55,1
42,35.47,1
31,35.43,1
37,35.4,1
32,35.33,1
44,35.31,1
31,35.38,1
40,35.46,1
32,35.54,1
40,35.61,1
31,35.67,1
41,35.71,1
34,35.78,1
42,35.9,1
31,36.04,1
42,36.15,1
33,36.27,1
43,36.41,1
32,36.55,1
45,36.71,1
35,36.92,1
41,37.14,1
33,37.32,1
40,37.44,1
35,37.52,1
38,37.56,1
34,37.55,1
39,37.5,1
35,37.44,1
38,37.37,1
38,37.31,1
35,37.26,1
36,37.19,1
35,37.08,1
34,36.92,1
32,36.7,1
37,36.44,1
34,36.19,1
36,35.97,1
35,35.78,1
37,35.63,1
34,35.53,1
40,35.47,1
34,35.47,1
40,35.53,1
37,35.64,1
39,35.81,1
30,35.96,1
45,36.07,1
34,36.23,1
40,36.42,1
31,36.56,1
42,36.65,1
33,36.73,1
41,36.81,1
31,36.85,1
42,36.87,1
32,36.88,1
40,36.88,1
33,36.85,1
44,36.85,1
32,36.9,1
38,36.92,1
33,36.89,1
40,36.83,1
33,36.78,1
36,36.69,1
33,36.56,1
36,36.39,1
33,36.2,1
40,36.03,1
36,35.94,1
38,35.93,1
36,35.95,1
36,35.98,1
35,36,1
36,36,1
34,35.98,1
37,35.93,1
34,35.89,1
34,35.81,1
35,35.71,1
32,35.57,1
35,35.4,1
33,35.21,1
37,35.05,1
32,34.92,1
35,34.78,1
33,34.65,1
39,34.56,1
31,34.52,1
40,34.52,1
34,34.57,1
40,34.69,1
30,34.82,1
41,34.93,1
33,35.07,1
39,35.21,1
31,35.33,1
40,35.42,1
35,35.52,1
45,35.71,1
34,35.98,1
42,36.28,1
37,36.58,1
44,36.93,1
33,37.27,1
44,37.58,1
35,37.85,1
41,38.09,1
33,38.26,1
38,38.32,1
35,38.29,1
39,38.21,1
34,38.11,1
34,37.94,1
34,37.68,1
37,37.39,1
35,37.11,1
36,36.86,1
36,36.63,1
34,36.42,1
36,36.21,1
33,36,1
38,35.81,1
35,35.68,1
35,35.57,1
33,35.46,1
36,35.33,1
34,35.22,1
40,35.16,1
32,35.15,1
42,35.19,1
32,35.28,1
37,35.37,1
31,35.4,1
38,35.38,1
31,35.34,1
36,35.26,1
31,35.15,1
42,35.06,1
31,35.03,1
37,35.02,1
32,34.99,1
39,34.97,1
33,34.97,1
42,35.03,1
32,35.15,1
46,35.34,1
32,35.6,1
43,35.88,1
33,36.16,1
40,36.4,1
34,36.6,1
39,36.76,1
35,36.88,1
41,36.99,1
33,37.09,1
40,37.16,1
34,37.19,1
36,37.18,1
34,37.1,1
37,36.98,1
36,36.86,1
32,36.71,1
35,36.5,1
36,36.28,1
36,36.09,1
36,35.95,1
34,35.82,1
34,35.68,1
36,35.54,1
34,35.41,1
40,35.33,1
34,35.33,1
38,35.36,1
35,35.42,1
41,35.52,1
31,35.64,1
42,35.76,1
38,35.93,1
44,36.2,1
31,36.51,1
41,36.76,1
33,36.94,1
40,37.06,1
31,37.13,1
42,37.14,1
36,37.17,1
40,37.23,1
33,37.28,1
34,37.25,1
33,37.1,1
35,36.88,1
32,36.61,1
44,36.37,1
32,36.25,1
36,36.14,1
33,36,1
39,35.87,1
32,35.77,1
38,35.67,1
34,35.59,1
40,35.56,1
35,35.59,1
39,35.67,1
31,35.74,1
31,35.71,1
34,35.55,1
36,35.37,1
34,35.23,1
35,35.1,1
38,35.01,1
40,35.04,1
36,35.17,1
36,35.33,1
36,35.47,1
32,35.57,1
36,35.59,1
34,35.57,1
38,35.55,1
31,35.53,1
39,35.49,1
32,35.45,1
40,35.42,1
32,35.43,1
39,35.44,1
33,35.46,1
39,35.49,1
32,35.53,1
40,35.56,1
33,35.61,1
43,35.7,1
31,35.82,1
41,35.94,1
36,36.07,1
43,36.27,1
34,36.51,1
41,36.74,1
35,36.95,1
40,37.13,1
35,37.28,1
43,37.43,1
33,37.58,1
40,37.68,1
35,37.74,1
45,37.81,1
35,37.94,1
36,38.03,1
33,38,1
35,37.86,1
33,37.62,1
35,37.33,1
34,37,1
35,36.67,1
34,36.35,1
36,36.05,1
37,35.82,1
34,35.64,1
39,35.52,1
32,35.45,1
40,35.4,1
32,35.38,1
40,35.39,1
31,35.4,1
38,35.4,1
31,35.37,1
40,35.34,1
30,35.31,1
34,35.23,1
32,35.08,1
40,34.95,1
31,34.87,1
38,34.82,1
33,34.78,1
43,34.82,1
33,34.95,1
37,35.1,1
32,35.21,1
43,35.31,1
33,35.47,1
43,35.67,1
33,35.9,1
42,36.14,1
35,36.38,1
40,36.61,1
35,36.82,1
40,37,1
35,37.16,1
38,37.27,1
34,37.32,1
39,37.33,1
34,37.3,1
32,37.2,1
33,36.98,1
36,36.7,1
38,36.45,1
34,36.26,1
35,36.09,1
36,35.92,1
35,35.78,1
34,35.65,1
38,35.53,1
34,35.46,1
37,35.41,1
34,35.38,1
37,35.36,1
32,35.33,1
38,35.3,1
32,35.26,1
39,35.22,1
32,35.21,1
41,35.23,1
32,35.28,1
39,35.34,1
31,35.39,1
40,35.42,1
32,35.45,1
41,35.5,1
33,35.58,1
42,35.7,1
32,35.84,1
39,35.95,1
31,36.02,1
41,36.06,1
33,36.1,1
36,36.12,1
35,36.09,1
40,36.09,1
34,36.13,1
37,36.16,1
38,36.19,1
37,36.26,1
34,36.32,1
35,36.32,1
40,36.32,1
36,36.36,1
36,36.41,1
35,36.43,1
34,36.39,1
34,36.3,1
34,36.15,1
35,35.98,1
43,35.87,1
33,35.88,1
37,35.9,1
36,35.91,1
38,35.95,1
32,35.98,1
38,35.97,1
35,35.96,1
42,36,1
32,36.08,1
40,36.16,1
32,36.22,1
38,36.24,1
33,36.22,1
41,36.21,1
32,36.22,1
40,36.22,1
33,36.23,1
41,36.25,1
33,36.29,1
40,36.34,1
32,36.37,1
41,36.39,1
32,36.41,1
37,36.4,1
32,36.32,1
40,36.23,1
37,36.2,1
37,36.22,1
37,36.26,1
40,36.34,1
38,36.48,1
39,36.66,1
28,36.78,1
36,36.74,1
38,36.63,1
36,36.56,1
36,36.51,1
34,36.43,1
38,36.35,1
34,36.27,1
34,36.17,1
33,36.01,1
36,35.83,1
32,35.64,1
38,35.46,1
32,35.3,1
41,35.2,1
32,35.16,1
36,35.14,1
31,35.07,1
40,35.01,1
30,34.96,1
37,34.91,1
33,34.84,1
44,34.86,1
32,34.98,1
40,35.13,1
35,35.31,1
42,35.52,1
33,35.77,1
38,35.98,1
35,36.15,1
35,36.26,1
34,36.29,1
40,36.3,1
35,36.34,1
39,36.4,1
36,36.47,1
40,36.57,1
35,36.68,1
42,36.81,1
32,36.93,1
36,36.99,1
36,36.96,1
35,36.9,1
36,36.81,1
34,36.69,1
35,36.54,1
34,36.35,1
37,36.17,1
34,36.01,1
36,35.86,1
34,35.72,1
32,35.56,1
32,35.33,1
36,35.09,1
34,34.88,1
35,34.72,1
32,34.57,1
38,34.45,1
34,34.39,1
39,34.41,1
32,34.47,1
38,34.54,1
39,34.67,1
35,34.87,1
33,35.04,1
39,35.17,1
35,35.31,1
41,35.49,1
32,35.68,1
39,35.84,1
33,35.96,1
40,36.06,1
34,36.16,1
40,36.26,1
34,36.36,1
38,36.44,1
34,36.49,1
38,36.51,1
36,36.53,1
35,36.53,1
36,36.5,1
35,36.44,1
37,36.38,1
38,36.34,1
37,36.35,1
35,36.37,1
35,36.35,1
37,36.32,1
35,36.28,1
37,36.24,1
36,36.21,1
34,36.17,1
37,36.11,1
34,36.05,1
38,35.99,1
32,35.93,1
36,35.84,1
35,35.73,1
37,35.65,1
37,35.62,1
34,35.61,1
33,35.57,1
37,35.5,1
32,35.42,1
35,35.31,1
32,35.17,1
43,35.07,1
32,35.08,1
36,35.11,1
34,35.11,1
40,35.14,1
37,35.24,1
40,35.43,1
34,35.65,1
39,35.85,1
36,36.04,1
40,36.24,1
34,36.44,1
41,36.61,1
41,36.83,1
39,37.12,1
35,37.38,1
37,37.55,1
35,37.63,1
38,37.65,1
38,37.65,1
38,37.66,1
35,37.65,1
37,37.6,1
35,37.51,1
38,37.4,1
34,37.28,1
36,37.13,1
36,36.97,1
35,36.8,1
35,36.62,1
35,36.43,1
38,36.27,1
35,36.15,1
37,36.06,1
39,36.03,1
38,36.07,1
34,36.14,1
39,36.2,1
34,36.26,1
39,36.31,1
35,36.36,1
40,36.43,1
32,36.49,1
41,36.53,1
32,36.56,1
36,36.54,1
32,36.44,1
38,36.3,1
32,36.16,1
38,36.01,1
34,35.88,1
42,35.81,1
34,35.84,1
38,35.89,1
34,35.94,1
41,36,1
33,36.09,1
37,36.15,1
35,36.18,1
40,36.22,1
34,36.28,1
37,36.33,1
36,36.35,1
40,36.4,1
36,36.49,1
37,36.58,1
33,36.63,1
34,36.58,1
36,36.47,1
34,36.34,1
36,36.2,1
36,36.07,1
35,35.96,1
37,35.86,1
35,35.8,1
40,35.78,1
34,35.81,1
33,35.82,1
34,35.75,1
34,35.63,1
36,35.51,1
34,35.39,1
36,35.29,1
36,35.23,1
42,35.25,1
32,35.35,1
37,35.45,1
34,35.5,1
38,35.56,1
35,35.62,1
41,35.72,1
34,35.86,1
40,36.01,1
32,36.15,1
37,36.22,1
36,36.25,1
40,36.31,1
34,36.39,1
40,36.47,1
34,36.55,1
39,36.62,1
36,36.68,1
39,36.76,1
37,36.85,1
37,36.94,1
32,36.96,1
39,36.92,1
35,36.87,1
35,36.8,1
35,36.69,1
36,36.56,1
36,36.43,1
36,36.32,1
33,36.2,1
36,36.06,1
37,35.93,1
34,35.83,1
38,35.76,1
34,35.71,1
34,35.65,1
37,35.57,1
35,35.52,1
36,35.49,1
36,35.47,1
36,35.48,1
36,35.5,1
32,35.5,1
40,35.48,1
33,35.49,1
38,35.52,1
36,35.56,1
39,35.65,1
32,35.75,1
37,35.79,1
32,35.79,1
39,35.76,1
33,35.74,1
36,35.7,1
35,35.65,1
41,35.65,1
36,35.74,1
36,35.85,1
35,35.93,1
39,36.01,1
36,36.1,1
39,36.22,1
34,36.34,1
39,36.43,1
36,36.52,1
38,36.61,1
34,36.68,1
38,36.71,1
34,36.71,1
36,36.67,1
38,36.61,1
35,36.58,1
38,36.55,1
36,36.53,1
35,36.51,1
34,36.45,1
37,36.35,1
34,36.25,1
36,36.14,1
34,36.02,1
36,35.89,1
32,35.75,1
40,35.62,1
33,35.54,1
38,35.5,1
35,35.48,1
37,35.49,1
34,35.51,1
38,35.53,1
32,35.54,1
37,35.53,1
35,35.51,1
40,35.53,1
32,35.59,1
38,35.63,1
38,35.69,1
40,35.83,1
34,36,1
38,36.15,1
35,36.27,1
39,36.38,1
34,36.47,1
38,36.53,1
35,36.57,1
38,36.6,1
34,36.61,1
36,36.58,1
35,36.51,1
34,36.41,1
40,36.32,1
38,36.3,1
36,36.34,1
35,36.37,1
38,36.38,1
34,36.38,1
38,36.37,1
36,36.37,1
37,36.38,1
34,36.37,1
34,36.32,1
36,36.21,1
36,36.11,1
36,36.03,1
39,35.99,1
34,36,1
35,35.98,1
37,35.95,1
36,35.93,1
33,35.91,1
41,35.88,1
35,35.92,1
36,35.97,1
31,35.96,1
37,35.88,1
32,35.77,1
37,35.64,1
34,35.53,1
36,35.43,1
33,35.33,1
34,35.21,1
35,35.08,1
38,35,1
34,34.98,1
38,34.99,1
42,35.1,1
40,35.36,1
34,35.68,1
37,35.93,1
35,36.13,1
33,36.23,1
33,36.23,1
38,36.16,1
37,36.12,1
34,36.1,1
35,36.05,1
34,35.96,1
34,35.84,1
37,35.71,1
35,35.61,1
34,35.53,1
36,35.43,1
38,35.38,1
37,35.41,1
32,35.44,1
37,35.44,1
34,35.42,1
36,35.4,1
33,35.37,1
36,35.31,1
34,35.25,1
38,35.22,1
34,35.21,1
38,35.24,1
33,35.27,1
38,35.3,1
35,35.35,1
42,35.46,1
33,35.62,1
36,35.76,1
37,35.86,1
37,35.96,1
36,36.06,1
35,36.14,1
34,36.16,1
39,36.16,1
35,36.17,1
41,36.23,1
36,36.33,1
38,36.46,1
37,36.59,1
40,36.73,1
34,36.86,1
36,36.94,1
36,36.96,1
43,36.99,1
34,37.08,1
35,37.13,1
35,37.1,1
36,37.01,1
39,36.92,1
37,36.89,1
35,36.86,1
38,36.82,1
38,36.81,1
33,36.79,1
33,36.7,1
34,36.52,1
42,36.35,1
35,36.29,1
38,36.28,1
33,36.26,1
37,36.22,1
33,36.14,1
36,36.04,1
33,35.92,1
46,35.85,1
32,35.92,1
35,35.98,1
33,35.95,1
36,35.87,1
33,35.77,1
36,35.65,1
33,35.52,1
41,35.43,1
32,35.41,1
36,35.38,1
34,35.33,1
37,35.29,1
32,35.26,1
42,35.24,1
36,35.32,1
39,35.48,1
36,35.66,1
40,35.87,1
34,36.08,1
34,36.22,1
36,36.27,1
41,36.33,1
36,36.44,1
35,36.55,1
38,36.61,1
38,36.68,1
37,36.76,1
37,36.85,1
39,36.93,1
37,37.03,1
35,37.1,1
33,37.09,1
36,36.99,1
34,36.84,1
40,36.7,1
37,36.62,1
36,36.6,1
35,36.55,1
36,36.49,1
36,36.42,1
37,36.35,1
34,36.3,1
43,36.27,1
34,36.33,1
37,36.4,1
34,36.42,1
37,36.4,1
37,36.39,1
37,36.39,1
36,36.41,1
37,36.43,1
33,36.42,1
34,36.34,1
32,36.18,1
35,35.96,1
33,35.73,1
35,35.49,1
35,35.28,1
37,35.12,1
35,35.03,1
37,35,1
37,35.02,1
38,35.11,1
34,35.23,1
36,35.33,1
37,35.42,1
36,35.52,1
36,35.63,1
36,35.72,1
37,35.8,1
35,35.88,1
37,35.95,1
37,36.02,1
40,36.12,1
35,36.27,1
34,36.37,1
34,36.38,1
36,36.32,1
36,36.25,1
37,36.2,1
36,36.17,1
37,36.16,1
34,36.14,1
37,36.11,1
38,36.1,1
36,36.13,1
37,36.17,1
38,36.23,1
32,36.27,1
35,36.24,1
32,36.13,1
38,35.98,1
37,35.88,1
35,35.83,1
31,35.75,1
37,35.61,1
32,35.47,1
38,35.33,1
34,35.23,1
37,35.18,1
42,35.21,1
35,35.36,1
36,35.52,1
36,35.65,1
33,35.74,1
37,35.78,1
34,35.79,1
39,35.8,1
36,35.85,1
37,35.93,1
36,36,1
37,36.08,1
33,36.12,1
41,36.15,1
39,36.25,1
36,36.41,1
36,36.54,1
34,36.61,1
37,36.61,1
33,36.57,1
33,36.46,1
34,36.27,1
39,36.08,1
34,35.95,1
35,35.84,1
34,35.71,1
34,35.56,1
35,35.41,1
36,35.28,1
34,35.18,1
39,35.12,1
36,35.14,1
37,35.21,1
33,35.28,1
40,35.36,1
35,35.46,1
36,35.58,1
34,35.66,1
36,35.69,1
32,35.68,1
39,35.65,1
34,35.63,1
44,35.68,1
34,35.83,1
39,36.01,1
37,36.19,1
40,36.39,1
35,36.59,1
35,36.74,1
35,36.79,1
38,36.8,1
36,36.8,1
36,36.79,1
37,36.77,1
36,36.75,1
35,36.7,1
36,36.63,1
34,36.53,1
35,36.39,1
36,36.25,1
35,36.11,1
41,36.03,1
34,36.02,1
37,36.03,1
34,36.02,1
35,35.98,1
33,35.89,1
34,35.76,1
36,35.6,1
35,35.48,1
32,35.35,1
38,35.21,1
41,35.18,1
37,35.28,1
43,35.5,1
39,35.83,1
32,36.16,1
37,36.37,1
34,36.49,1
42,36.58,1
32,36.69,1
41,36.77,1
35,36.85,1
37,36.91,1
37,36.95,1
38,36.98,1
35,37.01,1
40,37.03,1
36,37.07,1
36,37.1,1
36,37.09,1
39,37.06,1
34,37.05,1
41,37.03,1
36,37.05,1
38,37.09,1
42,37.16,1
38,37.31,1
37,37.47,1
38,37.59,1
36,37.68,1
36,37.7,1
38,37.68,1
35,37.63,1
38,37.56,1
35,37.47,1
40,37.39,1
34,37.32,1
38,37.24,1
34,37.14,1
37,37.02,1
36,36.9,1
34,36.76,1
36,36.6,1
34,36.43,1
37,36.26,1
37,36.13,1
34,36.04,1
35,35.93,1
34,35.8,1
36,35.67,1
34,35.55,1
38,35.46,1
31,35.38,1
36,35.27,1
32,35.14,1
36,35.01,1
39,34.93,1
35,34.94,1
42,35.05,1
37,35.25,1
34,35.48,1
36,35.65,1
34,35.76,1
35,35.81,1
40,35.85,1
36,35.95,1
37,36.06,1
36,36.16,1
37,36.25,1
37,36.33,1
36,36.41,1
38,36.48,1
36,36.55,1
32,36.57,1
37,36.51,1
36,36.43,1
40,36.4,1
35,36.41,1
34,36.42,1
37,36.37,1
38,36.34,1
35,36.34,1
37,36.33,1
33,36.3,1
34,36.21,1
32,36.05,1
35,35.83,1
33,35.6,1
40,35.41,1
37,35.34,1
39,35.37,1
34,35.46,1
37,35.55,1
34,35.61,1
37,35.65,1
36,35.7,1
40,35.78,1
34,35.91,1
35,35.99,1
34,36.01,1
36,35.98,1
33,35.92,1
35,35.82,1
35,35.7,1
39,35.62,1
35,35.6,1
40,35.64,1
35,35.73,1
50,35.94,1
36,36.32,1
35,36.71,1
38,36.98,1
38,37.19,1
36,37.36,1
36,37.47,1
37,37.51,1
37,37.51,1
36,37.49,1
35,37.43,1
37,37.32,1
32,37.18,1
41,37.01,1
33,36.88,1
35,36.73,1
36,36.55,1
39,36.42,1
36,36.35,1
36,36.31,1
34,36.25,1
37,36.18,1
34,36.1,1
35,36,1
36,35.9,1
36,35.81,1
32,35.72,1
38,35.61,1
36,35.54,1
38,35.53,1
33,35.55,1
36,35.55,1
34,35.52,1
37,35.49,1
33,35.46,1
37,35.42,1
32,35.37,1
36,35.29,1
35,35.22,1
40,35.2,1
34,35.26,1
35,35.32,1
34,35.33,1
38,35.34,1
36,35.39,1
35,35.45,1
36,35.5,1
34,35.53,1
41,35.58,1
36,35.69,1
39,35.85,1
36,36.03,1
37,36.19,1
36,36.33,1
35,36.42,1
34,36.45,1
37,36.42,1
33,36.36,1
37,36.27,1
35,36.18,1
36,36.09,1
33,35.99,1
35,35.86,1
31,35.68,1
37,35.48,1
33,35.29,1
34,35.11,1
34,34.93,1
36,34.78,1
34,34.67,1
36,34.6,1
34,34.56,1
38,34.56,1
34,34.6,1
36,34.67,1
33,34.72,1
38,34.77,1
33,34.83,1
34,34.86,1
34,34.86,1
38,34.85,1
34,34.89,1
34,34.92,1
36,34.93,1
38,34.97,1
34,35.05,1
38,35.15,1
35,35.25,1
37,35.37,1
36,35.48,1
41,35.64,1
36,35.85,1
37,36.06,1
36,36.24,1
40,36.4,1
36,36.58,1
34,36.72,1
36,36.76,1
36,36.76,1
36,36.73,1
36,36.68,1
38,36.64,1
33,36.6,1
36,36.51,1
35,36.4,1
36,36.28,1
36,36.18,1
35,36.08,1
35,35.98,1
39,35.91,1
33,35.87,1
38,35.84,1
37,35.83,1
40,35.9,1
32,36,1
37,36.05,1
32,36.03,1
38,35.98,1
34,35.93,1
37,35.88,1
33,35.82,1
37,35.75,1
34,35.68,1
40,35.65,1
32,35.65,1
36,35.63,1
34,35.58,1
35,35.51,1
36,35.44,1
35,35.39,1
35,35.35,1
41,35.36,1
34,35.44,1
37,35.53,1
36,35.62,1
38,35.73,1
38,35.86,1
38,36.04,1
34,36.2,1
36,36.3,1
39,36.38,1
35,36.47,1
35,36.52,1
34,36.5,1
34,36.41,1
34,36.26,1
36,36.1,1
34,35.93,1
35,35.77,1
34,35.6,1
36,35.45,1
34,35.32,1
38,35.22,1
34,35.18,1
37,35.16,1
40,35.21,1
36,35.34,1
33,35.47,1
37,35.55,1
34,35.6,1
37,35.63,1
33,35.65,1
35,35.62,1
33,35.55,1
39,35.47,1
32,35.43,1
37,35.38,1
35,35.33,1
36,35.32,1
34,35.3,1
38,35.29,1
37,35.34,1
39,35.45,1
33,35.58,1
39,35.7,1
36,35.82,1
38,35.96,1
33,36.08,1
37,36.14,1
37,36.18,1
35,36.22,1
35,36.23,1
36,36.21,1
36,36.17,1
34,36.13,1
36,36.05,1
34,35.96,1
35,35.86,1
33,35.72,1
36,35.57,1
35,35.44,1
37,35.35,1
34,35.29,1
37,35.25,1
34,35.23,1
36,35.22,1
34,35.2,1
35,35.17,1
32,35.11,1
37,35.03,1
35,34.98,1
39,34.98,1
33,35.04,1
40,35.12,1
36,35.25,1
39,35.43,1
31,35.6,1
36,35.68,1
33,35.69,1
35,35.65,1
33,35.56,1
40,35.49,1
33,35.46,1
38,35.46,1
33,35.46,1
42,35.5,1
34,35.6,1
39,35.73,1
35,35.86,1
41,36.01,1
32,36.17,1
38,36.28,1
34,36.33,1
38,36.36,1
34,36.38,1
32,36.32,1
35,36.18,1
37,36.03,1
35,35.91,1
37,35.83,1
40,35.81,1
36,35.87,1
37,35.97,1
36,36.05,1
34,36.11,1
34,36.1,1
38,36.06,1
36,36.04,1
35,36.04,1
36,36.01,1
35,35.98,1
38,35.95,1
35,35.95,1
34,35.94,1
38,35.9,1
35,35.89,1
37,35.89,1
32,35.87,1
41,35.84,1
31,35.83,1
36,35.79,1
33,35.7,1
38,35.61,1
32,35.53,1
37,35.44,1
31,35.34,1
39,35.23,1
41,35.22,1
38,35.36,1
34,35.55,1
40,35.72,1
33,35.88,1
37,36.01,1
32,36.06,1
41,36.08,1
33,36.11,1
36,36.13,1
34,36.1,1
37,36.05,1
33,35.98,1
35,35.88,1
38,35.79,1
36,35.75,1
34,35.72,1
37,35.69,1
37,35.68,1
39,35.74,1
36,35.84,1
36,35.95,1
41,36.08,1
35,36.25,1
38,36.41,1
35,36.53,1
35,36.6,1
34,36.59,1
36,36.53,1
37,36.45,1
36,36.4,1
33,36.33,1
38,36.23,1
32,36.12,1
36,35.99,1
34,35.84,1
38,35.71,1
30,35.59,1
35,35.43,1
35,35.25,1
40,35.14,1
34,35.13,1
37,35.16,1
41,35.24,1
40,35.46,1
37,35.75,1
39,36.06,1
34,36.33,1
40,36.55,1
34,36.73,1
39,36.87,1
36,36.98,1
40,37.09,1
34,37.19,1
36,37.22,1
35,37.19,1
32,37.07,1
36,36.87,1
36,36.66,1
36,36.48,1
34,36.31,1
36,36.14,1
33,35.96,1
39,35.81,1
34,35.7,1
40,35.65,1
33,35.65,1
36,35.65,1
33,35.61,1
38,35.56,1
36,35.54,1
36,35.56,1
35,35.58,1
39,35.62,1
33,35.67,1
37,35.71,1
37,35.75,1
39,35.84,1
31,35.92,1
36,35.94,1
35,35.9,1
36,35.86,1
32,35.79,1
41,35.72,1
34,35.71,1
37,35.73,1
35,35.74,1
38,35.77,1
33,35.8,1
39,35.82,1
36,35.86,1
40,35.96,1
38,36.11,1
35,36.29,1
38,36.42,1
40,36.57,1
39,36.77,1
36,36.98,1
37,37.14,1
36,37.24,1
36,37.28,1
36,37.28,1
36,37.23,1
37,37.16,1
36,37.09,1
36,37.01,1
40,36.94,1
34,36.91,1
35,36.85,1
34,36.73,1
35,36.56,1
32,36.35,1
35,36.1,1
36,35.86,1
37,35.67,1
37,35.57,1
36,35.53,1
37,35.53,1
40,35.6,1
34,35.71,1
37,35.82,1
34,35.89,1
36,35.93,1
34,35.92,1
38,35.91,1
33,35.89,1
37,35.85,1
34,35.81,1
40,35.79,1
34,35.81,1
42,35.88,1
35,36.02,1
36,36.15,1
34,36.22,1
42,36.29,1
36,36.41,1
40,36.57,1
36,36.73,1
38,36.89,1
32,36.98,1
36,36.96,1
36,36.89,1
37,36.81,1
33,36.72,1
38,36.6,1
35,36.49,1
35,36.38,1
35,36.25,1
35,36.12,1
34,35.97,1
31,35.77,1
34,35.52,1
36,35.27,1
34,35.07,1
34,34.9,1
33,34.73,1
35,34.57,1
36,34.45,1
36,34.41,1
37,34.43,1
35,34.51,1
36,34.61,1
33,34.7,1
36,34.76,1
33,34.8,1
36,34.82,1
32,34.81,1
38,34.8,1
36,34.83,1
36,34.91,1
33,34.98,1
36,35.01,1
37,35.06,1
36,35.14,1
33,35.21,1
40,35.28,1
32,35.36,1
36,35.41,1
34,35.42,1
42,35.46,1
34,35.57,1
36,35.69,1
34,35.76,1
38,35.8,1
36,35.85,1
36,35.92,1
33,35.94,1
37,35.93,1
34,35.89,1
39,35.87,1
36,35.88,1
37,35.93,1
36,35.99,1
36,36.04,1
35,36.07,1
34,36.06,1
41,36.05,1
40,36.14,1
35,36.3,1
34,36.41,1
35,36.43,1
34,36.39,1
37,36.31,1
35,36.23,1
35,36.15,1
34,36.04,1
35,35.9,1
34,35.76,1
34,35.6,1
32,35.41,1
36,35.2,1
34,35.02,1
36,34.88,1
32,34.76,1
42,34.7,1
36,34.75,1
42,34.94,1
36,35.21,1
35,35.48,1
37,35.69,1
32,35.85,1
39,35.93,1
39,36.04,1
34,36.18,1
35,36.26,1
34,36.27,1
40,36.26,1
32,36.26,1
35,36.21,1
35,36.1,1
36,36,1
35,35.9,1
36,35.82,1
37,35.76,1
35,35.73,1
40,35.74,1
36,35.81,1
35,35.9,1
33,35.93,1
44,35.96,1
33,36.07,1
37,36.17,1
33,36.21,1
35,36.19,1
32,36.09,1
39,35.96,1
30,35.84,1
48,35.77,1
32,35.84,1
38,35.95,1
32,36,1
39,36.01,1
33,36.01,1
36,35.99,1
31,35.91,1
38,35.78,1
32,35.66,1
37,35.53,1
33,35.41,1
40,35.32,1
31,35.28,1
38,35.24,1
37,35.24,1
39,35.32,1
34,35.44,1
38,35.56,1
34,35.66,1
42,35.78,1
34,35.95,1
39,36.12,1
35,36.27,1
42,36.43,1
35,36.62,1
41,36.82,1
35,37.01,1
41,37.18,1
37,37.36,1
36,37.51,1
37,37.59,1
38,37.63,1
39,37.67,1
32,37.69,1
37,37.61,1
34,37.46,1
42,37.33,1
33,37.24,1
40,37.17,1
34,37.1,1
39,37.03,1
31,36.94,1
48,36.88,1
36,36.96,1
43,37.15,1
32,37.33,1
45,37.49,1
36,37.68,1
42,37.89,1
31,38.05,1
40,38.1,1
40,38.13,1
42,38.23,1
30,38.31,1
44,38.32,1
36,38.33,1
40,38.36,1
33,38.34,1
38,38.26,1
36,38.13,1
37,37.98,1
47,37.91,1
36,37.98,1
38,38.08,1
34,38.1,1
40,38.07,1
33,38,1
43,37.92,1
36,37.89,1
45,37.93,1
31,38.01,1
58,38.17,1
44,38.61,1
43,39.22,1
32,39.73,1
47,40.08,1
41,40.4,1
52,40.8,1
31,41.21,1
49,41.5,1
33,41.7,1
50,41.83,1
37,41.95,1
